{
  "AcquisitionMatrixPE": 104,
  "AcquisitionNumber": 1,
  "AcquisitionTime": "18:42:8.302500",
  "BandwidthPerPixelPhaseEncode": 17.17,
  "BaseResolution": 104,
  "BodyPartExamined": "BRAIN",
  "CoilCombinationMethod": "Sum of Squares",
  "ConsistencyInfo": "N4_VE11C_LATEST_20160120",
  "ConversionSoftware": "dcm2niix",
  "ConversionSoftwareVersion": "v1.0.20211006",
  "DerivedVendorReportedEchoSpacing": 0.000560011,
  "DeviceSerialNumber": "167006",
  "DwellTime": 2.1e-06,
  "EchoTime": 0.037,
  "EchoTime1": 0.037,
  "EchoTime2": 0.001,
  "EchoTrainLength": 104,
  "EffectiveEchoSpacing": 0.000560011,
  "FlipAngle": 52,
  "HeudiconvVersion": "0.10.0",
  "ImageComments": "Unaliased MB4/PE3/LB",
  "ImageOrientationPatientDICOM": [0.999828, -0.0121728, 0.0140058, 0.0164047, 0.932604, -0.360527],
  "ImageOrientationText": "Tra>Cor(-21.1)>Sag(0.5)",
  "ImageType": [
    "ORIGINAL",
    "PRIMARY",
    "P",
    "MB",
    "ND",
    "MOSAIC",
    "PHASE"
],
  "ImagingFrequency": 123.259,
  "InPlanePhaseEncodingDirectionDICOM": "COL",
  "InstitutionAddress": "Chemin Queen-Mary 4565,Montreal,District,CA,H3W 1W5",
  "InstitutionName": "IUGM",
  "InstitutionalDepartmentName": "Department",
  "MRAcquisitionType": "2D",
  "MagneticFieldStrength": 3,
  "Manufacturer": "Siemens",
  "ManufacturersModelName": "Prisma_fit",
  "MatrixCoilMode": "SENSE",
  "Modality": "MR",
  "MultibandAccelerationFactor": 4,
  "PartialFourier": 1,
  "PatientPosition": "HFS",
  "PercentPhaseFOV": 100,
  "PercentSampling": 100,
  "PhaseEncodingDirection": "j",
  "PhaseEncodingSteps": 104,
  "PhaseResolution": 1,
  "PixelBandwidth": 2290,
  "ProcedureStepDescription": "games^mario",
  "ProtocolName": "func_task-mario_run-03",
  "PulseSequenceDetails": "%CustomerSeq%\\cmrr_mbep2d_bold",
  "ReceiveCoilActiveElements": "HC1-7;NC1,2",
  "ReceiveCoilName": "HeadNeck_64",
  "ReconMatrixPE": 104,
  "RepetitionTime": 1.49,
  "SAR": 0.0641688,
  "ScanOptions": "FS",
  "ScanningSequence": "EP",
  "SequenceName": "epfid2d1_104",
  "SequenceVariant": "SK\\SS",
  "SeriesDescription": "func_task-mario_run-03",
  "SeriesNumber": 17,
  "ShimSetting": [610, -7252, -8840, 381, 5, -327, 28, 34],
  "SliceThickness": 2,
  "SliceTiming": [0, 0.785, 0.1, 0.8825, 0.1975, 0.98, 0.295, 1.08, 0.3925, 1.1775, 0.49, 1.275, 0.59, 1.3725, 0.6875, 0, 0.785, 0.1, 0.8825, 0.1975, 0.98, 0.295, 1.08, 0.3925, 1.1775, 0.49, 1.275, 0.59, 1.3725, 0.6875, 0, 0.785, 0.1, 0.8825, 0.1975, 0.98, 0.295, 1.08, 0.3925, 1.1775, 0.49, 1.275, 0.59, 1.3725, 0.6875, 0, 0.785, 0.1, 0.8825, 0.1975, 0.98, 0.295, 1.08, 0.3925, 1.1775, 0.49, 1.275, 0.59, 1.3725, 0.6875],
  "SoftwareVersions": "syngo MR E11",
  "SpacingBetweenSlices": 2,
  "StationName": "MRC35049",
  "TaskName": "mario",
  "TotalReadoutTime": 0.0576811,
  "TxRefAmp": 294.103,
  "WipMemBlock": "18deaae1-0dfa-458d-8aac-7f15d343eb3a||Sequence: R016 ve11c/master r/e634e98; Dec 19 2017 11:00:25 by eja",
  "dcmmeta_affine": [
    [-1.9996556043624878, 0.032809432595968246, 0.017346467822790146, 102.09310913085938],
    [0.024345628917217255, 1.8652087450027466, -0.7213899493217468, -62.89177322387695],
    [0.028011590242385864, 0.7210546135902405, 1.865286946296692, -67.53421020507812],
    [0.0, 0.0, 0.0, 1.0]
],
  "dcmmeta_reorient_transform": [
    [0.0, -1.0, 0.0, 103.0],
    [1.0, 0.0, 0.0, 0.0],
    [0.0, 0.0, 1.0, 0.0],
    [0.0, 0.0, 0.0, 1.0]
],
  "dcmmeta_shape": [104, 104, 60, 440],
  "dcmmeta_slice_dim": 2,
  "dcmmeta_version": 0.6,
  "global": {
    "const": {
      "AcquisitionMatrix": [104, 0, 0, 104],
      "AngioFlag": "N",
      "BitsAllocated": 16,
      "BitsStored": 16,
      "BodyPartExamined": "BRAIN",
      "Columns": 832,
      "EchoNumbers": 1,
      "EchoTime": 37.0,
      "EchoTrainLength": 104,
      "FlipAngle": 52.0,
      "HighBit": 15,
      "ImageOrientationPatient": [0.9998278153246, -0.0121728144742, 0.01400579490825, 0.01640471635698, 0.93260438924052, -0.3605273061095],
      "ImagePositionPatient": [-845.2897618286, -799.29891761771, 259.0020757557],
      "ImageType": [
        "ORIGINAL",
        "PRIMARY",
        "P",
        "MB",
        "ND",
        "MOSAIC"
],
      "ImagedNucleus": "1H",
      "ImagingFrequency": 123.258843,
      "InPlanePhaseEncodingDirection": "COL",
      "LargestImagePixelValue": 4095,
      "MRAcquisitionType": "2D",
      "MagneticFieldStrength": 3.0,
      "Manufacturer": "SIEMENS",
      "ManufacturerModelName": "Prisma_fit",
      "Modality": "MR",
      "NumberOfAverages": 1.0,
      "NumberOfPhaseEncodingSteps": 104,
      "PercentPhaseFieldOfView": 100.0,
      "PercentSampling": 100.0,
      "PerformedProcedureStepStartTime": "181007.929000",
      "PhotometricInterpretation": "MONOCHROME2",
      "PixelBandwidth": 2290.0,
      "PixelRepresentation": 0,
      "PixelSpacing": [2.0, 2.0],
      "ProtocolName": "func_task-mario_run-03",
      "RepetitionTime": 1490.0,
      "RescaleIntercept": -4096.0,
      "RescaleSlope": 2.0,
      "RescaleType": "US",
      "Rows": 832,
      "SAR": 0.06416878086577,
      "SamplesPerPixel": 1,
      "ScanOptions": "FS",
      "ScanningSequence": "EP",
      "SequenceName": "epfid2d1_104",
      "SequenceVariant": [
        "SK",
        "SS"
],
      "SeriesDescription": "func_task-mario_run-03",
      "SeriesNumber": 17,
      "SeriesTime": "184327.842000",
      "SliceLocation": -39.415116705513,
      "SliceThickness": 2.0,
      "SmallestImagePixelValue": 0,
      "SoftwareVersions": "syngo MR E11",
      "SpacingBetweenSlices": 1.9999999488933,
      "SpecificCharacterSet": "ISO_IR 100",
      "StudyID": "1",
      "StudyTime": "181007.872000",
      "TransmitCoilName": "Body",
      "VariableFlipAngleFlag": "N",
      "WindowCenterWidthExplanation": "Algo1",
      "dBdt": 0.0},
    "slices": {}
  },
  "time": {
    "samples": {
      "AcquisitionNumber": [1, 2, 3, 4, 5, 6, 7, 8, 9, 10, 11, 12, 13, 14, 15, 16, 17, 18, 19, 20, 21, 22, 23, 24, 25, 26, 27, 28, 29, 30, 31, 32, 33, 34, 35, 36, 37, 38, 39, 40, 41, 42, 43, 44, 45, 46, 47, 48, 49, 50, 51, 52, 53, 54, 55, 56, 57, 58, 59, 60, 61, 62, 63, 64, 65, 66, 67, 68, 69, 70, 71, 72, 73, 74, 75, 76, 77, 78, 79, 80, 81, 82, 83, 84, 85, 86, 87, 88, 89, 90, 91, 92, 93, 94, 95, 96, 97, 98, 99, 100, 101, 102, 103, 104, 105, 106, 107, 108, 109, 110, 111, 112, 113, 114, 115, 116, 117, 118, 119, 120, 121, 122, 123, 124, 125, 126, 127, 128, 129, 130, 131, 132, 133, 134, 135, 136, 137, 138, 139, 140, 141, 142, 143, 144, 145, 146, 147, 148, 149, 150, 151, 152, 153, 154, 155, 156, 157, 158, 159, 160, 161, 162, 163, 164, 165, 166, 167, 168, 169, 170, 171, 172, 173, 174, 175, 176, 177, 178, 179, 180, 181, 182, 183, 184, 185, 186, 187, 188, 189, 190, 191, 192, 193, 194, 195, 196, 197, 198, 199, 200, 201, 202, 203, 204, 205, 206, 207, 208, 209, 210, 211, 212, 213, 214, 215, 216, 217, 218, 219, 220, 221, 222, 223, 224, 225, 226, 227, 228, 229, 230, 231, 232, 233, 234, 235, 236, 237, 238, 239, 240, 241, 242, 243, 244, 245, 246, 247, 248, 249, 250, 251, 252, 253, 254, 255, 256, 257, 258, 259, 260, 261, 262, 263, 264, 265, 266, 267, 268, 269, 270, 271, 272, 273, 274, 275, 276, 277, 278, 279, 280, 281, 282, 283, 284, 285, 286, 287, 288, 289, 290, 291, 292, 293, 294, 295, 296, 297, 298, 299, 300, 301, 302, 303, 304, 305, 306, 307, 308, 309, 310, 311, 312, 313, 314, 315, 316, 317, 318, 319, 320, 321, 322, 323, 324, 325, 326, 327, 328, 329, 330, 331, 332, 333, 334, 335, 336, 337, 338, 339, 340, 341, 342, 343, 344, 345, 346, 347, 348, 349, 350, 351, 352, 353, 354, 355, 356, 357, 358, 359, 360, 361, 362, 363, 364, 365, 366, 367, 368, 369, 370, 371, 372, 373, 374, 375, 376, 377, 378, 379, 380, 381, 382, 383, 384, 385, 386, 387, 388, 389, 390, 391, 392, 393, 394, 395, 396, 397, 398, 399, 400, 401, 402, 403, 404, 405, 406, 407, 408, 409, 410, 411, 412, 413, 414, 415, 416, 417, 418, 419, 420, 421, 422, 423, 424, 425, 426, 427, 428, 429, 430, 431, 432, 433, 434, 435, 436, 437, 438, 439, 440],
      "AcquisitionTime": ["184208.302500", "184209.792500", "184211.282500", "184212.772500", "184214.262500", "184215.752500", "184217.242500", "184218.732500", "184220.222500", "184221.712500", "184223.202500", "184224.692500", "184226.182500", "184227.672500", "184229.162500", "184230.652500", "184232.142500", "184233.632500", "184235.122500", "184236.612500", "184238.102500", "184239.592500", "184241.082500", "184242.572500", "184244.062500", "184245.552500", "184247.042500", "184248.532500", "184250.022500", "184251.512500", "184253.002500", "184254.492500", "184255.982500", "184257.472500", "184258.962500", "184300.452500", "184301.942500", "184303.432500", "184304.922500", "184306.412500", "184307.902500", "184309.392500", "184310.882500", "184312.372500", "184313.862500", "184315.352500", "184316.842500", "184318.332500", "184319.822500", "184321.312500", "184322.802500", "184324.292500", "184325.782500", "184327.272500", "184328.762500", "184330.252500", "184331.742500", "184333.232500", "184334.722500", "184336.212500", "184337.702500", "184339.192500", "184340.682500", "184342.172500", "184343.662500", "184345.152500", "184346.642500", "184348.132500", "184349.622500", "184351.112500", "184352.602500", "184354.092500", "184355.582500", "184357.072500", "184358.562500", "184400.052500", "184401.542500", "184403.032500", "184404.522500", "184406.012500", "184407.502500", "184408.992500", "184410.482500", "184411.972500", "184413.462500", "184414.952500", "184416.442500", "184417.932500", "184419.422500", "184420.912500", "184422.402500", "184423.892500", "184425.382500", "184426.872500", "184428.362500", "184429.852500", "184431.342500", "184432.832500", "184434.322500", "184435.812500", "184437.302500", "184438.792500", "184440.282500", "184441.772500", "184443.262500", "184444.752500", "184446.242500", "184447.732500", "184449.222500", "184450.712500", "184452.202500", "184453.692500", "184455.182500", "184456.672500", "184458.162500", "184459.652500", "184501.142500", "184502.632500", "184504.122500", "184505.612500", "184507.102500", "184508.592500", "184510.082500", "184511.572500", "184513.062500", "184514.552500", "184516.042500", "184517.532500", "184519.022500", "184520.512500", "184522.002500", "184523.492500", "184524.982500", "184526.472500", "184527.962500", "184529.452500", "184530.942500", "184532.432500", "184533.922500", "184535.412500", "184536.902500", "184538.392500", "184539.882500", "184541.372500", "184542.862500", "184544.352500", "184545.842500", "184547.332500", "184548.822500", "184550.312500", "184551.802500", "184553.292500", "184554.782500", "184556.272500", "184557.762500", "184559.252500", "184600.742500", "184602.232500", "184603.722500", "184605.212500", "184606.702500", "184608.192500", "184609.682500", "184611.172500", "184612.662500", "184614.152500", "184615.642500", "184617.132500", "184618.622500", "184620.112500", "184621.602500", "184623.092500", "184624.582500", "184626.072500", "184627.562500", "184629.052500", "184630.542500", "184632.032500", "184633.522500", "184635.012500", "184636.502500", "184637.992500", "184639.482500", "184640.972500", "184642.462500", "184643.952500", "184645.442500", "184646.932500", "184648.422500", "184649.912500", "184651.402500", "184652.892500", "184654.382500", "184655.872500", "184657.362500", "184658.852500", "184700.342500", "184701.832500", "184703.322500", "184704.812500", "184706.302500", "184707.792500", "184709.282500", "184710.772500", "184712.262500", "184713.752500", "184715.242500", "184716.732500", "184718.222500", "184719.712500", "184721.202500", "184722.692500", "184724.182500", "184725.672500", "184727.162500", "184728.652500", "184730.142500", "184731.632500", "184733.122500", "184734.612500", "184736.102500", "184737.592500", "184739.082500", "184740.572500", "184742.062500", "184743.552500", "184745.042500", "184746.532500", "184748.022500", "184749.512500", "184751.002500", "184752.492500", "184753.982500", "184755.472500", "184756.962500", "184758.452500", "184759.942500", "184801.432500", "184802.922500", "184804.412500", "184805.902500", "184807.392500", "184808.882500", "184810.372500", "184811.862500", "184813.352500", "184814.842500", "184816.332500", "184817.822500", "184819.312500", "184820.802500", "184822.292500", "184823.782500", "184825.272500", "184826.762500", "184828.252500", "184829.742500", "184831.232500", "184832.722500", "184834.212500", "184835.702500", "184837.192500", "184838.682500", "184840.172500", "184841.662500", "184843.152500", "184844.642500", "184846.132500", "184847.622500", "184849.112500", "184850.602500", "184852.092500", "184853.582500", "184855.072500", "184856.562500", "184858.052500", "184859.542500", "184901.032500", "184902.522500", "184904.012500", "184905.502500", "184906.992500", "184908.482500", "184909.972500", "184911.462500", "184912.952500", "184914.442500", "184915.932500", "184917.422500", "184918.912500", "184920.402500", "184921.892500", "184923.382500", "184924.872500", "184926.362500", "184927.852500", "184929.342500", "184930.832500", "184932.322500", "184933.812500", "184935.302500", "184936.792500", "184938.282500", "184939.772500", "184941.262500", "184942.752500", "184944.242500", "184945.732500", "184947.222500", "184948.712500", "184950.202500", "184951.692500", "184953.182500", "184954.672500", "184956.162500", "184957.652500", "184959.142500", "185000.632500", "185002.122500", "185003.612500", "185005.102500", "185006.592500", "185008.082500", "185009.572500", "185011.062500", "185012.552500", "185014.042500", "185015.532500", "185017.022500", "185018.512500", "185020.002500", "185021.492500", "185022.982500", "185024.472500", "185025.962500", "185027.452500", "185028.942500", "185030.432500", "185031.922500", "185033.412500", "185034.902500", "185036.392500", "185037.882500", "185039.372500", "185040.862500", "185042.352500", "185043.842500", "185045.332500", "185046.822500", "185048.312500", "185049.802500", "185051.292500", "185052.782500", "185054.272500", "185055.762500", "185057.252500", "185058.742500", "185100.232500", "185101.722500", "185103.212500", "185104.702500", "185106.192500", "185107.682500", "185109.172500", "185110.662500", "185112.152500", "185113.642500", "185115.132500", "185116.622500", "185118.112500", "185119.602500", "185121.092500", "185122.582500", "185124.072500", "185125.562500", "185127.052500", "185128.542500", "185130.032500", "185131.522500", "185133.012500", "185134.502500", "185135.992500", "185137.482500", "185138.972500", "185140.462500", "185141.952500", "185143.442500", "185144.932500", "185146.422500", "185147.912500", "185149.402500", "185150.892500", "185152.382500", "185153.872500", "185155.362500", "185156.852500", "185158.342500", "185159.832500", "185201.322500", "185202.812500", "185204.302500", "185205.792500", "185207.282500", "185208.772500", "185210.262500", "185211.752500", "185213.242500", "185214.732500", "185216.222500", "185217.712500", "185219.202500", "185220.692500", "185222.182500", "185223.672500", "185225.162500", "185226.652500", "185228.142500", "185229.632500", "185231.122500", "185232.612500", "185234.102500", "185235.592500", "185237.082500", "185238.572500", "185240.062500", "185241.552500", "185243.042500", "185244.532500", "185246.022500", "185247.512500", "185249.002500", "185250.492500", "185251.982500", "185253.472500", "185254.962500", "185256.452500", "185257.942500", "185259.432500", "185300.922500", "185302.412500"],
      "ContentTime": ["184327.844000", "184327.847000", "184327.849000", "184327.852000", "184327.854000", "184327.857000", "184327.859000", "184327.862000", "184327.864000", "184327.866000", "184327.869000", "184327.877000", "184327.880000", "184327.882000", "184327.885000", "184327.887000", "184327.890000", "184327.892000", "184327.894000", "184327.897000", "184327.899000", "184327.902000", "184327.904000", "184327.907000", "184327.909000", "184327.912000", "184347.790000", "184347.793000", "184347.795000", "184347.798000", "184347.800000", "184347.803000", "184347.805000", "184347.807000", "184347.810000", "184347.812000", "184347.815000", "184347.817000", "184347.820000", "184347.822000", "184347.824000", "184347.827000", "184347.829000", "184347.832000", "184347.834000", "184347.837000", "184407.806000", "184407.809000", "184407.811000", "184407.814000", "184407.816000", "184407.818000", "184407.821000", "184407.823000", "184407.826000", "184407.828000", "184407.831000", "184407.833000", "184407.836000", "184407.838000", "184407.840000", "184407.843000", "184407.845000", "184407.848000", "184407.850000", "184407.853000", "184427.789000", "184427.792000", "184427.794000", "184427.797000", "184427.799000", "184427.802000", "184427.804000", "184427.807000", "184427.809000", "184427.826000", "184427.829000", "184427.831000", "184427.834000", "184427.836000", "184427.839000", "184427.841000", "184427.844000", "184427.846000", "184427.848000", "184427.851000", "184427.853000", "184507.832000", "184507.835000", "184507.837000", "184507.840000", "184507.842000", "184507.845000", "184507.847000", "184507.849000", "184507.852000", "184507.854000", "184507.857000", "184507.859000", "184507.862000", "184507.864000", "184507.867000", "184507.869000", "184507.871000", "184507.874000", "184507.876000", "184507.879000", "184507.881000", "184507.884000", "184507.886000", "184507.889000", "184507.891000", "184507.894000", "184507.896000", "184507.899000", "184507.901000", "184507.904000", "184507.906000", "184507.909000", "184507.911000", "184547.810000", "184547.813000", "184547.815000", "184547.818000", "184547.820000", "184547.822000", "184547.825000", "184547.827000", "184547.830000", "184547.832000", "184547.835000", "184547.837000", "184547.840000", "184547.842000", "184547.845000", "184547.847000", "184547.850000", "184547.852000", "184547.855000", "184547.857000", "184547.860000", "184547.862000", "184547.864000", "184547.867000", "184547.869000", "184547.872000", "184547.874000", "184627.816000", "184627.819000", "184627.822000", "184627.824000", "184627.827000", "184627.829000", "184627.832000", "184627.834000", "184627.837000", "184627.839000", "184627.842000", "184627.844000", "184627.847000", "184627.849000", "184627.852000", "184627.854000", "184627.858000", "184627.860000", "184627.863000", "184627.865000", "184627.868000", "184627.870000", "184627.873000", "184627.875000", "184627.878000", "184627.880000", "184707.825000", "184707.828000", "184707.830000", "184707.833000", "184707.835000", "184707.838000", "184707.840000", "184707.843000", "184707.845000", "184707.848000", "184707.850000", "184707.852000", "184707.855000", "184707.857000", "184707.860000", "184707.862000", "184707.865000", "184707.867000", "184707.869000", "184707.872000", "184707.874000", "184707.877000", "184707.879000", "184707.882000", "184707.884000", "184707.887000", "184707.890000", "184747.810000", "184747.812000", "184747.815000", "184747.817000", "184747.820000", "184747.822000", "184747.825000", "184747.827000", "184747.830000", "184747.832000", "184747.835000", "184747.837000", "184747.840000", "184747.842000", "184747.845000", "184747.847000", "184747.849000", "184747.852000", "184747.854000", "184747.857000", "184747.864000", "184747.867000", "184747.869000", "184747.872000", "184747.874000", "184747.877000", "184747.879000", "184807.756000", "184807.759000", "184807.762000", "184807.764000", "184807.767000", "184807.769000", "184807.772000", "184807.774000", "184807.776000", "184807.779000", "184807.781000", "184807.784000", "184807.786000", "184847.810000", "184847.813000", "184847.815000", "184847.818000", "184847.820000", "184847.822000", "184847.825000", "184847.827000", "184847.830000", "184847.832000", "184847.835000", "184847.837000", "184847.840000", "184847.842000", "184847.844000", "184847.847000", "184847.849000", "184847.852000", "184847.854000", "184847.857000", "184847.859000", "184847.861000", "184847.864000", "184847.866000", "184847.869000", "184847.871000", "184847.874000", "184927.836000", "184927.839000", "184927.841000", "184927.844000", "184927.846000", "184927.848000", "184927.851000", "184927.853000", "184927.856000", "184927.858000", "184927.861000", "184927.863000", "184927.866000", "184927.868000", "184927.871000", "184927.873000", "184927.876000", "184927.878000", "184927.881000", "184927.883000", "184927.886000", "184927.888000", "184927.891000", "184927.893000", "184927.896000", "184927.898000", "184927.900000", "185007.827000", "185007.830000", "185007.832000", "185007.835000", "185007.837000", "185007.839000", "185007.842000", "185007.844000", "185007.847000", "185007.849000", "185007.852000", "185007.854000", "185007.857000", "185007.859000", "185007.862000", "185007.864000", "185007.867000", "185007.869000", "185007.872000", "185007.874000", "185007.876000", "185007.879000", "185007.881000", "185007.884000", "185007.886000", "185007.889000", "185007.891000", "185047.812000", "185047.815000", "185047.817000", "185047.820000", "185047.822000", "185047.825000", "185047.827000", "185047.830000", "185047.832000", "185047.835000", "185047.837000", "185047.840000", "185047.842000", "185047.845000", "185047.847000", "185047.850000", "185047.852000", "185047.855000", "185047.857000", "185047.860000", "185047.862000", "185047.864000", "185047.867000", "185047.870000", "185047.872000", "185047.874000", "185047.877000", "185128.163000", "185128.166000", "185128.168000", "185128.171000", "185128.173000", "185128.176000", "185128.178000", "185128.181000", "185128.183000", "185128.186000", "185128.188000", "185128.190000", "185128.193000", "185128.195000", "185128.198000", "185128.200000", "185128.203000", "185128.205000", "185128.208000", "185128.210000", "185128.212000", "185128.215000", "185128.217000", "185128.220000", "185128.222000", "185128.225000", "185128.227000", "185207.806000", "185207.809000", "185207.811000", "185207.814000", "185207.816000", "185207.819000", "185207.821000", "185207.824000", "185207.826000", "185207.829000", "185207.831000", "185207.834000", "185207.836000", "185207.839000", "185207.841000", "185207.844000", "185207.846000", "185207.849000", "185207.851000", "185207.854000", "185207.856000", "185207.859000", "185207.861000", "185207.864000", "185207.866000", "185207.869000", "185207.871000", "185247.803000", "185247.806000", "185247.808000", "185247.811000", "185247.813000", "185247.816000", "185247.818000", "185247.820000", "185247.823000", "185247.825000", "185247.828000", "185247.830000", "185247.833000", "185247.835000", "185247.838000", "185247.840000", "185247.843000", "185247.845000", "185247.847000", "185247.850000", "185247.852000", "185247.855000", "185247.857000", "185247.860000", "185247.862000", "185247.865000", "185304.675000", "185304.677000", "185304.680000", "185304.682000", "185304.685000", "185304.687000", "185304.696000", "185304.699000", "185304.701000", "185304.704000", "185304.706000", "185304.709000"],
