{
  "AcquisitionMatrixPE": 104,
  "AcquisitionNumber": 1,
  "AcquisitionTime": "11:16:10.610000",
  "BandwidthPerPixelPhaseEncode": 17.17,
  "BaseResolution": 104,
  "BodyPartExamined": "BRAIN",
  "CoilCombinationMethod": "Sum of Squares",
  "ConsistencyInfo": "N4_VE11C_LATEST_20160120",
  "ConversionSoftware": "dcm2niix",
  "ConversionSoftwareVersion": "v1.0.20211006",
  "DerivedVendorReportedEchoSpacing": 0.000560011,
  "DeviceSerialNumber": "167006",
  "DwellTime": 2.1e-06,
  "EchoTime": 0.037,
  "EchoTime1": 0.037,
  "EchoTime2": 0.001,
  "EchoTrainLength": 104,
  "EffectiveEchoSpacing": 0.000560011,
  "FlipAngle": 52,
  "HeudiconvVersion": "0.10.0",
  "ImageComments": "Unaliased MB4/PE3/LB",
  "ImageOrientationPatientDICOM": [0.999045, 0.0292497, 0.0324476, -0.0191827, 0.96105, -0.27571],
  "ImageOrientationText": "Tra>Cor(-16.0)>Sag(2.2)",
  "ImageType": [
    "ORIGINAL",
    "PRIMARY",
    "P",
    "MB",
    "ND",
    "MOSAIC",
    "PHASE"
],
  "ImagingFrequency": 123.259,
  "InPlanePhaseEncodingDirectionDICOM": "COL",
  "InstitutionAddress": "Chemin Queen-Mary 4565,Montreal,District,CA,H3W 1W5",
  "InstitutionName": "IUGM",
  "InstitutionalDepartmentName": "Department",
  "MRAcquisitionType": "2D",
  "MagneticFieldStrength": 3,
  "Manufacturer": "Siemens",
  "ManufacturersModelName": "Prisma_fit",
  "MatrixCoilMode": "SENSE",
  "Modality": "MR",
  "MultibandAccelerationFactor": 4,
  "PartialFourier": 1,
  "PatientPosition": "HFS",
  "PercentPhaseFOV": 100,
  "PercentSampling": 100,
  "PhaseEncodingDirection": "j",
  "PhaseEncodingSteps": 104,
  "PhaseResolution": 1,
  "PixelBandwidth": 2290,
  "ProcedureStepDescription": "games^mario",
  "ProtocolName": "func_task-mario_run-02",
  "PulseSequenceDetails": "%CustomerSeq%\\cmrr_mbep2d_bold",
  "ReceiveCoilActiveElements": "HC1-7;NC1,2",
  "ReceiveCoilName": "HeadNeck_64",
  "ReconMatrixPE": 104,
  "RepetitionTime": 1.49,
  "SAR": 0.0446809,
  "ScanOptions": "FS",
  "ScanningSequence": "EP",
  "SequenceName": "epfid2d1_104",
  "SequenceVariant": "SK\\SS",
  "SeriesDescription": "func_task-mario_run-02",
  "SeriesNumber": 14,
  "ShimSetting": [636, -7211, -8761, 701, 25, 14, 50, 8],
  "SliceThickness": 2,
  "SliceTiming": [0, 0.7825, 0.0975, 0.8825, 0.195, 0.98, 0.2925, 1.0775, 0.3925, 1.175, 0.49, 1.2725, 0.5875, 1.3725, 0.685, 0, 0.7825, 0.0975, 0.8825, 0.195, 0.98, 0.2925, 1.0775, 0.3925, 1.175, 0.49, 1.2725, 0.5875, 1.3725, 0.685, 0, 0.7825, 0.0975, 0.8825, 0.195, 0.98, 0.2925, 1.0775, 0.3925, 1.175, 0.49, 1.2725, 0.5875, 1.3725, 0.685, 0, 0.7825, 0.0975, 0.8825, 0.195, 0.98, 0.2925, 1.0775, 0.3925, 1.175, 0.49, 1.2725, 0.5875, 1.3725, 0.685],
  "SoftwareVersions": "syngo MR E11",
  "SpacingBetweenSlices": 2,
  "StationName": "MRC35049",
  "TaskName": "mario",
  "TotalReadoutTime": 0.0576811,
  "TxRefAmp": 221.497,
  "WipMemBlock": "74261441-7a21-4145-b036-c059847550cd||Sequence: R016 ve11c/master r/e634e98; Dec 19 2017 11:00:25 by eja",
  "dcmmeta_affine": [
    [-1.9980907440185547, -0.03836530074477196, 0.07849627733230591, 107.64363098144531],
    [-0.05849945545196533, 1.9220991134643555, -0.5496477484703064, -69.2271499633789],
    [0.06489512324333191, 0.5514190196990967, 1.9213863611221313, -58.78850555419922],
    [0.0, 0.0, 0.0, 1.0]
],
  "dcmmeta_reorient_transform": [
    [0.0, -1.0, 0.0, 103.0],
    [1.0, 0.0, 0.0, 0.0],
    [0.0, 0.0, 1.0, 0.0],
    [0.0, 0.0, 0.0, 1.0]
],
  "dcmmeta_shape": [104, 104, 60, 438],
  "dcmmeta_slice_dim": 2,
  "dcmmeta_version": 0.6,
  "global": {
    "const": {
      "AcquisitionMatrix": [104, 0, 0, 104],
      "AngioFlag": "N",
      "BitsAllocated": 16,
      "BitsStored": 16,
      "BodyPartExamined": "BRAIN",
      "Columns": 832,
      "EchoNumbers": 1,
      "EchoTime": 37.0,
      "EchoTrainLength": 104,
      "FlipAngle": 52.0,
      "HighBit": 15,
      "ImageOrientationPatient": [0.99904534895077, 0.02924972821249, 0.03244755983636, -0.0191826509943, 0.96104957913106, -0.2757095071862],
      "ImagePositionPatient": [-817.03204616624, -849.68695828015, 175.10235236546],
      "ImageType": [
        "ORIGINAL",
        "PRIMARY",
        "P",
        "MB",
        "ND",
        "MOSAIC"
],
      "ImagedNucleus": "1H",
      "ImagingFrequency": 123.258861,
      "InPlanePhaseEncodingDirection": "COL",
      "LargestImagePixelValue": 4095,
      "MRAcquisitionType": "2D",
      "MagneticFieldStrength": 3.0,
      "Manufacturer": "SIEMENS",
      "ManufacturerModelName": "Prisma_fit",
      "Modality": "MR",
      "NumberOfAverages": 1.0,
      "NumberOfPhaseEncodingSteps": 104,
      "PercentPhaseFieldOfView": 100.0,
      "PercentSampling": 100.0,
      "PerformedProcedureStepStartTime": "101003.519000",
      "PhotometricInterpretation": "MONOCHROME2",
      "PixelBandwidth": 2290.0,
      "PixelRepresentation": 0,
      "PixelSpacing": [2.0, 2.0],
      "ProtocolName": "func_task-mario_run-02",
      "RepetitionTime": 1490.0,
      "RescaleIntercept": -4096.0,
      "RescaleSlope": 2.0,
      "RescaleType": "US",
      "Rows": 832,
      "SAR": 0.04468091933858,
      "SamplesPerPixel": 1,
      "ScanOptions": "FS",
      "ScanningSequence": "EP",
      "SequenceName": "epfid2d1_104",
      "SequenceVariant": [
        "SK",
        "SS"
],
      "SeriesDescription": "func_task-mario_run-02",
      "SeriesNumber": 14,
      "SeriesTime": "111743.052000",
      "SliceLocation": -33.22762987947,
      "SliceThickness": 2.0,
      "SmallestImagePixelValue": 0,
      "SoftwareVersions": "syngo MR E11",
      "SpacingBetweenSlices": 1.9999999305873,
      "SpecificCharacterSet": "ISO_IR 100",
      "StudyID": "1",
      "StudyTime": "101003.460000",
      "TransmitCoilName": "Body",
      "VariableFlipAngleFlag": "N",
      "WindowCenterWidthExplanation": "Algo1",
      "dBdt": 0.0},
    "slices": {}
  },
  "time": {
    "samples": {
      "AcquisitionNumber": [1, 2, 3, 4, 5, 6, 7, 8, 9, 10, 11, 12, 13, 14, 15, 16, 17, 18, 19, 20, 21, 22, 23, 24, 25, 26, 27, 28, 29, 30, 31, 32, 33, 34, 35, 36, 37, 38, 39, 40, 41, 42, 43, 44, 45, 46, 47, 48, 49, 50, 51, 52, 53, 54, 55, 56, 57, 58, 59, 60, 61, 62, 63, 64, 65, 66, 67, 68, 69, 70, 71, 72, 73, 74, 75, 76, 77, 78, 79, 80, 81, 82, 83, 84, 85, 86, 87, 88, 89, 90, 91, 92, 93, 94, 95, 96, 97, 98, 99, 100, 101, 102, 103, 104, 105, 106, 107, 108, 109, 110, 111, 112, 113, 114, 115, 116, 117, 118, 119, 120, 121, 122, 123, 124, 125, 126, 127, 128, 129, 130, 131, 132, 133, 134, 135, 136, 137, 138, 139, 140, 141, 142, 143, 144, 145, 146, 147, 148, 149, 150, 151, 152, 153, 154, 155, 156, 157, 158, 159, 160, 161, 162, 163, 164, 165, 166, 167, 168, 169, 170, 171, 172, 173, 174, 175, 176, 177, 178, 179, 180, 181, 182, 183, 184, 185, 186, 187, 188, 189, 190, 191, 192, 193, 194, 195, 196, 197, 198, 199, 200, 201, 202, 203, 204, 205, 206, 207, 208, 209, 210, 211, 212, 213, 214, 215, 216, 217, 218, 219, 220, 221, 222, 223, 224, 225, 226, 227, 228, 229, 230, 231, 232, 233, 234, 235, 236, 237, 238, 239, 240, 241, 242, 243, 244, 245, 246, 247, 248, 249, 250, 251, 252, 253, 254, 255, 256, 257, 258, 259, 260, 261, 262, 263, 264, 265, 266, 267, 268, 269, 270, 271, 272, 273, 274, 275, 276, 277, 278, 279, 280, 281, 282, 283, 284, 285, 286, 287, 288, 289, 290, 291, 292, 293, 294, 295, 296, 297, 298, 299, 300, 301, 302, 303, 304, 305, 306, 307, 308, 309, 310, 311, 312, 313, 314, 315, 316, 317, 318, 319, 320, 321, 322, 323, 324, 325, 326, 327, 328, 329, 330, 331, 332, 333, 334, 335, 336, 337, 338, 339, 340, 341, 342, 343, 344, 345, 346, 347, 348, 349, 350, 351, 352, 353, 354, 355, 356, 357, 358, 359, 360, 361, 362, 363, 364, 365, 366, 367, 368, 369, 370, 371, 372, 373, 374, 375, 376, 377, 378, 379, 380, 381, 382, 383, 384, 385, 386, 387, 388, 389, 390, 391, 392, 393, 394, 395, 396, 397, 398, 399, 400, 401, 402, 403, 404, 405, 406, 407, 408, 409, 410, 411, 412, 413, 414, 415, 416, 417, 418, 419, 420, 421, 422, 423, 424, 425, 426, 427, 428, 429, 430, 431, 432, 433, 434, 435, 436, 437, 438],
      "AcquisitionTime": ["111610.610000", "111612.100000", "111613.590000", "111615.080000", "111616.570000", "111618.060000", "111619.550000", "111621.040000", "111622.530000", "111624.020000", "111625.510000", "111627.000000", "111628.490000", "111629.980000", "111631.470000", "111632.960000", "111634.450000", "111635.940000", "111637.430000", "111638.920000", "111640.410000", "111641.900000", "111643.390000", "111644.880000", "111646.370000", "111647.860000", "111649.350000", "111650.840000", "111652.330000", "111653.820000", "111655.310000", "111656.800000", "111658.290000", "111659.780000", "111701.270000", "111702.760000", "111704.250000", "111705.740000", "111707.230000", "111708.720000", "111710.210000", "111711.700000", "111713.190000", "111714.680000", "111716.170000", "111717.660000", "111719.150000", "111720.640000", "111722.130000", "111723.620000", "111725.110000", "111726.600000", "111728.090000", "111729.580000", "111731.070000", "111732.560000", "111734.050000", "111735.540000", "111737.030000", "111738.520000", "111740.010000", "111741.500000", "111742.990000", "111744.480000", "111745.970000", "111747.460000", "111748.950000", "111750.440000", "111751.930000", "111753.420000", "111754.910000", "111756.400000", "111757.890000", "111759.380000", "111800.870000", "111802.360000", "111803.850000", "111805.340000", "111806.830000", "111808.320000", "111809.810000", "111811.300000", "111812.790000", "111814.280000", "111815.770000", "111817.260000", "111818.750000", "111820.240000", "111821.730000", "111823.220000", "111824.710000", "111826.200000", "111827.690000", "111829.180000", "111830.670000", "111832.160000", "111833.650000", "111835.140000", "111836.630000", "111838.120000", "111839.610000", "111841.100000", "111842.590000", "111844.080000", "111845.570000", "111847.060000", "111848.550000", "111850.040000", "111851.530000", "111853.020000", "111854.510000", "111856.000000", "111857.490000", "111858.980000", "111900.470000", "111901.960000", "111903.450000", "111904.940000", "111906.430000", "111907.920000", "111909.410000", "111910.900000", "111912.390000", "111913.880000", "111915.370000", "111916.860000", "111918.350000", "111919.840000", "111921.330000", "111922.820000", "111924.310000", "111925.800000", "111927.290000", "111928.780000", "111930.270000", "111931.760000", "111933.250000", "111934.740000", "111936.230000", "111937.720000", "111939.210000", "111940.700000", "111942.190000", "111943.680000", "111945.170000", "111946.660000", "111948.150000", "111949.640000", "111951.130000", "111952.620000", "111954.110000", "111955.600000", "111957.090000", "111958.580000", "112000.070000", "112001.560000", "112003.050000", "112004.540000", "112006.030000", "112007.520000", "112009.010000", "112010.500000", "112011.990000", "112013.480000", "112014.970000", "112016.460000", "112017.950000", "112019.440000", "112020.930000", "112022.420000", "112023.910000", "112025.400000", "112026.890000", "112028.380000", "112029.870000", "112031.360000", "112032.850000", "112034.340000", "112035.830000", "112037.320000", "112038.810000", "112040.300000", "112041.790000", "112043.280000", "112044.770000", "112046.260000", "112047.750000", "112049.240000", "112050.730000", "112052.220000", "112053.710000", "112055.200000", "112056.690000", "112058.180000", "112059.670000", "112101.160000", "112102.650000", "112104.140000", "112105.630000", "112107.120000", "112108.610000", "112110.100000", "112111.590000", "112113.080000", "112114.570000", "112116.060000", "112117.550000", "112119.040000", "112120.530000", "112122.020000", "112123.510000", "112125.000000", "112126.490000", "112127.980000", "112129.470000", "112130.960000", "112132.450000", "112133.940000", "112135.430000", "112136.920000", "112138.410000", "112139.900000", "112141.390000", "112142.880000", "112144.370000", "112145.860000", "112147.350000", "112148.840000", "112150.330000", "112151.820000", "112153.310000", "112154.800000", "112156.290000", "112157.780000", "112159.270000", "112200.760000", "112202.250000", "112203.740000", "112205.230000", "112206.720000", "112208.210000", "112209.700000", "112211.190000", "112212.680000", "112214.170000", "112215.660000", "112217.150000", "112218.640000", "112220.130000", "112221.620000", "112223.110000", "112224.600000", "112226.090000", "112227.580000", "112229.070000", "112230.560000", "112232.050000", "112233.540000", "112235.030000", "112236.520000", "112238.010000", "112239.500000", "112240.990000", "112242.480000", "112243.970000", "112245.460000", "112246.950000", "112248.440000", "112249.930000", "112251.420000", "112252.910000", "112254.400000", "112255.890000", "112257.380000", "112258.870000", "112300.360000", "112301.850000", "112303.340000", "112304.830000", "112306.320000", "112307.810000", "112309.300000", "112310.790000", "112312.280000", "112313.770000", "112315.260000", "112316.750000", "112318.240000", "112319.730000", "112321.220000", "112322.710000", "112324.200000", "112325.690000", "112327.180000", "112328.670000", "112330.160000", "112331.650000", "112333.140000", "112334.630000", "112336.120000", "112337.610000", "112339.100000", "112340.590000", "112342.080000", "112343.570000", "112345.060000", "112346.550000", "112348.040000", "112349.530000", "112351.020000", "112352.510000", "112354.000000", "112355.490000", "112356.980000", "112358.470000", "112359.960000", "112401.450000", "112402.940000", "112404.430000", "112405.920000", "112407.410000", "112408.900000", "112410.390000", "112411.880000", "112413.370000", "112414.860000", "112416.350000", "112417.840000", "112419.330000", "112420.820000", "112422.310000", "112423.800000", "112425.290000", "112426.780000", "112428.270000", "112429.760000", "112431.250000", "112432.740000", "112434.230000", "112435.720000", "112437.210000", "112438.700000", "112440.190000", "112441.680000", "112443.170000", "112444.660000", "112446.150000", "112447.640000", "112449.130000", "112450.620000", "112452.110000", "112453.600000", "112455.090000", "112456.580000", "112458.070000", "112459.560000", "112501.050000", "112502.540000", "112504.030000", "112505.520000", "112507.010000", "112508.500000", "112509.990000", "112511.480000", "112512.970000", "112514.460000", "112515.950000", "112517.440000", "112518.930000", "112520.420000", "112521.910000", "112523.400000", "112524.890000", "112526.380000", "112527.870000", "112529.360000", "112530.850000", "112532.340000", "112533.830000", "112535.320000", "112536.810000", "112538.300000", "112539.790000", "112541.280000", "112542.770000", "112544.260000", "112545.750000", "112547.240000", "112548.730000", "112550.220000", "112551.710000", "112553.200000", "112554.690000", "112556.180000", "112557.670000", "112559.160000", "112600.650000", "112602.140000", "112603.630000", "112605.120000", "112606.610000", "112608.100000", "112609.590000", "112611.080000", "112612.570000", "112614.060000", "112615.550000", "112617.040000", "112618.530000", "112620.020000", "112621.510000", "112623.000000", "112624.490000", "112625.980000", "112627.470000", "112628.960000", "112630.450000", "112631.940000", "112633.430000", "112634.920000", "112636.410000", "112637.900000", "112639.390000", "112640.880000", "112642.370000", "112643.860000", "112645.350000", "112646.840000", "112648.330000", "112649.820000", "112651.310000", "112652.800000", "112654.290000", "112655.780000", "112657.270000", "112658.760000", "112700.250000", "112701.740000"],
      "ContentTime": ["111743.054000", "111743.057000", "111743.060000", "111743.062000", "111743.065000", "111743.067000", "111743.070000", "111743.073000", "111743.075000", "111743.081000", "111743.084000", "111743.087000", "111743.089000", "111743.092000", "111743.094000", "111743.097000", "111743.099000", "111743.102000", "111743.105000", "111743.107000", "111743.110000", "111743.112000", "111743.115000", "111743.117000", "111743.120000", "111743.122000", "111743.125000", "111743.128000", "111743.130000", "111743.133000", "111743.135000", "111743.138000", "111743.140000", "111743.143000", "111743.145000", "111743.148000", "111743.150000", "111743.153000", "111743.155000", "111743.158000", "111802.930000", "111802.933000", "111802.936000", "111802.938000", "111802.941000", "111802.943000", "111802.946000", "111802.948000", "111802.951000", "111802.954000", "111802.956000", "111802.959000", "111802.961000", "111802.964000", "111802.966000", "111802.969000", "111802.971000", "111802.974000", "111802.976000", "111802.979000", "111822.934000", "111822.937000", "111822.940000", "111822.942000", "111822.945000", "111822.947000", "111822.950000", "111822.953000", "111822.955000", "111822.958000", "111822.960000", "111822.963000", "111822.966000", "111822.968000", "111822.977000", "111822.980000", "111822.982000", "111822.985000", "111822.987000", "111822.990000", "111842.951000", "111842.953000", "111842.956000", "111842.959000", "111842.961000", "111842.970000", "111842.974000", "111842.977000", "111842.981000", "111842.984000", "111842.987000", "111842.989000", "111842.992000", "111842.995000", "111842.998000", "111843.002000", "111843.004000", "111843.007000", "111843.009000", "111843.012000", "111922.964000", "111922.967000", "111922.970000", "111922.972000", "111922.975000", "111922.978000", "111922.980000", "111922.983000", "111922.985000", "111922.988000", "111922.990000", "111922.993000", "111922.996000", "111922.998000", "111923.002000", "111923.004000", "111923.007000", "111923.010000", "111923.012000", "111923.015000", "111923.017000", "111923.020000", "111923.022000", "111923.025000", "111923.028000", "111923.030000", "111923.040000", "111923.043000", "112002.978000", "112002.981000", "112002.984000", "112002.986000", "112002.989000", "112002.991000", "112002.994000", "112002.997000", "112003.000000", "112003.003000", "112003.005000", "112003.008000", "112003.018000", "112003.021000", "112003.023000", "112003.026000", "112003.028000", "112003.031000", "112003.033000", "112003.036000", "112003.039000", "112003.041000", "112003.044000", "112003.046000", "112003.049000", "112003.052000", "112003.054000", "112042.969000", "112042.971000", "112042.974000", "112042.977000", "112042.979000", "112042.982000", "112042.984000", "112042.987000", "112042.990000", "112042.992000", "112042.995000", "112042.997000", "112043.001000", "112043.003000", "112043.006000", "112043.008000", "112043.011000", "112043.014000", "112043.016000", "112043.019000", "112043.045000", "112043.048000", "112043.051000", "112043.053000", "112043.056000", "112043.058000", "112043.061000", "112122.976000", "112122.979000", "112122.982000", "112122.984000", "112122.987000", "112122.989000", "112122.992000", "112122.995000", "112122.997000", "112123.000000", "112123.002000", "112123.005000", "112123.008000", "112123.010000", "112123.013000", "112123.015000", "112123.018000", "112123.021000", "112123.023000", "112123.026000", "112123.028000", "112123.031000", "112123.033000", "112123.036000", "112123.038000", "112123.041000", "112123.044000", "112202.968000", "112202.971000", "112202.973000", "112202.976000", "112202.978000", "112202.981000", "112202.984000", "112202.986000", "112202.989000", "112202.991000", "112202.995000", "112202.998000", "112203.017000", "112203.020000", "112203.023000", "112203.026000", "112203.028000", "112203.031000", "112203.034000", "112203.036000", "112203.039000", "112203.041000", "112203.044000", "112203.047000", "112203.049000", "112203.052000", "112242.964000", "112242.967000", "112242.969000", "112242.972000", "112242.974000", "112242.977000", "112242.980000", "112242.982000", "112242.985000", "112242.987000", "112242.990000", "112242.992000", "112242.995000", "112242.997000", "112243.004000", "112243.007000", "112243.010000", "112243.012000", "112243.015000", "112243.017000", "112243.020000", "112243.022000", "112243.025000", "112243.028000", "112243.030000", "112243.033000", "112243.035000", "112322.989000", "112322.992000", "112322.994000", "112322.997000", "112323.001000", "112323.003000", "112323.006000", "112323.009000", "112323.011000", "112323.014000", "112323.016000", "112323.019000", "112323.022000", "112323.024000", "112323.027000", "112323.029000", "112323.032000", "112323.034000", "112323.037000", "112323.040000", "112323.042000", "112323.045000", "112323.047000", "112323.050000", "112323.052000", "112323.055000", "112323.057000", "112402.980000", "112402.983000", "112402.985000", "112402.988000", "112402.990000", "112402.993000", "112402.995000", "112402.998000", "112403.002000", "112403.004000", "112403.007000", "112403.009000", "112403.012000", "112403.015000", "112403.017000", "112403.020000", "112403.022000", "112403.025000", "112403.027000", "112403.030000", "112403.033000", "112403.035000", "112403.038000", "112403.040000", "112403.043000", "112403.046000", "112403.048000", "112442.977000", "112442.980000", "112442.983000", "112442.985000", "112442.988000", "112442.990000", "112442.993000", "112442.995000", "112442.998000", "112443.002000", "112443.015000", "112443.017000", "112443.020000", "112443.022000", "112443.025000", "112443.028000", "112443.030000", "112443.033000", "112443.035000", "112443.038000", "112443.040000", "112443.043000", "112443.046000", "112443.048000", "112443.051000", "112443.053000", "112443.056000", "112522.974000", "112522.977000", "112522.979000", "112522.982000", "112522.985000", "112522.987000", "112522.990000", "112522.992000", "112522.995000", "112522.997000", "112523.001000", "112523.004000", "112523.006000", "112523.009000", "112523.011000", "112523.014000", "112523.016000", "112523.019000", "112523.022000", "112523.024000", "112523.027000", "112523.029000", "112523.032000", "112523.034000", "112523.037000", "112523.040000", "112523.042000", "112602.993000", "112602.996000", "112603.000000", "112603.002000", "112603.005000", "112603.007000", "112603.010000", "112603.013000", "112603.015000", "112603.018000", "112603.020000", "112603.023000", "112603.025000", "112603.028000", "112603.031000", "112603.033000", "112603.036000", "112603.038000", "112603.041000", "112603.043000", "112603.046000", "112603.049000", "112603.051000", "112603.054000", "112603.056000", "112603.059000", "112642.980000", "112642.982000", "112642.986000", "112642.989000", "112642.992000", "112642.994000", "112642.997000", "112643.000000", "112643.003000", "112643.005000", "112643.008000", "112643.010000", "112643.013000", "112643.015000", "112643.018000", "112643.020000", "112643.023000", "112643.026000", "112643.028000", "112643.031000", "112643.033000", "112643.036000", "112643.038000", "112643.041000", "112643.044000", "112643.046000", "112643.058000", "112704.234000", "112704.237000", "112704.239000", "112704.242000", "112704.244000", "112704.247000", "112704.249000", "112704.252000", "112704.255000", "112704.257000", "112704.260000", "112704.262000", "112704.265000", "112704.268000", "112704.270000"],
