{
  "AcquisitionMatrixPE": 104,
  "AcquisitionNumber": 1,
  "AcquisitionTime": "11:01:46.272500",
  "BandwidthPerPixelPhaseEncode": 17.17,
  "BaseResolution": 104,
  "BodyPartExamined": "BRAIN",
  "CoilCombinationMethod": "Sum of Squares",
  "ConsistencyInfo": "N4_VE11C_LATEST_20160120",
  "ConversionSoftware": "dcm2niix",
  "ConversionSoftwareVersion": "v1.0.20211006",
  "DerivedVendorReportedEchoSpacing": 0.000560011,
  "DeviceSerialNumber": "167006",
  "DwellTime": 2.1e-06,
  "EchoTime": 0.037,
  "EchoTrainLength": 104,
  "EffectiveEchoSpacing": 0.000560011,
  "FlipAngle": 52,
  "HeudiconvVersion": "0.10.0",
  "ImageComments": "Unaliased MB4/PE3/LB",
  "ImageOrientationPatientDICOM": [0.999045, 0.0292497, 0.0324476, -0.0191827, 0.96105, -0.27571],
  "ImageOrientationText": "Tra>Cor(-16.0)>Sag(2.2)",
  "ImageType": [
    "ORIGINAL",
    "PRIMARY",
    "M",
    "MB",
    "ND",
    "MOSAIC"
],
  "ImagingFrequency": 123.259,
  "InPlanePhaseEncodingDirectionDICOM": "COL",
  "InstitutionAddress": "Chemin Queen-Mary 4565,Montreal,District,CA,H3W 1W5",
  "InstitutionName": "IUGM",
  "InstitutionalDepartmentName": "Department",
  "MRAcquisitionType": "2D",
  "MagneticFieldStrength": 3,
  "Manufacturer": "Siemens",
  "ManufacturersModelName": "Prisma_fit",
  "MatrixCoilMode": "SENSE",
  "Modality": "MR",
  "MultibandAccelerationFactor": 4,
  "PartialFourier": 1,
  "PatientPosition": "HFS",
  "PercentPhaseFOV": 100,
  "PercentSampling": 100,
  "PhaseEncodingDirection": "j",
  "PhaseEncodingSteps": 104,
  "PhaseResolution": 1,
  "PixelBandwidth": 2290,
  "ProcedureStepDescription": "games^mario",
  "ProtocolName": "func_task-mario_run-01",
  "PulseSequenceDetails": "%CustomerSeq%\\cmrr_mbep2d_bold",
  "ReceiveCoilActiveElements": "HC1-7;NC1,2",
  "ReceiveCoilName": "HeadNeck_64",
  "ReconMatrixPE": 104,
  "RepetitionTime": 1.49,
  "SAR": 0.0446809,
  "ScanOptions": "FS",
  "ScanningSequence": "EP",
  "SequenceName": "epfid2d1_104",
  "SequenceVariant": "SK\\SS",
  "SeriesDescription": "func_task-mario_run-01",
  "SeriesNumber": 10,
  "ShimSetting": [636, -7211, -8761, 701, 25, 14, 50, 8],
  "SliceThickness": 2,
  "SliceTiming": [0, 0.785, 0.1, 0.8825, 0.1975, 0.98, 0.295, 1.08, 0.3925, 1.1775, 0.49, 1.275, 0.59, 1.3725, 0.6875, 0, 0.785, 0.1, 0.8825, 0.1975, 0.98, 0.295, 1.08, 0.3925, 1.1775, 0.49, 1.275, 0.59, 1.3725, 0.6875, 0, 0.785, 0.1, 0.8825, 0.1975, 0.98, 0.295, 1.08, 0.3925, 1.1775, 0.49, 1.275, 0.59, 1.3725, 0.6875, 0, 0.785, 0.1, 0.8825, 0.1975, 0.98, 0.295, 1.08, 0.3925, 1.1775, 0.49, 1.275, 0.59, 1.3725, 0.6875],
  "SoftwareVersions": "syngo MR E11",
  "SpacingBetweenSlices": 2,
  "StationName": "MRC35049",
  "TaskName": "mario",
  "TotalReadoutTime": 0.0576811,
  "TxRefAmp": 221.497,
  "WipMemBlock": "5b654871-3a81-4df1-98b7-c21b48f61409||Sequence: R016 ve11c/master r/e634e98; Dec 19 2017 11:00:25 by eja",
  "dcmmeta_affine": [
    [-1.9980907440185547, -0.03836530074477196, 0.07849627733230591, 107.64363098144531],
    [-0.05849945545196533, 1.9220991134643555, -0.5496477484703064, -69.2271499633789],
    [0.06489512324333191, 0.5514190196990967, 1.9213863611221313, -58.78850555419922],
    [0.0, 0.0, 0.0, 1.0]
],
  "dcmmeta_reorient_transform": [
    [0.0, -1.0, 0.0, 103.0],
    [1.0, 0.0, 0.0, 0.0],
    [0.0, 0.0, 1.0, 0.0],
    [0.0, 0.0, 0.0, 1.0]
],
  "dcmmeta_shape": [104, 104, 60, 447],
  "dcmmeta_slice_dim": 2,
  "dcmmeta_version": 0.6,
  "global": {
    "const": {
      "AcquisitionMatrix": [104, 0, 0, 104],
      "AngioFlag": "N",
      "BitsAllocated": 16,
      "BitsStored": 16,
      "BodyPartExamined": "BRAIN",
      "Columns": 832,
      "EchoNumbers": 1,
      "EchoTime": 37.0,
      "EchoTrainLength": 104,
      "FlipAngle": 52.0,
      "HighBit": 15,
      "ImageOrientationPatient": [0.99904534895077, 0.02924972821249, 0.03244755983636, -0.0191826509943, 0.96104957913106, -0.2757095071862],
      "ImagePositionPatient": [-817.03204616624, -849.68695828015, 175.10235236546],
      "ImageType": [
        "ORIGINAL",
        "PRIMARY",
        "M",
        "MB",
        "ND",
        "MOSAIC"
],
      "ImagedNucleus": "1H",
      "ImagingFrequency": 123.25885,
      "InPlanePhaseEncodingDirection": "COL",
      "MRAcquisitionType": "2D",
      "MagneticFieldStrength": 3.0,
      "Manufacturer": "SIEMENS",
      "ManufacturerModelName": "Prisma_fit",
      "Modality": "MR",
      "NumberOfAverages": 1.0,
      "NumberOfPhaseEncodingSteps": 104,
      "PercentPhaseFieldOfView": 100.0,
      "PercentSampling": 100.0,
      "PerformedProcedureStepStartTime": "101003.519000",
      "PhotometricInterpretation": "MONOCHROME2",
      "PixelBandwidth": 2290.0,
      "PixelRepresentation": 0,
      "PixelSpacing": [2.0, 2.0],
      "ProtocolName": "func_task-mario_run-01",
      "RepetitionTime": 1490.0,
      "Rows": 832,
      "SAR": 0.04468091933858,
      "SamplesPerPixel": 1,
      "ScanOptions": "FS",
      "ScanningSequence": "EP",
      "SequenceName": "epfid2d1_104",
      "SequenceVariant": [
        "SK",
        "SS"
],
      "SeriesDescription": "func_task-mario_run-01",
      "SeriesNumber": 10,
      "SeriesTime": "110301.832000",
      "SliceLocation": -33.22762987947,
      "SliceThickness": 2.0,
      "SmallestImagePixelValue": 0,
      "SoftwareVersions": "syngo MR E11",
      "SpacingBetweenSlices": 1.9999999305873,
      "SpecificCharacterSet": "ISO_IR 100",
      "StudyID": "1",
      "StudyTime": "101003.460000",
      "TransmitCoilName": "Body",
      "VariableFlipAngleFlag": "N",
      "WindowCenterWidthExplanation": "Algo1",
      "dBdt": 0.0},
    "slices": {}
  },
  "time": {
    "samples": {
      "AcquisitionNumber": [1, 2, 3, 4, 5, 6, 7, 8, 9, 10, 11, 12, 13, 14, 15, 16, 17, 18, 19, 20, 21, 22, 23, 24, 25, 26, 27, 28, 29, 30, 31, 32, 33, 34, 35, 36, 37, 38, 39, 40, 41, 42, 43, 44, 45, 46, 47, 48, 49, 50, 51, 52, 53, 54, 55, 56, 57, 58, 59, 60, 61, 62, 63, 64, 65, 66, 67, 68, 69, 70, 71, 72, 73, 74, 75, 76, 77, 78, 79, 80, 81, 82, 83, 84, 85, 86, 87, 88, 89, 90, 91, 92, 93, 94, 95, 96, 97, 98, 99, 100, 101, 102, 103, 104, 105, 106, 107, 108, 109, 110, 111, 112, 113, 114, 115, 116, 117, 118, 119, 120, 121, 122, 123, 124, 125, 126, 127, 128, 129, 130, 131, 132, 133, 134, 135, 136, 137, 138, 139, 140, 141, 142, 143, 144, 145, 146, 147, 148, 149, 150, 151, 152, 153, 154, 155, 156, 157, 158, 159, 160, 161, 162, 163, 164, 165, 166, 167, 168, 169, 170, 171, 172, 173, 174, 175, 176, 177, 178, 179, 180, 181, 182, 183, 184, 185, 186, 187, 188, 189, 190, 191, 192, 193, 194, 195, 196, 197, 198, 199, 200, 201, 202, 203, 204, 205, 206, 207, 208, 209, 210, 211, 212, 213, 214, 215, 216, 217, 218, 219, 220, 221, 222, 223, 224, 225, 226, 227, 228, 229, 230, 231, 232, 233, 234, 235, 236, 237, 238, 239, 240, 241, 242, 243, 244, 245, 246, 247, 248, 249, 250, 251, 252, 253, 254, 255, 256, 257, 258, 259, 260, 261, 262, 263, 264, 265, 266, 267, 268, 269, 270, 271, 272, 273, 274, 275, 276, 277, 278, 279, 280, 281, 282, 283, 284, 285, 286, 287, 288, 289, 290, 291, 292, 293, 294, 295, 296, 297, 298, 299, 300, 301, 302, 303, 304, 305, 306, 307, 308, 309, 310, 311, 312, 313, 314, 315, 316, 317, 318, 319, 320, 321, 322, 323, 324, 325, 326, 327, 328, 329, 330, 331, 332, 333, 334, 335, 336, 337, 338, 339, 340, 341, 342, 343, 344, 345, 346, 347, 348, 349, 350, 351, 352, 353, 354, 355, 356, 357, 358, 359, 360, 361, 362, 363, 364, 365, 366, 367, 368, 369, 370, 371, 372, 373, 374, 375, 376, 377, 378, 379, 380, 381, 382, 383, 384, 385, 386, 387, 388, 389, 390, 391, 392, 393, 394, 395, 396, 397, 398, 399, 400, 401, 402, 403, 404, 405, 406, 407, 408, 409, 410, 411, 412, 413, 414, 415, 416, 417, 418, 419, 420, 421, 422, 423, 424, 425, 426, 427, 428, 429, 430, 431, 432, 433, 434, 435, 436, 437, 438, 439, 440, 441, 442, 443, 444, 445, 446, 447],
      "AcquisitionTime": ["110146.272500", "110147.762500", "110149.252500", "110150.742500", "110152.232500", "110153.722500", "110155.212500", "110156.702500", "110158.192500", "110159.682500", "110201.172500", "110202.662500", "110204.152500", "110205.642500", "110207.132500", "110208.622500", "110210.112500", "110211.602500", "110213.092500", "110214.582500", "110216.072500", "110217.562500", "110219.052500", "110220.542500", "110222.032500", "110223.522500", "110225.012500", "110226.502500", "110227.992500", "110229.482500", "110230.972500", "110232.462500", "110233.952500", "110235.442500", "110236.932500", "110238.422500", "110239.912500", "110241.402500", "110242.892500", "110244.382500", "110245.872500", "110247.362500", "110248.852500", "110250.342500", "110251.832500", "110253.322500", "110254.812500", "110256.302500", "110257.792500", "110259.282500", "110300.772500", "110302.262500", "110303.752500", "110305.242500", "110306.732500", "110308.222500", "110309.712500", "110311.202500", "110312.692500", "110314.182500", "110315.672500", "110317.162500", "110318.652500", "110320.142500", "110321.632500", "110323.122500", "110324.612500", "110326.102500", "110327.592500", "110329.082500", "110330.572500", "110332.062500", "110333.552500", "110335.042500", "110336.532500", "110338.022500", "110339.512500", "110341.002500", "110342.492500", "110343.982500", "110345.472500", "110346.962500", "110348.452500", "110349.942500", "110351.432500", "110352.922500", "110354.412500", "110355.902500", "110357.392500", "110358.882500", "110400.372500", "110401.862500", "110403.352500", "110404.842500", "110406.332500", "110407.822500", "110409.312500", "110410.802500", "110412.292500", "110413.782500", "110415.272500", "110416.762500", "110418.252500", "110419.742500", "110421.232500", "110422.722500", "110424.212500", "110425.702500", "110427.192500", "110428.682500", "110430.172500", "110431.662500", "110433.152500", "110434.642500", "110436.132500", "110437.622500", "110439.112500", "110440.602500", "110442.092500", "110443.582500", "110445.072500", "110446.562500", "110448.052500", "110449.542500", "110451.032500", "110452.522500", "110454.012500", "110455.502500", "110456.992500", "110458.482500", "110459.972500", "110501.462500", "110502.952500", "110504.442500", "110505.932500", "110507.422500", "110508.912500", "110510.402500", "110511.892500", "110513.382500", "110514.872500", "110516.362500", "110517.852500", "110519.342500", "110520.832500", "110522.322500", "110523.812500", "110525.302500", "110526.792500", "110528.282500", "110529.772500", "110531.262500", "110532.752500", "110534.242500", "110535.732500", "110537.222500", "110538.712500", "110540.202500", "110541.692500", "110543.182500", "110544.672500", "110546.162500", "110547.652500", "110549.142500", "110550.632500", "110552.122500", "110553.612500", "110555.102500", "110556.592500", "110558.082500", "110559.572500", "110601.062500", "110602.552500", "110604.042500", "110605.532500", "110607.022500", "110608.512500", "110610.002500", "110611.492500", "110612.982500", "110614.472500", "110615.962500", "110617.452500", "110618.942500", "110620.432500", "110621.922500", "110623.412500", "110624.902500", "110626.392500", "110627.882500", "110629.372500", "110630.862500", "110632.352500", "110633.842500", "110635.332500", "110636.822500", "110638.312500", "110639.802500", "110641.292500", "110642.782500", "110644.272500", "110645.762500", "110647.252500", "110648.742500", "110650.232500", "110651.722500", "110653.212500", "110654.702500", "110656.192500", "110657.682500", "110659.172500", "110700.662500", "110702.152500", "110703.642500", "110705.132500", "110706.622500", "110708.112500", "110709.602500", "110711.092500", "110712.582500", "110714.072500", "110715.562500", "110717.052500", "110718.542500", "110720.032500", "110721.522500", "110723.012500", "110724.502500", "110725.992500", "110727.482500", "110728.972500", "110730.462500", "110731.952500", "110733.442500", "110734.932500", "110736.422500", "110737.912500", "110739.402500", "110740.892500", "110742.382500", "110743.872500", "110745.362500", "110746.852500", "110748.342500", "110749.832500", "110751.322500", "110752.812500", "110754.302500", "110755.792500", "110757.282500", "110758.772500", "110800.262500", "110801.752500", "110803.242500", "110804.732500", "110806.222500", "110807.712500", "110809.202500", "110810.692500", "110812.182500", "110813.672500", "110815.162500", "110816.652500", "110818.142500", "110819.632500", "110821.122500", "110822.612500", "110824.102500", "110825.592500", "110827.082500", "110828.572500", "110830.062500", "110831.552500", "110833.042500", "110834.532500", "110836.022500", "110837.512500", "110839.002500", "110840.492500", "110841.982500", "110843.472500", "110844.962500", "110846.452500", "110847.942500", "110849.432500", "110850.922500", "110852.412500", "110853.902500", "110855.392500", "110856.882500", "110858.372500", "110859.862500", "110901.352500", "110902.842500", "110904.332500", "110905.822500", "110907.312500", "110908.802500", "110910.292500", "110911.782500", "110913.272500", "110914.762500", "110916.252500", "110917.742500", "110919.232500", "110920.722500", "110922.212500", "110923.702500", "110925.192500", "110926.682500", "110928.172500", "110929.662500", "110931.152500", "110932.642500", "110934.132500", "110935.622500", "110937.112500", "110938.602500", "110940.092500", "110941.582500", "110943.072500", "110944.562500", "110946.052500", "110947.542500", "110949.032500", "110950.522500", "110952.012500", "110953.502500", "110954.992500", "110956.482500", "110957.972500", "110959.462500", "111000.952500", "111002.442500", "111003.932500", "111005.422500", "111006.912500", "111008.402500", "111009.892500", "111011.382500", "111012.872500", "111014.362500", "111015.852500", "111017.342500", "111018.832500", "111020.322500", "111021.812500", "111023.302500", "111024.792500", "111026.282500", "111027.772500", "111029.262500", "111030.752500", "111032.242500", "111033.732500", "111035.222500", "111036.712500", "111038.202500", "111039.692500", "111041.182500", "111042.672500", "111044.162500", "111045.652500", "111047.142500", "111048.632500", "111050.122500", "111051.612500", "111053.102500", "111054.592500", "111056.082500", "111057.572500", "111059.062500", "111100.552500", "111102.042500", "111103.532500", "111105.022500", "111106.512500", "111108.002500", "111109.492500", "111110.982500", "111112.472500", "111113.962500", "111115.452500", "111116.942500", "111118.432500", "111119.922500", "111121.412500", "111122.902500", "111124.392500", "111125.882500", "111127.372500", "111128.862500", "111130.352500", "111131.842500", "111133.332500", "111134.822500", "111136.312500", "111137.802500", "111139.292500", "111140.782500", "111142.272500", "111143.762500", "111145.252500", "111146.742500", "111148.232500", "111149.722500", "111151.212500", "111152.702500", "111154.192500", "111155.682500", "111157.172500", "111158.662500", "111200.152500", "111201.642500", "111203.132500", "111204.622500", "111206.112500", "111207.602500", "111209.092500", "111210.582500", "111212.072500", "111213.562500", "111215.052500", "111216.542500", "111218.032500", "111219.522500", "111221.012500", "111222.502500", "111223.992500", "111225.482500", "111226.972500", "111228.462500", "111229.952500", "111231.442500", "111232.932500", "111234.422500", "111235.912500", "111237.402500", "111238.892500", "111240.382500", "111241.872500", "111243.362500", "111244.852500", "111246.342500", "111247.832500", "111249.322500", "111250.812500"],
      "ContentTime": ["110301.836000", "110301.847000", "110301.851000", "110301.854000", "110301.857000", "110301.861000", "110301.871000", "110301.875000", "110301.878000", "110301.881000", "110301.885000", "110301.888000", "110301.891000", "110301.895000", "110301.898000", "110301.902000", "110301.905000", "110301.909000", "110301.912000", "110301.915000", "110301.919000", "110321.804000", "110321.808000", "110321.811000", "110321.814000", "110321.818000", "110321.821000", "110321.824000", "110321.828000", "110321.831000", "110321.834000", "110321.838000", "110321.841000", "110321.845000", "110321.848000", "110321.851000", "110321.855000", "110321.858000", "110321.861000", "110321.865000", "110321.868000", "110341.803000", "110341.807000", "110341.810000", "110341.814000", "110341.817000", "110341.821000", "110341.824000", "110341.827000", "110341.831000", "110341.834000", "110341.837000", "110341.841000", "110341.844000", "110341.848000", "110341.851000", "110341.855000", "110341.858000", "110341.861000", "110341.865000", "110341.868000", "110401.803000", "110401.807000", "110401.810000", "110401.814000", "110401.817000", "110401.821000", "110401.824000", "110401.828000", "110401.831000", "110401.835000", "110401.856000", "110401.859000", "110401.863000", "110401.866000", "110401.870000", "110401.882000", "110401.885000", "110401.889000", "110401.894000", "110401.898000", "110421.803000", "110421.807000", "110421.810000", "110421.814000", "110421.817000", "110421.821000", "110421.824000", "110421.828000", "110421.831000", "110421.834000", "110421.838000", "110421.841000", "110421.845000", "110421.848000", "110421.852000", "110421.855000", "110421.858000", "110421.862000", "110421.865000", "110421.869000", "110421.872000", "110501.803000", "110501.807000", "110501.811000", "110501.814000", "110501.817000", "110501.821000", "110501.824000", "110501.828000", "110501.831000", "110501.835000", "110501.838000", "110501.841000", "110501.845000", "110501.848000", "110501.852000", "110501.855000", "110501.859000", "110501.862000", "110501.866000", "110501.869000", "110501.872000", "110501.876000", "110501.879000", "110501.883000", "110501.889000", "110501.892000", "110501.896000", "110501.899000", "110501.902000", "110541.803000", "110541.808000", "110541.811000", "110541.814000", "110541.818000", "110541.821000", "110541.830000", "110541.833000", "110541.837000", "110541.840000", "110541.843000", "110541.847000", "110541.850000", "110541.853000", "110541.857000", "110541.862000", "110541.865000", "110541.869000", "110541.873000", "110541.877000", "110541.880000", "110541.884000", "110541.887000", "110541.890000", "110541.894000", "110541.897000", "110621.803000", "110621.807000", "110621.810000", "110621.814000", "110621.817000", "110621.821000", "110621.824000", "110621.828000", "110621.831000", "110621.834000", "110621.838000", "110621.841000", "110621.854000", "110621.857000", "110621.860000", "110621.864000", "110621.867000", "110621.871000", "110621.874000", "110621.886000", "110621.889000", "110621.892000", "110621.896000", "110621.899000", "110621.903000", "110621.906000", "110621.909000", "110701.803000", "110701.961000", "110701.965000", "110701.968000", "110701.971000", "110701.975000", "110701.978000", "110701.982000", "110701.985000", "110701.988000", "110701.992000", "110701.995000", "110702.000000", "110702.003000", "110702.007000", "110702.010000", "110702.013000", "110702.017000", "110702.020000", "110702.024000", "110702.027000", "110702.031000", "110702.034000", "110702.037000", "110702.041000", "110702.044000", "110702.048000", "110741.803000", "110741.883000", "110741.887000", "110741.890000", "110741.894000", "110741.897000", "110741.900000", "110741.904000", "110741.907000", "110741.910000", "110741.914000", "110741.917000", "110741.921000", "110741.924000", "110741.928000", "110741.931000", "110741.934000", "110741.938000", "110741.941000", "110741.945000", "110741.948000", "110741.951000", "110741.955000", "110741.958000", "110741.962000", "110741.965000", "110741.968000", "110821.804000", "110821.807000", "110821.811000", "110821.814000", "110821.818000", "110821.821000", "110821.824000", "110821.828000", "110821.831000", "110821.835000", "110821.838000", "110821.841000", "110821.845000", "110821.853000", "110821.856000", "110821.860000", "110821.863000", "110821.867000", "110821.870000", "110821.873000", "110821.877000", "110821.880000", "110821.884000", "110821.887000", "110821.891000", "110821.894000", "110821.898000", "110901.803000", "110901.807000", "110901.811000", "110901.814000", "110901.817000", "110901.821000", "110901.824000", "110901.828000", "110901.831000", "110901.834000", "110901.838000", "110901.841000", "110901.845000", "110901.848000", "110901.852000", "110901.855000", "110901.858000", "110901.862000", "110901.865000", "110901.869000", "110901.872000", "110901.875000", "110901.879000", "110901.882000", "110901.886000", "110901.889000", "110901.892000", "110941.803000", "110941.807000", "110941.811000", "110941.814000", "110941.817000", "110941.821000", "110941.824000", "110941.828000", "110941.831000", "110941.835000", "110941.838000", "110941.841000", "110941.845000", "110941.848000", "110941.852000", "110941.855000", "110941.859000", "110941.862000", "110941.866000", "110941.869000", "110941.873000", "110941.876000", "110941.880000", "110941.884000", "110941.888000", "110941.891000", "111021.803000", "111021.807000", "111021.810000", "111021.814000", "111021.817000", "111021.821000", "111021.824000", "111021.828000", "111021.831000", "111021.835000", "111021.838000", "111021.841000", "111021.845000", "111021.848000", "111021.851000", "111021.855000", "111021.858000", "111021.862000", "111021.865000", "111021.868000", "111021.872000", "111021.875000", "111021.879000", "111021.882000", "111021.885000", "111021.889000", "111021.892000", "111101.803000", "111101.807000", "111101.811000", "111101.814000", "111101.817000", "111101.821000", "111101.837000", "111101.841000", "111101.844000", "111101.847000", "111101.851000", "111101.854000", "111101.858000", "111101.861000", "111101.865000", "111101.868000", "111101.871000", "111101.875000", "111101.878000", "111101.882000", "111101.885000", "111101.889000", "111101.892000", "111101.895000", "111101.899000", "111101.902000", "111101.905000", "111141.803000", "111141.808000", "111141.812000", "111141.815000", "111141.819000", "111141.822000", "111141.826000", "111141.829000", "111141.833000", "111141.836000", "111141.839000", "111141.843000", "111141.846000", "111141.850000", "111141.853000", "111141.856000", "111141.860000", "111141.863000", "111141.867000", "111141.870000", "111141.873000", "111141.877000", "111141.880000", "111141.884000", "111141.887000", "111141.890000", "111141.894000", "111221.803000", "111221.807000", "111221.811000", "111221.814000", "111221.818000", "111221.821000", "111221.825000", "111221.834000", "111221.837000", "111221.841000", "111221.844000", "111221.848000", "111221.851000", "111221.854000", "111221.858000", "111221.861000", "111221.865000", "111221.868000", "111221.871000", "111221.875000", "111221.878000", "111221.882000", "111221.885000", "111221.888000", "111221.892000", "111221.895000", "111221.899000", "111253.510000", "111253.514000", "111253.517000", "111253.521000", "111253.524000", "111253.528000", "111253.531000", "111253.534000", "111253.538000", "111253.541000", "111253.545000", "111253.548000", "111253.552000", "111253.564000", "111253.567000", "111253.571000", "111253.574000", "111253.586000", "111253.589000", "111253.593000", "111253.598000"],
