{
  "AcquisitionMatrixPE": 104,
  "AcquisitionNumber": 1,
  "AcquisitionTime": "16:27:33.757500",
  "BandwidthPerPixelPhaseEncode": 17.17,
  "BaseResolution": 104,
  "BodyPartExamined": "BRAIN",
  "CoilString": "HC1-7;NC1_2",
  "ConsistencyInfo": "N4_VE11C_LATEST_20160120",
  "ConversionSoftware": "dcm2niix",
  "ConversionSoftwareVersion": "v1.0.20190902",
  "DerivedVendorReportedEchoSpacing": 0.000560011,
  "DeviceSerialNumber": "167006",
  "DwellTime": 2.1e-06,
  "EchoTime": 0.037,
  "EchoTrainLength": 104,
  "EffectiveEchoSpacing": 0.000560011,
  "FlipAngle": 52,
  "HeudiconvVersion": "0.10.0",
  "ImageComments": "Unaliased_MB4_PE3_LB",
  "ImageOrientationPatientDICOM": [0.999747, -0.0223795, 0.0020809, 0.0218146, 0.94386, -0.329625],
  "ImageType": [
    "ORIGINAL",
    "PRIMARY",
    "M",
    "MB",
    "ND",
    "MOSAIC"
],
  "ImagingFrequency": 123.259,
  "InPlanePhaseEncodingDirectionDICOM": "COL",
  "InstitutionAddress": "Chemin_Queen-Mary_4565_Montreal_District_CA_H3W_1W5",
  "InstitutionName": "IUGM",
  "InstitutionalDepartmentName": "Department",
  "MRAcquisitionType": "2D",
  "MagneticFieldStrength": 3,
  "Manufacturer": "Siemens",
  "ManufacturersModelName": "Prisma_fit",
  "Modality": "MR",
  "MultibandAccelerationFactor": 4,
  "PartialFourier": 1,
  "PatientPosition": "HFS",
  "PercentPhaseFOV": 100,
  "PhaseEncodingDirection": "j",
  "PhaseEncodingSteps": 104,
  "PhaseResolution": 1,
  "PixelBandwidth": 2290,
  "ProcedureStepDescription": "games_mario",
  "ProtocolName": "func_task-mario_run-04",
  "PulseSequenceDetails": "%CustomerSeq%_cmrr_mbep2d_bold",
  "ReceiveCoilActiveElements": "HC1-7;NC1,2",
  "ReceiveCoilName": "HeadNeck_64",
  "ReconMatrixPE": 104,
  "RepetitionTime": 1.49,
  "SAR": 0.0462946,
  "ScanOptions": "FS",
  "ScanningSequence": "EP",
  "SequenceName": "epfid2d1_104",
  "SequenceVariant": "SK_SS",
  "SeriesDescription": "func_task-mario_run-04",
  "SeriesNumber": 19,
  "ShimSetting": [630, -7248, -8837, 590, 7, -205, -120, -18],
  "SliceThickness": 2,
  "SliceTiming": [0, 0.785, 0.0975, 0.8825, 0.195, 0.98, 0.295, 1.0775, 0.3925, 1.175, 0.49, 1.275, 0.5875, 1.3725, 0.685, 0, 0.785, 0.0975, 0.8825, 0.195, 0.98, 0.295, 1.0775, 0.3925, 1.175, 0.49, 1.275, 0.5875, 1.3725, 0.685, 0, 0.785, 0.0975, 0.8825, 0.195, 0.98, 0.295, 1.0775, 0.3925, 1.175, 0.49, 1.275, 0.5875, 1.3725, 0.685, 0, 0.785, 0.0975, 0.8825, 0.195, 0.98, 0.295, 1.0775, 0.3925, 1.175, 0.49, 1.275, 0.5875, 1.3725, 0.685],
  "SoftwareVersions": "syngo_MR_E11",
  "SpacingBetweenSlices": 2,
  "StationName": "MRC35049",
  "TaskName": "mario",
  "TotalReadoutTime": 0.0576811,
  "TxRefAmp": 255.261,
  "WipMemBlock": "80fa1921-b4cc-48cb-8df1-e5933ba61a3d||Sequence: R016 ve11c/master r/e634e98; Dec 19 2017 11:00:25 by eja",
  "dcmmeta_affine": [
    [-1.9994947910308838, 0.04362910985946655, -0.01082555204629898, 104.39545440673828],
    [0.04475903511047363, 1.8877196311950684, -0.6591745615005493, -68.04258728027344],
    [0.004161795601248741, 0.6592503190040588, 1.8882191181182861, -66.6522216796875],
    [0.0, 0.0, 0.0, 1.0]
],
  "dcmmeta_reorient_transform": [
    [0.0, -1.0, 0.0, 103.0],
    [1.0, 0.0, 0.0, 0.0],
    [0.0, 0.0, 1.0, 0.0],
    [0.0, 0.0, 0.0, 1.0]
],
  "dcmmeta_shape": [104, 104, 60, 467],
  "dcmmeta_slice_dim": 2,
  "dcmmeta_version": 0.6,
  "global": {
    "const": {
      "AcquisitionMatrix": [104, 0, 0, 104],
      "AngioFlag": "N",
      "BitsAllocated": 16,
      "BitsStored": 16,
      "BodyPartExamined": "BRAIN",
      "Columns": 832,
      "EchoNumbers": 1,
      "EchoTime": 37.0,
      "EchoTrainLength": 104,
      "FlipAngle": 52.0,
      "HighBit": 15,
      "ImageOrientationPatient": [0.99974738162179, -0.0223795175166, 0.00208089790662, 0.02181455469744, 0.94385983210683, -0.3296251545902],
      "ImagePositionPatient": [-852.5863413108, -797.23020404497, 239.70278042305],
      "ImageType": [
        "ORIGINAL",
        "PRIMARY",
        "M",
        "MB",
        "ND",
        "MOSAIC"
],
      "ImagedNucleus": "1H",
      "ImagingFrequency": 123.25889,
      "InPlanePhaseEncodingDirection": "COL",
      "MRAcquisitionType": "2D",
      "MagneticFieldStrength": 3.0,
      "Manufacturer": "SIEMENS",
      "ManufacturerModelName": "Prisma_fit",
      "Modality": "MR",
      "NumberOfAverages": 1.0,
      "NumberOfPhaseEncodingSteps": 104,
      "PercentPhaseFieldOfView": 100.0,
      "PercentSampling": 100.0,
      "PerformedProcedureStepStartTime": "154529.954000",
      "PhotometricInterpretation": "MONOCHROME2",
      "PixelBandwidth": 2290.0,
      "PixelRepresentation": 0,
      "PixelSpacing": [2.0, 2.0],
      "ProtocolName": "func_task-mario_run-04",
      "RepetitionTime": 1490.0,
      "Rows": 832,
      "SAR": 0.04629460455731,
      "SamplesPerPixel": 1,
      "ScanOptions": "FS",
      "ScanningSequence": "EP",
      "SequenceName": "epfid2d1_104",
      "SequenceVariant": [
        "SK",
        "SS"
],
      "SeriesDescription": "func_task-mario_run-04",
      "SeriesNumber": 19,
      "SeriesTime": "162900.064000",
      "SliceLocation": -41.066097673915,
      "SliceThickness": 2.0,
      "SmallestImagePixelValue": 0,
      "SoftwareVersions": "syngo MR E11",
      "SpacingBetweenSlices": 1.9999999576807,
      "SpecificCharacterSet": "ISO_IR 100",
      "StudyID": "1",
      "StudyTime": "154529.895000",
      "TransmitCoilName": "Body",
      "VariableFlipAngleFlag": "N",
      "WindowCenterWidthExplanation": "Algo1",
      "dBdt": 0.0},
    "slices": {}
  },
  "time": {
    "samples": {
      "AcquisitionNumber": [1, 2, 3, 4, 5, 6, 7, 8, 9, 10, 11, 12, 13, 14, 15, 16, 17, 18, 19, 20, 21, 22, 23, 24, 25, 26, 27, 28, 29, 30, 31, 32, 33, 34, 35, 36, 37, 38, 39, 40, 41, 42, 43, 44, 45, 46, 47, 48, 49, 50, 51, 52, 53, 54, 55, 56, 57, 58, 59, 60, 61, 62, 63, 64, 65, 66, 67, 68, 69, 70, 71, 72, 73, 74, 75, 76, 77, 78, 79, 80, 81, 82, 83, 84, 85, 86, 87, 88, 89, 90, 91, 92, 93, 94, 95, 96, 97, 98, 99, 100, 101, 102, 103, 104, 105, 106, 107, 108, 109, 110, 111, 112, 113, 114, 115, 116, 117, 118, 119, 120, 121, 122, 123, 124, 125, 126, 127, 128, 129, 130, 131, 132, 133, 134, 135, 136, 137, 138, 139, 140, 141, 142, 143, 144, 145, 146, 147, 148, 149, 150, 151, 152, 153, 154, 155, 156, 157, 158, 159, 160, 161, 162, 163, 164, 165, 166, 167, 168, 169, 170, 171, 172, 173, 174, 175, 176, 177, 178, 179, 180, 181, 182, 183, 184, 185, 186, 187, 188, 189, 190, 191, 192, 193, 194, 195, 196, 197, 198, 199, 200, 201, 202, 203, 204, 205, 206, 207, 208, 209, 210, 211, 212, 213, 214, 215, 216, 217, 218, 219, 220, 221, 222, 223, 224, 225, 226, 227, 228, 229, 230, 231, 232, 233, 234, 235, 236, 237, 238, 239, 240, 241, 242, 243, 244, 245, 246, 247, 248, 249, 250, 251, 252, 253, 254, 255, 256, 257, 258, 259, 260, 261, 262, 263, 264, 265, 266, 267, 268, 269, 270, 271, 272, 273, 274, 275, 276, 277, 278, 279, 280, 281, 282, 283, 284, 285, 286, 287, 288, 289, 290, 291, 292, 293, 294, 295, 296, 297, 298, 299, 300, 301, 302, 303, 304, 305, 306, 307, 308, 309, 310, 311, 312, 313, 314, 315, 316, 317, 318, 319, 320, 321, 322, 323, 324, 325, 326, 327, 328, 329, 330, 331, 332, 333, 334, 335, 336, 337, 338, 339, 340, 341, 342, 343, 344, 345, 346, 347, 348, 349, 350, 351, 352, 353, 354, 355, 356, 357, 358, 359, 360, 361, 362, 363, 364, 365, 366, 367, 368, 369, 370, 371, 372, 373, 374, 375, 376, 377, 378, 379, 380, 381, 382, 383, 384, 385, 386, 387, 388, 389, 390, 391, 392, 393, 394, 395, 396, 397, 398, 399, 400, 401, 402, 403, 404, 405, 406, 407, 408, 409, 410, 411, 412, 413, 414, 415, 416, 417, 418, 419, 420, 421, 422, 423, 424, 425, 426, 427, 428, 429, 430, 431, 432, 433, 434, 435, 436, 437, 438, 439, 440, 441, 442, 443, 444, 445, 446, 447, 448, 449, 450, 451, 452, 453, 454, 455, 456, 457, 458, 459, 460, 461, 462, 463, 464, 465, 466, 467],
      "AcquisitionTime": ["162733.757500", "162735.247500", "162736.737500", "162738.227500", "162739.717500", "162741.207500", "162742.697500", "162744.187500", "162745.677500", "162747.167500", "162748.657500", "162750.147500", "162751.637500", "162753.127500", "162754.617500", "162756.107500", "162757.597500", "162759.087500", "162800.577500", "162802.067500", "162803.557500", "162805.047500", "162806.537500", "162808.027500", "162809.517500", "162811.007500", "162812.497500", "162813.987500", "162815.477500", "162816.967500", "162818.457500", "162819.947500", "162821.437500", "162822.927500", "162824.417500", "162825.907500", "162827.397500", "162828.887500", "162830.377500", "162831.867500", "162833.357500", "162834.847500", "162836.337500", "162837.827500", "162839.317500", "162840.807500", "162842.297500", "162843.787500", "162845.277500", "162846.767500", "162848.257500", "162849.747500", "162851.237500", "162852.727500", "162854.217500", "162855.707500", "162857.197500", "162858.687500", "162900.177500", "162901.667500", "162903.157500", "162904.647500", "162906.137500", "162907.627500", "162909.117500", "162910.607500", "162912.097500", "162913.587500", "162915.077500", "162916.567500", "162918.057500", "162919.547500", "162921.037500", "162922.527500", "162924.017500", "162925.507500", "162926.997500", "162928.487500", "162929.977500", "162931.467500", "162932.957500", "162934.447500", "162935.937500", "162937.427500", "162938.917500", "162940.407500", "162941.897500", "162943.387500", "162944.877500", "162946.367500", "162947.857500", "162949.347500", "162950.837500", "162952.327500", "162953.817500", "162955.307500", "162956.797500", "162958.287500", "162959.777500", "163001.267500", "163002.757500", "163004.247500", "163005.737500", "163007.227500", "163008.717500", "163010.207500", "163011.697500", "163013.187500", "163014.677500", "163016.167500", "163017.657500", "163019.147500", "163020.637500", "163022.127500", "163023.617500", "163025.107500", "163026.597500", "163028.087500", "163029.577500", "163031.067500", "163032.557500", "163034.047500", "163035.537500", "163037.027500", "163038.517500", "163040.007500", "163041.497500", "163042.987500", "163044.477500", "163045.967500", "163047.457500", "163048.947500", "163050.437500", "163051.927500", "163053.417500", "163054.907500", "163056.397500", "163057.887500", "163059.377500", "163100.867500", "163102.357500", "163103.847500", "163105.337500", "163106.827500", "163108.317500", "163109.807500", "163111.297500", "163112.787500", "163114.277500", "163115.767500", "163117.257500", "163118.747500", "163120.237500", "163121.727500", "163123.217500", "163124.707500", "163126.197500", "163127.687500", "163129.177500", "163130.667500", "163132.157500", "163133.647500", "163135.137500", "163136.627500", "163138.117500", "163139.607500", "163141.097500", "163142.587500", "163144.077500", "163145.567500", "163147.057500", "163148.547500", "163150.037500", "163151.527500", "163153.017500", "163154.507500", "163155.997500", "163157.487500", "163158.977500", "163200.467500", "163201.957500", "163203.447500", "163204.937500", "163206.427500", "163207.917500", "163209.407500", "163210.897500", "163212.387500", "163213.877500", "163215.367500", "163216.857500", "163218.347500", "163219.837500", "163221.327500", "163222.817500", "163224.307500", "163225.797500", "163227.287500", "163228.777500", "163230.267500", "163231.757500", "163233.247500", "163234.737500", "163236.227500", "163237.717500", "163239.207500", "163240.697500", "163242.187500", "163243.677500", "163245.167500", "163246.657500", "163248.147500", "163249.637500", "163251.127500", "163252.617500", "163254.107500", "163255.597500", "163257.087500", "163258.577500", "163300.067500", "163301.557500", "163303.047500", "163304.537500", "163306.027500", "163307.517500", "163309.007500", "163310.497500", "163311.987500", "163313.477500", "163314.967500", "163316.457500", "163317.947500", "163319.437500", "163320.927500", "163322.417500", "163323.907500", "163325.397500", "163326.887500", "163328.377500", "163329.867500", "163331.357500", "163332.847500", "163334.337500", "163335.827500", "163337.317500", "163338.807500", "163340.297500", "163341.787500", "163343.277500", "163344.767500", "163346.257500", "163347.747500", "163349.237500", "163350.727500", "163352.217500", "163353.707500", "163355.197500", "163356.687500", "163358.177500", "163359.667500", "163401.157500", "163402.647500", "163404.137500", "163405.627500", "163407.117500", "163408.607500", "163410.097500", "163411.587500", "163413.077500", "163414.567500", "163416.057500", "163417.547500", "163419.037500", "163420.527500", "163422.017500", "163423.507500", "163424.997500", "163426.487500", "163427.977500", "163429.467500", "163430.957500", "163432.447500", "163433.937500", "163435.427500", "163436.917500", "163438.407500", "163439.897500", "163441.387500", "163442.877500", "163444.367500", "163445.857500", "163447.347500", "163448.837500", "163450.327500", "163451.817500", "163453.307500", "163454.797500", "163456.287500", "163457.777500", "163459.267500", "163500.757500", "163502.247500", "163503.737500", "163505.227500", "163506.717500", "163508.207500", "163509.697500", "163511.187500", "163512.677500", "163514.167500", "163515.657500", "163517.147500", "163518.637500", "163520.127500", "163521.617500", "163523.107500", "163524.597500", "163526.087500", "163527.577500", "163529.067500", "163530.557500", "163532.047500", "163533.537500", "163535.027500", "163536.517500", "163538.007500", "163539.497500", "163540.987500", "163542.477500", "163543.967500", "163545.457500", "163546.947500", "163548.437500", "163549.927500", "163551.417500", "163552.907500", "163554.397500", "163555.887500", "163557.377500", "163558.867500", "163600.357500", "163601.847500", "163603.337500", "163604.827500", "163606.317500", "163607.807500", "163609.297500", "163610.787500", "163612.277500", "163613.767500", "163615.257500", "163616.747500", "163618.237500", "163619.727500", "163621.217500", "163622.707500", "163624.197500", "163625.687500", "163627.177500", "163628.667500", "163630.157500", "163631.647500", "163633.137500", "163634.627500", "163636.117500", "163637.607500", "163639.097500", "163640.587500", "163642.077500", "163643.567500", "163645.057500", "163646.547500", "163648.037500", "163649.527500", "163651.017500", "163652.507500", "163653.997500", "163655.487500", "163656.977500", "163658.467500", "163659.957500", "163701.447500", "163702.937500", "163704.427500", "163705.917500", "163707.407500", "163708.897500", "163710.387500", "163711.877500", "163713.367500", "163714.857500", "163716.347500", "163717.837500", "163719.327500", "163720.817500", "163722.307500", "163723.797500", "163725.287500", "163726.777500", "163728.267500", "163729.757500", "163731.247500", "163732.737500", "163734.227500", "163735.717500", "163737.207500", "163738.697500", "163740.187500", "163741.677500", "163743.167500", "163744.657500", "163746.147500", "163747.637500", "163749.127500", "163750.617500", "163752.107500", "163753.597500", "163755.087500", "163756.577500", "163758.067500", "163759.557500", "163801.047500", "163802.537500", "163804.027500", "163805.517500", "163807.007500", "163808.497500", "163809.987500", "163811.477500", "163812.967500", "163814.457500", "163815.947500", "163817.437500", "163818.927500", "163820.417500", "163821.907500", "163823.397500", "163824.887500", "163826.377500", "163827.867500", "163829.357500", "163830.847500", "163832.337500", "163833.827500", "163835.317500", "163836.807500", "163838.297500", "163839.787500", "163841.277500", "163842.767500", "163844.257500", "163845.747500", "163847.237500", "163848.727500", "163850.217500", "163851.707500", "163853.197500", "163854.687500", "163856.177500", "163857.667500", "163859.157500", "163900.647500", "163902.137500", "163903.627500", "163905.117500", "163906.607500", "163908.097500"],
      "ContentTime": ["162900.068000", "162900.072000", "162900.075000", "162900.078000", "162900.081000", "162900.085000", "162900.088000", "162900.091000", "162900.095000", "162900.098000", "162900.101000", "162900.104000", "162900.107000", "162900.111000", "162900.114000", "162900.117000", "162900.121000", "162900.124000", "162900.127000", "162900.131000", "162900.134000", "162900.137000", "162900.141000", "162900.144000", "162900.147000", "162900.150000", "162900.154000", "162900.162000", "162900.165000", "162900.168000", "162900.172000", "162900.175000", "162900.178000", "162920.021000", "162920.025000", "162920.028000", "162920.031000", "162920.034000", "162920.038000", "162920.041000", "162920.044000", "162920.048000", "162920.051000", "162920.054000", "162920.057000", "162920.061000", "162920.064000", "162920.067000", "162920.070000", "162920.074000", "162920.077000", "162920.080000", "162920.083000", "162940.021000", "162940.025000", "162940.028000", "162940.031000", "162940.035000", "162940.038000", "162940.041000", "162940.044000", "162940.048000", "162940.051000", "162940.054000", "162940.057000", "162940.061000", "162940.064000", "162940.067000", "162940.070000", "162940.074000", "162940.077000", "162940.080000", "162940.084000", "163000.021000", "163000.025000", "163000.028000", "163000.031000", "163000.035000", "163000.038000", "163000.041000", "163000.045000", "163000.048000", "163000.051000", "163000.054000", "163000.058000", "163000.061000", "163000.064000", "163000.067000", "163000.071000", "163000.074000", "163000.077000", "163000.081000", "163000.084000", "163040.021000", "163040.025000", "163040.028000", "163040.031000", "163040.035000", "163040.038000", "163040.041000", "163040.045000", "163040.048000", "163040.051000", "163040.055000", "163040.058000", "163040.061000", "163040.064000", "163040.068000", "163040.071000", "163040.074000", "163040.078000", "163040.081000", "163040.084000", "163040.088000", "163040.091000", "163040.094000", "163040.097000", "163040.101000", "163040.104000", "163040.107000", "163040.111000", "163040.114000", "163040.117000", "163040.121000", "163120.021000", "163120.025000", "163120.028000", "163120.031000", "163120.035000", "163120.038000", "163120.041000", "163120.045000", "163120.048000", "163120.051000", "163120.055000", "163120.058000", "163120.061000", "163120.064000", "163120.067000", "163120.071000", "163120.074000", "163120.077000", "163120.081000", "163120.084000", "163120.087000", "163120.090000", "163120.094000", "163120.097000", "163120.100000", "163120.104000", "163120.107000", "163200.021000", "163200.025000", "163200.028000", "163200.031000", "163200.035000", "163200.038000", "163200.041000", "163200.045000", "163200.048000", "163200.051000", "163200.055000", "163200.058000", "163200.066000", "163200.070000", "163200.073000", "163200.076000", "163200.080000", "163200.083000", "163200.086000", "163200.090000", "163200.093000", "163200.096000", "163200.099000", "163200.103000", "163200.117000", "163200.120000", "163200.123000", "163240.021000", "163240.025000", "163240.028000", "163240.031000", "163240.035000", "163240.038000", "163240.041000", "163240.045000", "163240.048000", "163240.051000", "163240.055000", "163240.058000", "163240.061000", "163240.065000", "163240.068000", "163240.071000", "163240.075000", "163240.078000", "163240.081000", "163240.084000", "163240.088000", "163240.091000", "163240.094000", "163240.097000", "163240.101000", "163240.104000", "163240.107000", "163320.020000", "163320.024000", "163320.027000", "163320.030000", "163320.034000", "163320.037000", "163320.040000", "163320.044000", "163320.047000", "163320.050000", "163320.054000", "163320.057000", "163320.060000", "163320.063000", "163320.067000", "163320.070000", "163320.073000", "163320.077000", "163320.080000", "163320.083000", "163320.086000", "163320.090000", "163320.093000", "163320.096000", "163320.100000", "163320.103000", "163320.106000", "163340.021000", "163340.025000", "163340.028000", "163340.032000", "163340.035000", "163340.039000", "163340.042000", "163340.045000", "163340.049000", "163340.052000", "163340.055000", "163340.058000", "163340.062000", "163420.021000", "163420.025000", "163420.028000", "163420.031000", "163420.035000", "163420.038000", "163420.041000", "163420.045000", "163420.048000", "163420.051000", "163420.055000", "163420.058000", "163420.061000", "163420.065000", "163420.068000", "163420.071000", "163420.075000", "163420.078000", "163420.081000", "163420.084000", "163420.088000", "163420.091000", "163420.094000", "163420.110000", "163420.113000", "163420.117000", "163420.120000", "163500.021000", "163500.025000", "163500.028000", "163500.032000", "163500.035000", "163500.038000", "163500.041000", "163500.045000", "163500.048000", "163500.051000", "163500.055000", "163500.058000", "163500.061000", "163500.065000", "163500.068000", "163500.071000", "163500.075000", "163500.078000", "163500.081000", "163500.084000", "163500.088000", "163500.091000", "163500.094000", "163500.098000", "163500.101000", "163500.104000", "163500.107000", "163540.020000", "163540.024000", "163540.027000", "163540.031000", "163540.034000", "163540.037000", "163540.040000", "163540.044000", "163540.047000", "163540.050000", "163540.054000", "163540.057000", "163540.060000", "163540.064000", "163540.067000", "163540.070000", "163540.074000", "163540.077000", "163540.080000", "163540.083000", "163540.087000", "163540.090000", "163540.093000", "163540.097000", "163540.100000", "163540.103000", "163540.107000", "163620.022000", "163620.026000", "163620.029000", "163620.033000", "163620.036000", "163620.039000", "163620.043000", "163620.046000", "163620.049000", "163620.053000", "163620.056000", "163620.059000", "163620.063000", "163620.066000", "163620.069000", "163620.073000", "163620.076000", "163620.079000", "163620.082000", "163620.086000", "163620.089000", "163620.092000", "163620.095000", "163620.099000", "163620.102000", "163620.105000", "163700.021000", "163700.025000", "163700.028000", "163700.032000", "163700.035000", "163700.038000", "163700.041000", "163700.045000", "163700.061000", "163700.065000", "163700.068000", "163700.072000", "163700.075000", "163700.078000", "163700.081000", "163700.085000", "163700.090000", "163700.093000", "163700.096000", "163700.100000", "163700.103000", "163700.106000", "163700.109000", "163700.113000", "163700.116000", "163700.119000", "163700.123000", "163740.020000", "163740.024000", "163740.027000", "163740.030000", "163740.034000", "163740.037000", "163740.040000", "163740.044000", "163740.047000", "163740.050000", "163740.054000", "163740.057000", "163740.060000", "163740.063000", "163740.067000", "163740.070000", "163740.073000", "163740.077000", "163740.080000", "163740.083000", "163740.086000", "163740.090000", "163740.093000", "163740.096000", "163740.100000", "163740.103000", "163740.106000", "163820.021000", "163820.025000", "163820.028000", "163820.032000", "163820.035000", "163820.039000", "163820.042000", "163820.045000", "163820.049000", "163820.052000", "163820.055000", "163820.059000", "163820.062000", "163820.065000", "163820.068000", "163820.072000", "163820.075000", "163820.079000", "163820.082000", "163820.085000", "163820.088000", "163820.092000", "163820.095000", "163820.098000", "163820.102000", "163820.105000", "163820.108000", "163900.022000", "163900.025000", "163900.028000", "163900.032000", "163900.035000", "163900.038000", "163900.042000", "163900.045000", "163900.049000", "163900.052000", "163900.055000", "163900.074000", "163900.078000", "163900.081000", "163900.084000", "163900.098000", "163900.102000", "163900.105000", "163900.108000", "163900.112000", "163900.115000", "163900.118000", "163900.122000", "163900.125000", "163900.129000", "163900.132000", "163900.135000", "163911.278000", "163911.282000", "163911.285000", "163911.288000", "163911.291000", "163911.295000", "163911.298000"],
