{
  "AcquisitionMatrixPE": 104,
  "AcquisitionNumber": 1,
  "AcquisitionTime": "15:48:58.152500",
  "BandwidthPerPixelPhaseEncode": 17.17,
  "BaseResolution": 104,
  "BodyPartExamined": "BRAIN",
  "CoilString": "HC1-7;NC1_2",
  "ConsistencyInfo": "N4_VE11C_LATEST_20160120",
  "ConversionSoftware": "dcm2niix",
  "ConversionSoftwareVersion": "v1.0.20190902",
  "DerivedVendorReportedEchoSpacing": 0.000560011,
  "DeviceSerialNumber": "167006",
  "DwellTime": 2.1e-06,
  "EchoTime": 0.037,
  "EchoTrainLength": 104,
  "EffectiveEchoSpacing": 0.000560011,
  "FlipAngle": 52,
  "HeudiconvVersion": "0.10.0",
  "ImageComments": "Unaliased_MB4_PE3_LB",
  "ImageOrientationPatientDICOM": [0.999747, -0.0223795, 0.0020809, 0.0218146, 0.94386, -0.329625],
  "ImageType": [
    "ORIGINAL",
    "PRIMARY",
    "P",
    "MB",
    "ND",
    "MOSAIC"
],
  "ImagingFrequency": 123.259,
  "InPlanePhaseEncodingDirectionDICOM": "COL",
  "InstitutionAddress": "Chemin_Queen-Mary_4565_Montreal_District_CA_H3W_1W5",
  "InstitutionName": "IUGM",
  "InstitutionalDepartmentName": "Department",
  "MRAcquisitionType": "2D",
  "MagneticFieldStrength": 3,
  "Manufacturer": "Siemens",
  "ManufacturersModelName": "Prisma_fit",
  "Modality": "MR",
  "MultibandAccelerationFactor": 4,
  "PartialFourier": 1,
  "PatientPosition": "HFS",
  "PercentPhaseFOV": 100,
  "PhaseEncodingDirection": "j",
  "PhaseEncodingSteps": 104,
  "PhaseResolution": 1,
  "PixelBandwidth": 2290,
  "ProcedureStepDescription": "games_mario",
  "ProtocolName": "func_task-mario_run-01",
  "PulseSequenceDetails": "%CustomerSeq%_cmrr_mbep2d_bold",
  "ReceiveCoilActiveElements": "HC1-7;NC1,2",
  "ReceiveCoilName": "HeadNeck_64",
  "ReconMatrixPE": 104,
  "RepetitionTime": 1.49,
  "SAR": 0.0462946,
  "ScanOptions": "FS",
  "ScanningSequence": "EP",
  "SequenceName": "epfid2d1_104",
  "SequenceVariant": "SK_SS",
  "SeriesDescription": "func_task-mario_run-01",
  "SeriesNumber": 11,
  "ShimSetting": [630, -7248, -8837, 590, 7, -205, -120, -18],
  "SliceThickness": 2,
  "SliceTiming": [0, 0.785, 0.1, 0.8825, 0.1975, 0.98, 0.295, 1.0775, 0.3925, 1.1775, 0.49, 1.275, 0.5875, 1.3725, 0.6875, 0, 0.785, 0.1, 0.8825, 0.1975, 0.98, 0.295, 1.0775, 0.3925, 1.1775, 0.49, 1.275, 0.5875, 1.3725, 0.6875, 0, 0.785, 0.1, 0.8825, 0.1975, 0.98, 0.295, 1.0775, 0.3925, 1.1775, 0.49, 1.275, 0.5875, 1.3725, 0.6875, 0, 0.785, 0.1, 0.8825, 0.1975, 0.98, 0.295, 1.0775, 0.3925, 1.1775, 0.49, 1.275, 0.5875, 1.3725, 0.6875],
  "SoftwareVersions": "syngo_MR_E11",
  "SpacingBetweenSlices": 2,
  "StationName": "MRC35049",
  "TaskName": "mario",
  "TotalReadoutTime": 0.0576811,
  "TxRefAmp": 255.261,
  "WipMemBlock": "41d24592-cc79-4f71-bc78-a5fd535ab18e||Sequence: R016 ve11c/master r/e634e98; Dec 19 2017 11:00:25 by eja",
  "dcmmeta_affine": [
    [-1.9994947910308838, 0.04362910985946655, -0.01082555204629898, 104.39545440673828],
    [0.04475903511047363, 1.8877196311950684, -0.6591745615005493, -68.04258728027344],
    [0.004161795601248741, 0.6592503190040588, 1.8882191181182861, -66.6522216796875],
    [0.0, 0.0, 0.0, 1.0]
],
  "dcmmeta_reorient_transform": [
    [0.0, -1.0, 0.0, 103.0],
    [1.0, 0.0, 0.0, 0.0],
    [0.0, 0.0, 1.0, 0.0],
    [0.0, 0.0, 0.0, 1.0]
],
  "dcmmeta_shape": [104, 104, 60, 433],
  "dcmmeta_slice_dim": 2,
  "dcmmeta_version": 0.6,
  "global": {
    "const": {
      "AcquisitionMatrix": [104, 0, 0, 104],
      "AngioFlag": "N",
      "BitsAllocated": 16,
      "BitsStored": 16,
      "BodyPartExamined": "BRAIN",
      "Columns": 832,
      "EchoNumbers": 1,
      "EchoTime": 37.0,
      "EchoTrainLength": 104,
      "FlipAngle": 52.0,
      "HighBit": 15,
      "ImageOrientationPatient": [0.99974738162179, -0.0223795175166, 0.00208089790662, 0.02181455469744, 0.94385983210683, -0.3296251545902],
      "ImagePositionPatient": [-852.5863413108, -797.23020404497, 239.70278042305],
      "ImageType": [
        "ORIGINAL",
        "PRIMARY",
        "P",
        "MB",
        "ND",
        "MOSAIC"
],
      "ImagedNucleus": "1H",
      "ImagingFrequency": 123.258872,
      "InPlanePhaseEncodingDirection": "COL",
      "LargestImagePixelValue": 4095,
      "MRAcquisitionType": "2D",
      "MagneticFieldStrength": 3.0,
      "Manufacturer": "SIEMENS",
      "ManufacturerModelName": "Prisma_fit",
      "Modality": "MR",
      "NumberOfAverages": 1.0,
      "NumberOfPhaseEncodingSteps": 104,
      "PercentPhaseFieldOfView": 100.0,
      "PercentSampling": 100.0,
      "PerformedProcedureStepStartTime": "154529.954000",
      "PhotometricInterpretation": "MONOCHROME2",
      "PixelBandwidth": 2290.0,
      "PixelRepresentation": 0,
      "PixelSpacing": [2.0, 2.0],
      "ProtocolName": "func_task-mario_run-01",
      "RepetitionTime": 1490.0,
      "RescaleIntercept": -4096.0,
      "RescaleSlope": 2.0,
      "RescaleType": "US",
      "Rows": 832,
      "SAR": 0.04629460455731,
      "SamplesPerPixel": 1,
      "ScanOptions": "FS",
      "ScanningSequence": "EP",
      "SequenceName": "epfid2d1_104",
      "SequenceVariant": [
        "SK",
        "SS"
],
      "SeriesDescription": "func_task-mario_run-01",
      "SeriesNumber": 11,
      "SeriesTime": "155020.196000",
      "SliceLocation": -41.066097673915,
      "SliceThickness": 2.0,
      "SmallestImagePixelValue": 0,
      "SoftwareVersions": "syngo MR E11",
      "SpacingBetweenSlices": 1.9999999576807,
      "SpecificCharacterSet": "ISO_IR 100",
      "StudyID": "1",
      "StudyTime": "154529.895000",
      "TransmitCoilName": "Body",
      "VariableFlipAngleFlag": "N",
      "WindowCenterWidthExplanation": "Algo1",
      "dBdt": 0.0},
    "slices": {}
  },
  "time": {
    "samples": {
      "AcquisitionNumber": [1, 2, 3, 4, 5, 6, 7, 8, 9, 10, 11, 12, 13, 14, 15, 16, 17, 18, 19, 20, 21, 22, 23, 24, 25, 26, 27, 28, 29, 30, 31, 32, 33, 34, 35, 36, 37, 38, 39, 40, 41, 42, 43, 44, 45, 46, 47, 48, 49, 50, 51, 52, 53, 54, 55, 56, 57, 58, 59, 60, 61, 62, 63, 64, 65, 66, 67, 68, 69, 70, 71, 72, 73, 74, 75, 76, 77, 78, 79, 80, 81, 82, 83, 84, 85, 86, 87, 88, 89, 90, 91, 92, 93, 94, 95, 96, 97, 98, 99, 100, 101, 102, 103, 104, 105, 106, 107, 108, 109, 110, 111, 112, 113, 114, 115, 116, 117, 118, 119, 120, 121, 122, 123, 124, 125, 126, 127, 128, 129, 130, 131, 132, 133, 134, 135, 136, 137, 138, 139, 140, 141, 142, 143, 144, 145, 146, 147, 148, 149, 150, 151, 152, 153, 154, 155, 156, 157, 158, 159, 160, 161, 162, 163, 164, 165, 166, 167, 168, 169, 170, 171, 172, 173, 174, 175, 176, 177, 178, 179, 180, 181, 182, 183, 184, 185, 186, 187, 188, 189, 190, 191, 192, 193, 194, 195, 196, 197, 198, 199, 200, 201, 202, 203, 204, 205, 206, 207, 208, 209, 210, 211, 212, 213, 214, 215, 216, 217, 218, 219, 220, 221, 222, 223, 224, 225, 226, 227, 228, 229, 230, 231, 232, 233, 234, 235, 236, 237, 238, 239, 240, 241, 242, 243, 244, 245, 246, 247, 248, 249, 250, 251, 252, 253, 254, 255, 256, 257, 258, 259, 260, 261, 262, 263, 264, 265, 266, 267, 268, 269, 270, 271, 272, 273, 274, 275, 276, 277, 278, 279, 280, 281, 282, 283, 284, 285, 286, 287, 288, 289, 290, 291, 292, 293, 294, 295, 296, 297, 298, 299, 300, 301, 302, 303, 304, 305, 306, 307, 308, 309, 310, 311, 312, 313, 314, 315, 316, 317, 318, 319, 320, 321, 322, 323, 324, 325, 326, 327, 328, 329, 330, 331, 332, 333, 334, 335, 336, 337, 338, 339, 340, 341, 342, 343, 344, 345, 346, 347, 348, 349, 350, 351, 352, 353, 354, 355, 356, 357, 358, 359, 360, 361, 362, 363, 364, 365, 366, 367, 368, 369, 370, 371, 372, 373, 374, 375, 376, 377, 378, 379, 380, 381, 382, 383, 384, 385, 386, 387, 388, 389, 390, 391, 392, 393, 394, 395, 396, 397, 398, 399, 400, 401, 402, 403, 404, 405, 406, 407, 408, 409, 410, 411, 412, 413, 414, 415, 416, 417, 418, 419, 420, 421, 422, 423, 424, 425, 426, 427, 428, 429, 430, 431, 432, 433],
      "AcquisitionTime": ["154858.152500", "154859.642500", "154901.132500", "154902.622500", "154904.112500", "154905.602500", "154907.092500", "154908.582500", "154910.072500", "154911.562500", "154913.052500", "154914.542500", "154916.032500", "154917.522500", "154919.012500", "154920.502500", "154921.992500", "154923.482500", "154924.972500", "154926.462500", "154927.952500", "154929.442500", "154930.932500", "154932.422500", "154933.912500", "154935.402500", "154936.892500", "154938.382500", "154939.872500", "154941.362500", "154942.852500", "154944.342500", "154945.832500", "154947.322500", "154948.812500", "154950.302500", "154951.792500", "154953.282500", "154954.772500", "154956.262500", "154957.752500", "154959.242500", "155000.732500", "155002.222500", "155003.712500", "155005.202500", "155006.692500", "155008.182500", "155009.672500", "155011.162500", "155012.652500", "155014.142500", "155015.632500", "155017.122500", "155018.612500", "155020.102500", "155021.592500", "155023.082500", "155024.572500", "155026.062500", "155027.552500", "155029.042500", "155030.532500", "155032.022500", "155033.512500", "155035.002500", "155036.492500", "155037.982500", "155039.472500", "155040.962500", "155042.452500", "155043.942500", "155045.432500", "155046.922500", "155048.412500", "155049.902500", "155051.392500", "155052.882500", "155054.372500", "155055.862500", "155057.352500", "155058.842500", "155100.332500", "155101.822500", "155103.312500", "155104.802500", "155106.292500", "155107.782500", "155109.272500", "155110.762500", "155112.252500", "155113.742500", "155115.232500", "155116.722500", "155118.212500", "155119.702500", "155121.192500", "155122.682500", "155124.172500", "155125.662500", "155127.152500", "155128.642500", "155130.132500", "155131.622500", "155133.112500", "155134.602500", "155136.092500", "155137.582500", "155139.072500", "155140.562500", "155142.052500", "155143.542500", "155145.032500", "155146.522500", "155148.012500", "155149.502500", "155150.992500", "155152.482500", "155153.972500", "155155.462500", "155156.952500", "155158.442500", "155159.932500", "155201.422500", "155202.912500", "155204.402500", "155205.892500", "155207.382500", "155208.872500", "155210.362500", "155211.852500", "155213.342500", "155214.832500", "155216.322500", "155217.812500", "155219.302500", "155220.792500", "155222.282500", "155223.772500", "155225.262500", "155226.752500", "155228.242500", "155229.732500", "155231.222500", "155232.712500", "155234.202500", "155235.692500", "155237.182500", "155238.672500", "155240.162500", "155241.652500", "155243.142500", "155244.632500", "155246.122500", "155247.612500", "155249.102500", "155250.592500", "155252.082500", "155253.572500", "155255.062500", "155256.552500", "155258.042500", "155259.532500", "155301.022500", "155302.512500", "155304.002500", "155305.492500", "155306.982500", "155308.472500", "155309.962500", "155311.452500", "155312.942500", "155314.432500", "155315.922500", "155317.412500", "155318.902500", "155320.392500", "155321.882500", "155323.372500", "155324.862500", "155326.352500", "155327.842500", "155329.332500", "155330.822500", "155332.312500", "155333.802500", "155335.292500", "155336.782500", "155338.272500", "155339.762500", "155341.252500", "155342.742500", "155344.232500", "155345.722500", "155347.212500", "155348.702500", "155350.192500", "155351.682500", "155353.172500", "155354.662500", "155356.152500", "155357.642500", "155359.132500", "155400.622500", "155402.112500", "155403.602500", "155405.092500", "155406.582500", "155408.072500", "155409.562500", "155411.052500", "155412.542500", "155414.032500", "155415.522500", "155417.012500", "155418.502500", "155419.992500", "155421.482500", "155422.972500", "155424.462500", "155425.952500", "155427.442500", "155428.932500", "155430.422500", "155431.912500", "155433.402500", "155434.892500", "155436.382500", "155437.872500", "155439.362500", "155440.852500", "155442.342500", "155443.832500", "155445.322500", "155446.812500", "155448.302500", "155449.792500", "155451.282500", "155452.772500", "155454.262500", "155455.752500", "155457.242500", "155458.732500", "155500.222500", "155501.712500", "155503.202500", "155504.692500", "155506.182500", "155507.672500", "155509.162500", "155510.652500", "155512.142500", "155513.632500", "155515.122500", "155516.612500", "155518.102500", "155519.592500", "155521.082500", "155522.572500", "155524.062500", "155525.552500", "155527.042500", "155528.532500", "155530.022500", "155531.512500", "155533.002500", "155534.492500", "155535.982500", "155537.472500", "155538.962500", "155540.452500", "155541.942500", "155543.432500", "155544.922500", "155546.412500", "155547.902500", "155549.392500", "155550.882500", "155552.372500", "155553.862500", "155555.352500", "155556.842500", "155558.332500", "155559.822500", "155601.312500", "155602.802500", "155604.292500", "155605.782500", "155607.272500", "155608.762500", "155610.252500", "155611.742500", "155613.232500", "155614.722500", "155616.212500", "155617.702500", "155619.192500", "155620.682500", "155622.172500", "155623.662500", "155625.152500", "155626.642500", "155628.132500", "155629.622500", "155631.112500", "155632.602500", "155634.092500", "155635.582500", "155637.072500", "155638.562500", "155640.052500", "155641.542500", "155643.032500", "155644.522500", "155646.012500", "155647.502500", "155648.992500", "155650.482500", "155651.972500", "155653.462500", "155654.952500", "155656.442500", "155657.932500", "155659.422500", "155700.912500", "155702.402500", "155703.892500", "155705.382500", "155706.872500", "155708.362500", "155709.852500", "155711.342500", "155712.832500", "155714.322500", "155715.812500", "155717.302500", "155718.792500", "155720.282500", "155721.772500", "155723.262500", "155724.752500", "155726.242500", "155727.732500", "155729.222500", "155730.712500", "155732.202500", "155733.692500", "155735.182500", "155736.672500", "155738.162500", "155739.652500", "155741.142500", "155742.632500", "155744.122500", "155745.612500", "155747.102500", "155748.592500", "155750.082500", "155751.572500", "155753.062500", "155754.552500", "155756.042500", "155757.532500", "155759.022500", "155800.512500", "155802.002500", "155803.492500", "155804.982500", "155806.472500", "155807.962500", "155809.452500", "155810.942500", "155812.432500", "155813.922500", "155815.412500", "155816.902500", "155818.392500", "155819.882500", "155821.372500", "155822.862500", "155824.352500", "155825.842500", "155827.332500", "155828.822500", "155830.312500", "155831.802500", "155833.292500", "155834.782500", "155836.272500", "155837.762500", "155839.252500", "155840.742500", "155842.232500", "155843.722500", "155845.212500", "155846.702500", "155848.192500", "155849.682500", "155851.172500", "155852.662500", "155854.152500", "155855.642500", "155857.132500", "155858.622500", "155900.112500", "155901.602500", "155903.092500", "155904.582500", "155906.072500", "155907.562500", "155909.052500", "155910.542500", "155912.032500", "155913.522500", "155915.012500", "155916.502500", "155917.992500", "155919.482500", "155920.972500", "155922.462500", "155923.952500", "155925.442500", "155926.932500", "155928.422500", "155929.912500", "155931.402500", "155932.892500", "155934.382500", "155935.872500", "155937.362500", "155938.852500", "155940.342500", "155941.832500"],
      "ContentTime": ["155020.198000", "155020.201000", "155020.204000", "155020.206000", "155020.209000", "155020.211000", "155020.214000", "155020.216000", "155020.219000", "155020.221000", "155020.224000", "155020.226000", "155020.229000", "155020.231000", "155020.234000", "155020.236000", "155020.239000", "155020.241000", "155020.244000", "155020.246000", "155020.249000", "155020.252000", "155020.254000", "155020.257000", "155020.259000", "155020.261000", "155020.264000", "155020.266000", "155040.133000", "155040.136000", "155040.138000", "155040.141000", "155040.143000", "155040.146000", "155040.148000", "155040.151000", "155040.153000", "155040.156000", "155040.158000", "155040.161000", "155040.163000", "155040.166000", "155040.168000", "155040.171000", "155040.173000", "155040.176000", "155040.178000", "155040.181000", "155100.143000", "155100.146000", "155100.148000", "155100.151000", "155100.153000", "155100.156000", "155100.158000", "155100.161000", "155100.164000", "155100.166000", "155100.168000", "155100.171000", "155100.173000", "155100.176000", "155100.178000", "155100.181000", "155100.183000", "155100.186000", "155100.188000", "155100.191000", "155120.142000", "155120.145000", "155120.148000", "155120.150000", "155120.153000", "155120.155000", "155120.158000", "155120.160000", "155120.163000", "155120.165000", "155120.168000", "155120.170000", "155120.173000", "155120.175000", "155120.178000", "155120.181000", "155120.183000", "155120.186000", "155120.188000", "155120.190000", "155200.175000", "155200.177000", "155200.180000", "155200.182000", "155200.191000", "155200.193000", "155200.196000", "155200.198000", "155200.201000", "155200.204000", "155200.206000", "155200.209000", "155200.211000", "155200.214000", "155200.216000", "155200.219000", "155200.221000", "155200.224000", "155200.226000", "155200.229000", "155200.231000", "155200.234000", "155200.236000", "155200.239000", "155200.242000", "155200.244000", "155200.247000", "155200.249000", "155200.252000", "155200.254000", "155200.257000", "155200.259000", "155200.262000", "155240.148000", "155240.150000", "155240.153000", "155240.156000", "155240.158000", "155240.161000", "155240.163000", "155240.166000", "155240.168000", "155240.171000", "155240.173000", "155240.176000", "155240.178000", "155240.181000", "155240.183000", "155240.186000", "155240.188000", "155240.191000", "155240.193000", "155240.196000", "155240.198000", "155240.201000", "155240.203000", "155240.206000", "155240.209000", "155240.211000", "155240.214000", "155320.600000", "155320.603000", "155320.606000", "155320.608000", "155320.611000", "155320.613000", "155320.616000", "155320.618000", "155320.621000", "155320.623000", "155320.626000", "155320.628000", "155320.631000", "155320.633000", "155320.636000", "155320.638000", "155320.641000", "155320.643000", "155320.646000", "155320.648000", "155320.651000", "155320.653000", "155320.656000", "155320.659000", "155320.661000", "155320.664000", "155340.107000", "155340.110000", "155340.113000", "155340.115000", "155340.118000", "155340.120000", "155340.123000", "155340.126000", "155340.128000", "155340.131000", "155340.133000", "155340.136000", "155340.138000", "155340.141000", "155420.151000", "155420.154000", "155420.156000", "155420.159000", "155420.161000", "155420.164000", "155420.166000", "155420.169000", "155420.171000", "155420.174000", "155420.176000", "155420.179000", "155420.181000", "155420.184000", "155420.187000", "155420.189000", "155420.192000", "155420.194000", "155420.197000", "155420.199000", "155420.202000", "155420.204000", "155420.207000", "155420.209000", "155420.212000", "155420.214000", "155420.217000", "155500.153000", "155500.155000", "155500.158000", "155500.161000", "155500.163000", "155500.166000", "155500.168000", "155500.171000", "155500.173000", "155500.176000", "155500.178000", "155500.181000", "155500.183000", "155500.186000", "155500.188000", "155500.191000", "155500.193000", "155500.196000", "155500.198000", "155500.201000", "155500.204000", "155500.206000", "155500.209000", "155500.211000", "155500.214000", "155500.216000", "155500.219000", "155540.172000", "155540.174000", "155540.177000", "155540.180000", "155540.182000", "155540.185000", "155540.187000", "155540.190000", "155540.192000", "155540.195000", "155540.197000", "155540.200000", "155540.202000", "155540.205000", "155540.207000", "155540.210000", "155540.212000", "155540.215000", "155540.217000", "155540.220000", "155540.222000", "155540.225000", "155540.227000", "155540.230000", "155540.232000", "155540.235000", "155620.163000", "155620.165000", "155620.168000", "155620.171000", "155620.173000", "155620.176000", "155620.178000", "155620.181000", "155620.183000", "155620.186000", "155620.188000", "155620.191000", "155620.193000", "155620.196000", "155620.198000", "155620.201000", "155620.204000", "155620.206000", "155620.209000", "155620.211000", "155620.214000", "155620.216000", "155620.219000", "155620.221000", "155620.224000", "155620.226000", "155620.229000", "155700.177000", "155700.180000", "155700.182000", "155700.185000", "155700.188000", "155700.190000", "155700.193000", "155700.195000", "155700.198000", "155700.200000", "155700.203000", "155700.205000", "155700.208000", "155700.210000", "155700.213000", "155700.215000", "155700.218000", "155700.220000", "155700.223000", "155700.225000", "155700.228000", "155700.231000", "155700.233000", "155700.236000", "155700.238000", "155700.241000", "155700.243000", "155740.162000", "155740.165000", "155740.168000", "155740.170000", "155740.173000", "155740.175000", "155740.178000", "155740.181000", "155740.183000", "155740.186000", "155740.188000", "155740.191000", "155740.193000", "155740.196000", "155740.198000", "155740.201000", "155740.203000", "155740.206000", "155740.208000", "155740.211000", "155740.213000", "155740.216000", "155740.218000", "155740.221000", "155740.223000", "155740.226000", "155740.228000", "155820.152000", "155820.155000", "155820.157000", "155820.160000", "155820.163000", "155820.165000", "155820.168000", "155820.170000", "155820.173000", "155820.175000", "155820.178000", "155820.180000", "155820.184000", "155820.187000", "155820.189000", "155820.192000", "155820.195000", "155820.197000", "155820.200000", "155820.202000", "155820.205000", "155820.207000", "155820.210000", "155820.213000", "155820.215000", "155820.218000", "155820.220000", "155900.155000", "155900.158000", "155900.161000", "155900.163000", "155900.166000", "155900.169000", "155900.171000", "155900.174000", "155900.177000", "155900.179000", "155900.182000", "155900.184000", "155900.187000", "155900.189000", "155900.192000", "155900.194000", "155900.197000", "155900.200000", "155900.202000", "155900.205000", "155900.207000", "155900.210000", "155900.212000", "155900.215000", "155900.217000", "155900.220000", "155900.222000", "155940.175000", "155940.178000", "155940.180000", "155940.183000", "155940.185000", "155940.188000", "155940.191000", "155940.193000", "155940.196000", "155940.198000", "155940.200000", "155940.203000", "155940.205000", "155940.208000", "155940.211000", "155940.213000", "155940.224000", "155940.227000", "155940.229000", "155940.232000", "155940.234000", "155940.237000", "155940.239000", "155940.242000", "155940.244000", "155940.247000", "155940.249000", "155944.579000", "155944.582000", "155944.585000"],
      "InstanceCreationTime": ["155020.198000", "155020.201000", "155020.204000", "155020.206000", "155020.209000", "155020.211000", "155020.214000", "155020.216000", "155020.219000", "155020.221000", "155020.224000", "155020.226000", "155020.229000", "155020.231000", "155020.234000", "155020.236000", "155020.239000", "155020.241000", "155020.244000", "155020.246000", "155020.249000", "155020.252000", "155020.254000", "155020.257000", "155020.259000", "155020.261000", "155020.264000", "155020.266000", "155040.133000", "155040.136000", "155040.138000", "155040.141000", "155040.143000", "155040.146000", "155040.148000", "155040.151000", "155040.153000", "155040.156000", "155040.158000", "155040.161000", "155040.163000", "155040.166000", "155040.168000", "155040.171000", "155040.173000", "155040.176000", "155040.178000", "155040.181000", "155100.143000", "155100.146000", "155100.148000", "155100.151000", "155100.153000", "155100.156000", "155100.158000", "155100.161000", "155100.164000", "155100.166000", "155100.168000", "155100.171000", "155100.173000", "155100.176000", "155100.178000", "155100.181000", "155100.183000", "155100.186000", "155100.188000", "155100.191000", "155120.142000", "155120.145000", "155120.148000", "155120.150000", "155120.153000", "155120.155000", "155120.158000", "155120.160000", "155120.163000", "155120.165000", "155120.168000", "155120.170000", "155120.173000", "155120.175000", "155120.178000", "155120.181000", "155120.183000", "155120.186000", "155120.188000", "155120.190000", "155200.175000", "155200.177000", "155200.180000", "155200.182000", "155200.191000", "155200.193000", "155200.196000", "155200.198000", "155200.201000", "155200.204000", "155200.206000", "155200.209000", "155200.211000", "155200.214000", "155200.216000", "155200.219000", "155200.221000", "155200.224000", "155200.226000", "155200.229000", "155200.231000", "155200.234000", "155200.236000", "155200.239000", "155200.242000", "155200.244000", "155200.247000", "155200.249000", "155200.252000", "155200.254000", "155200.257000", "155200.259000", "155200.262000", "155240.148000", "155240.150000", "155240.153000", "155240.156000", "155240.158000", "155240.161000", "155240.163000", "155240.166000", "155240.168000", "155240.171000", "155240.173000", "155240.176000", "155240.178000", "155240.181000", "155240.183000", "155240.186000", "155240.188000", "155240.191000", "155240.193000", "155240.196000", "155240.198000", "155240.201000", "155240.203000", "155240.206000", "155240.209000", "155240.211000", "155240.214000", "155320.600000", "155320.603000", "155320.606000", "155320.608000", "155320.611000", "155320.613000", "155320.616000", "155320.618000", "155320.621000", "155320.623000", "155320.626000", "155320.628000", "155320.631000", "155320.633000", "155320.636000", "155320.638000", "155320.641000", "155320.643000", "155320.646000", "155320.648000", "155320.651000", "155320.653000", "155320.656000", "155320.659000", "155320.661000", "155320.664000", "155340.107000", "155340.110000", "155340.113000", "155340.115000", "155340.118000", "155340.120000", "155340.123000", "155340.126000", "155340.128000", "155340.131000", "155340.133000", "155340.136000", "155340.138000", "155340.141000", "155420.151000", "155420.154000", "155420.156000", "155420.159000", "155420.161000", "155420.164000", "155420.166000", "155420.169000", "155420.171000", "155420.174000", "155420.176000", "155420.179000", "155420.181000", "155420.184000", "155420.187000", "155420.189000", "155420.192000", "155420.194000", "155420.197000", "155420.199000", "155420.202000", "155420.204000", "155420.207000", "155420.209000", "155420.212000", "155420.214000", "155420.217000", "155500.153000", "155500.155000", "155500.158000", "155500.161000", "155500.163000", "155500.166000", "155500.168000", "155500.171000", "155500.173000", "155500.176000", "155500.178000", "155500.181000", "155500.183000", "155500.186000", "155500.188000", "155500.191000", "155500.193000", "155500.196000", "155500.198000", "155500.201000", "155500.204000", "155500.206000", "155500.209000", "155500.211000", "155500.214000", "155500.216000", "155500.219000", "155540.172000", "155540.174000", "155540.177000", "155540.180000", "155540.182000", "155540.185000", "155540.187000", "155540.190000", "155540.192000", "155540.195000", "155540.197000", "155540.200000", "155540.202000", "155540.205000", "155540.207000", "155540.210000", "155540.212000", "155540.215000", "155540.217000", "155540.220000", "155540.222000", "155540.225000", "155540.227000", "155540.230000", "155540.232000", "155540.235000", "155620.163000", "155620.165000", "155620.168000", "155620.171000", "155620.173000", "155620.176000", "155620.178000", "155620.181000", "155620.183000", "155620.186000", "155620.188000", "155620.191000", "155620.193000", "155620.196000", "155620.198000", "155620.201000", "155620.204000", "155620.206000", "155620.209000", "155620.211000", "155620.214000", "155620.216000", "155620.219000", "155620.221000", "155620.224000", "155620.226000", "155620.229000", "155700.177000", "155700.180000", "155700.182000", "155700.185000", "155700.188000", "155700.190000", "155700.193000", "155700.195000", "155700.198000", "155700.200000", "155700.203000", "155700.205000", "155700.208000", "155700.210000", "155700.213000", "155700.215000", "155700.218000", "155700.220000", "155700.223000", "155700.225000", "155700.228000", "155700.231000", "155700.233000", "155700.236000", "155700.238000", "155700.241000", "155700.243000", "155740.162000", "155740.165000", "155740.168000", "155740.170000", "155740.173000", "155740.175000", "155740.178000", "155740.181000", "155740.183000", "155740.186000", "155740.188000", "155740.191000", "155740.193000", "155740.196000", "155740.198000", "155740.201000", "155740.203000", "155740.206000", "155740.208000", "155740.211000", "155740.213000", "155740.216000", "155740.218000", "155740.221000", "155740.223000", "155740.226000", "155740.228000", "155820.152000", "155820.155000", "155820.157000", "155820.160000", "155820.163000", "155820.165000", "155820.168000", "155820.170000", "155820.173000", "155820.175000", "155820.178000", "155820.180000", "155820.184000", "155820.187000", "155820.189000", "155820.192000", "155820.195000", "155820.197000", "155820.200000", "155820.202000", "155820.205000", "155820.207000", "155820.210000", "155820.213000", "155820.215000", "155820.218000", "155820.220000", "155900.155000", "155900.158000", "155900.161000", "155900.163000", "155900.166000", "155900.169000", "155900.171000", "155900.174000", "155900.177000", "155900.179000", "155900.182000", "155900.184000", "155900.187000", "155900.189000", "155900.192000", "155900.194000", "155900.197000", "155900.200000", "155900.202000", "155900.205000", "155900.207000", "155900.210000", "155900.212000", "155900.215000", "155900.217000", "155900.220000", "155900.222000", "155940.175000", "155940.178000", "155940.180000", "155940.183000", "155940.185000", "155940.188000", "155940.191000", "155940.193000", "155940.196000", "155940.198000", "155940.200000", "155940.203000", "155940.205000", "155940.208000", "155940.211000", "155940.213000", "155940.224000", "155940.227000", "155940.229000", "155940.232000", "155940.234000", "155940.237000", "155940.239000", "155940.242000", "155940.244000", "155940.247000", "155940.249000", "155944.579000", "155944.582000", "155944.585000"],
