{
  "AcquisitionMatrixPE": 104,
  "AcquisitionNumber": 1,
  "AcquisitionTime": "16:01:10.107500",
  "BandwidthPerPixelPhaseEncode": 17.17,
  "BaseResolution": 104,
  "BodyPartExamined": "BRAIN",
  "CoilString": "HC1-7;NC1_2",
  "ConsistencyInfo": "N4_VE11C_LATEST_20160120",
  "ConversionSoftware": "dcm2niix",
  "ConversionSoftwareVersion": "v1.0.20190902",
  "DerivedVendorReportedEchoSpacing": 0.000560011,
  "DeviceSerialNumber": "167006",
  "DwellTime": 2.1e-06,
  "EchoTime": 0.037,
  "EchoTrainLength": 104,
  "EffectiveEchoSpacing": 0.000560011,
  "FlipAngle": 52,
  "HeudiconvVersion": "0.10.0",
  "ImageComments": "Unaliased_MB4_PE3_LB",
  "ImageOrientationPatientDICOM": [0.999747, -0.0223795, 0.0020809, 0.0218146, 0.94386, -0.329625],
  "ImageType": [
    "ORIGINAL",
    "PRIMARY",
    "M",
    "MB",
    "ND",
    "MOSAIC"
],
  "ImagingFrequency": 123.259,
  "InPlanePhaseEncodingDirectionDICOM": "COL",
  "InstitutionAddress": "Chemin_Queen-Mary_4565_Montreal_District_CA_H3W_1W5",
  "InstitutionName": "IUGM",
  "InstitutionalDepartmentName": "Department",
  "MRAcquisitionType": "2D",
  "MagneticFieldStrength": 3,
  "Manufacturer": "Siemens",
  "ManufacturersModelName": "Prisma_fit",
  "Modality": "MR",
  "MultibandAccelerationFactor": 4,
  "PartialFourier": 1,
  "PatientPosition": "HFS",
  "PercentPhaseFOV": 100,
  "PhaseEncodingDirection": "j",
  "PhaseEncodingSteps": 104,
  "PhaseResolution": 1,
  "PixelBandwidth": 2290,
  "ProcedureStepDescription": "games_mario",
  "ProtocolName": "func_task-mario_run-02",
  "PulseSequenceDetails": "%CustomerSeq%_cmrr_mbep2d_bold",
  "ReceiveCoilActiveElements": "HC1-7;NC1,2",
  "ReceiveCoilName": "HeadNeck_64",
  "ReconMatrixPE": 104,
  "RepetitionTime": 1.49,
  "SAR": 0.0462946,
  "ScanOptions": "FS",
  "ScanningSequence": "EP",
  "SequenceName": "epfid2d1_104",
  "SequenceVariant": "SK_SS",
  "SeriesDescription": "func_task-mario_run-02",
  "SeriesNumber": 13,
  "ShimSetting": [630, -7248, -8837, 590, 7, -205, -120, -18],
  "SliceThickness": 2,
  "SliceTiming": [0, 0.7825, 0.0975, 0.8825, 0.195, 0.98, 0.2925, 1.0775, 0.3925, 1.175, 0.49, 1.2725, 0.5875, 1.3725, 0.685, 0, 0.7825, 0.0975, 0.8825, 0.195, 0.98, 0.2925, 1.0775, 0.3925, 1.175, 0.49, 1.2725, 0.5875, 1.3725, 0.685, 0, 0.7825, 0.0975, 0.8825, 0.195, 0.98, 0.2925, 1.0775, 0.3925, 1.175, 0.49, 1.2725, 0.5875, 1.3725, 0.685, 0, 0.7825, 0.0975, 0.8825, 0.195, 0.98, 0.2925, 1.0775, 0.3925, 1.175, 0.49, 1.2725, 0.5875, 1.3725, 0.685],
  "SoftwareVersions": "syngo_MR_E11",
  "SpacingBetweenSlices": 2,
  "StationName": "MRC35049",
  "TaskName": "mario",
  "TotalReadoutTime": 0.0576811,
  "TxRefAmp": 255.261,
  "WipMemBlock": "0264e58a-9e32-4772-b81f-36eddd36c968||Sequence: R016 ve11c/master r/e634e98; Dec 19 2017 11:00:25 by eja",
  "dcmmeta_affine": [
    [-1.9994947910308838, 0.04362910985946655, -0.01082555204629898, 104.39545440673828],
    [0.04475903511047363, 1.8877196311950684, -0.6591745615005493, -68.04258728027344],
    [0.004161795601248741, 0.6592503190040588, 1.8882191181182861, -66.6522216796875],
    [0.0, 0.0, 0.0, 1.0]
],
  "dcmmeta_reorient_transform": [
    [0.0, -1.0, 0.0, 103.0],
    [1.0, 0.0, 0.0, 0.0],
    [0.0, 0.0, 1.0, 0.0],
    [0.0, 0.0, 0.0, 1.0]
],
  "dcmmeta_shape": [104, 104, 60, 481],
  "dcmmeta_slice_dim": 2,
  "dcmmeta_version": 0.6,
  "global": {
    "const": {
      "AcquisitionMatrix": [104, 0, 0, 104],
      "AngioFlag": "N",
      "BitsAllocated": 16,
      "BitsStored": 16,
      "BodyPartExamined": "BRAIN",
      "Columns": 832,
      "EchoNumbers": 1,
      "EchoTime": 37.0,
      "EchoTrainLength": 104,
      "FlipAngle": 52.0,
      "HighBit": 15,
      "ImageOrientationPatient": [0.99974738162179, -0.0223795175166, 0.00208089790662, 0.02181455469744, 0.94385983210683, -0.3296251545902],
      "ImagePositionPatient": [-852.5863413108, -797.23020404497, 239.70278042305],
      "ImageType": [
        "ORIGINAL",
        "PRIMARY",
        "M",
        "MB",
        "ND",
        "MOSAIC"
],
      "ImagedNucleus": "1H",
      "ImagingFrequency": 123.258879,
      "InPlanePhaseEncodingDirection": "COL",
      "MRAcquisitionType": "2D",
      "MagneticFieldStrength": 3.0,
      "Manufacturer": "SIEMENS",
      "ManufacturerModelName": "Prisma_fit",
      "Modality": "MR",
      "NumberOfAverages": 1.0,
      "NumberOfPhaseEncodingSteps": 104,
      "PercentPhaseFieldOfView": 100.0,
      "PercentSampling": 100.0,
      "PerformedProcedureStepStartTime": "154529.954000",
      "PhotometricInterpretation": "MONOCHROME2",
      "PixelBandwidth": 2290.0,
      "PixelRepresentation": 0,
      "PixelSpacing": [2.0, 2.0],
      "ProtocolName": "func_task-mario_run-02",
      "RepetitionTime": 1490.0,
      "Rows": 832,
      "SAR": 0.04629460455731,
      "SamplesPerPixel": 1,
      "ScanOptions": "FS",
      "ScanningSequence": "EP",
      "SequenceName": "epfid2d1_104",
      "SequenceVariant": [
        "SK",
        "SS"
],
      "SeriesDescription": "func_task-mario_run-02",
      "SeriesNumber": 13,
      "SeriesTime": "160236.519000",
      "SliceLocation": -41.066097673915,
      "SliceThickness": 2.0,
      "SmallestImagePixelValue": 0,
      "SoftwareVersions": "syngo MR E11",
      "SpacingBetweenSlices": 1.9999999576807,
      "SpecificCharacterSet": "ISO_IR 100",
      "StudyID": "1",
      "StudyTime": "154529.895000",
      "TransmitCoilName": "Body",
      "VariableFlipAngleFlag": "N",
      "WindowCenterWidthExplanation": "Algo1",
      "dBdt": 0.0},
    "slices": {}
  },
  "time": {
    "samples": {
      "AcquisitionNumber": [1, 2, 3, 4, 5, 6, 7, 8, 9, 10, 11, 12, 13, 14, 15, 16, 17, 18, 19, 20, 21, 22, 23, 24, 25, 26, 27, 28, 29, 30, 31, 32, 33, 34, 35, 36, 37, 38, 39, 40, 41, 42, 43, 44, 45, 46, 47, 48, 49, 50, 51, 52, 53, 54, 55, 56, 57, 58, 59, 60, 61, 62, 63, 64, 65, 66, 67, 68, 69, 70, 71, 72, 73, 74, 75, 76, 77, 78, 79, 80, 81, 82, 83, 84, 85, 86, 87, 88, 89, 90, 91, 92, 93, 94, 95, 96, 97, 98, 99, 100, 101, 102, 103, 104, 105, 106, 107, 108, 109, 110, 111, 112, 113, 114, 115, 116, 117, 118, 119, 120, 121, 122, 123, 124, 125, 126, 127, 128, 129, 130, 131, 132, 133, 134, 135, 136, 137, 138, 139, 140, 141, 142, 143, 144, 145, 146, 147, 148, 149, 150, 151, 152, 153, 154, 155, 156, 157, 158, 159, 160, 161, 162, 163, 164, 165, 166, 167, 168, 169, 170, 171, 172, 173, 174, 175, 176, 177, 178, 179, 180, 181, 182, 183, 184, 185, 186, 187, 188, 189, 190, 191, 192, 193, 194, 195, 196, 197, 198, 199, 200, 201, 202, 203, 204, 205, 206, 207, 208, 209, 210, 211, 212, 213, 214, 215, 216, 217, 218, 219, 220, 221, 222, 223, 224, 225, 226, 227, 228, 229, 230, 231, 232, 233, 234, 235, 236, 237, 238, 239, 240, 241, 242, 243, 244, 245, 246, 247, 248, 249, 250, 251, 252, 253, 254, 255, 256, 257, 258, 259, 260, 261, 262, 263, 264, 265, 266, 267, 268, 269, 270, 271, 272, 273, 274, 275, 276, 277, 278, 279, 280, 281, 282, 283, 284, 285, 286, 287, 288, 289, 290, 291, 292, 293, 294, 295, 296, 297, 298, 299, 300, 301, 302, 303, 304, 305, 306, 307, 308, 309, 310, 311, 312, 313, 314, 315, 316, 317, 318, 319, 320, 321, 322, 323, 324, 325, 326, 327, 328, 329, 330, 331, 332, 333, 334, 335, 336, 337, 338, 339, 340, 341, 342, 343, 344, 345, 346, 347, 348, 349, 350, 351, 352, 353, 354, 355, 356, 357, 358, 359, 360, 361, 362, 363, 364, 365, 366, 367, 368, 369, 370, 371, 372, 373, 374, 375, 376, 377, 378, 379, 380, 381, 382, 383, 384, 385, 386, 387, 388, 389, 390, 391, 392, 393, 394, 395, 396, 397, 398, 399, 400, 401, 402, 403, 404, 405, 406, 407, 408, 409, 410, 411, 412, 413, 414, 415, 416, 417, 418, 419, 420, 421, 422, 423, 424, 425, 426, 427, 428, 429, 430, 431, 432, 433, 434, 435, 436, 437, 438, 439, 440, 441, 442, 443, 444, 445, 446, 447, 448, 449, 450, 451, 452, 453, 454, 455, 456, 457, 458, 459, 460, 461, 462, 463, 464, 465, 466, 467, 468, 469, 470, 471, 472, 473, 474, 475, 476, 477, 478, 479, 480, 481],
      "AcquisitionTime": ["160110.107500", "160111.597500", "160113.087500", "160114.577500", "160116.067500", "160117.557500", "160119.047500", "160120.537500", "160122.027500", "160123.517500", "160125.007500", "160126.497500", "160127.987500", "160129.477500", "160130.967500", "160132.457500", "160133.947500", "160135.437500", "160136.927500", "160138.417500", "160139.907500", "160141.397500", "160142.887500", "160144.377500", "160145.867500", "160147.357500", "160148.847500", "160150.337500", "160151.827500", "160153.317500", "160154.807500", "160156.297500", "160157.787500", "160159.277500", "160200.767500", "160202.257500", "160203.747500", "160205.237500", "160206.727500", "160208.217500", "160209.707500", "160211.197500", "160212.687500", "160214.177500", "160215.667500", "160217.157500", "160218.647500", "160220.137500", "160221.627500", "160223.117500", "160224.607500", "160226.097500", "160227.587500", "160229.077500", "160230.567500", "160232.057500", "160233.547500", "160235.037500", "160236.527500", "160238.017500", "160239.507500", "160240.997500", "160242.487500", "160243.977500", "160245.467500", "160246.957500", "160248.447500", "160249.937500", "160251.427500", "160252.917500", "160254.407500", "160255.897500", "160257.387500", "160258.877500", "160300.367500", "160301.857500", "160303.347500", "160304.837500", "160306.327500", "160307.817500", "160309.307500", "160310.797500", "160312.287500", "160313.777500", "160315.267500", "160316.757500", "160318.247500", "160319.737500", "160321.227500", "160322.717500", "160324.207500", "160325.697500", "160327.187500", "160328.677500", "160330.167500", "160331.657500", "160333.147500", "160334.637500", "160336.127500", "160337.617500", "160339.107500", "160340.597500", "160342.087500", "160343.577500", "160345.067500", "160346.557500", "160348.047500", "160349.537500", "160351.027500", "160352.517500", "160354.007500", "160355.497500", "160356.987500", "160358.477500", "160359.967500", "160401.457500", "160402.947500", "160404.437500", "160405.927500", "160407.417500", "160408.907500", "160410.397500", "160411.887500", "160413.377500", "160414.867500", "160416.357500", "160417.847500", "160419.337500", "160420.827500", "160422.317500", "160423.807500", "160425.297500", "160426.787500", "160428.277500", "160429.767500", "160431.257500", "160432.747500", "160434.237500", "160435.727500", "160437.217500", "160438.707500", "160440.197500", "160441.687500", "160443.177500", "160444.667500", "160446.157500", "160447.647500", "160449.137500", "160450.627500", "160452.117500", "160453.607500", "160455.097500", "160456.587500", "160458.077500", "160459.567500", "160501.057500", "160502.547500", "160504.037500", "160505.527500", "160507.017500", "160508.507500", "160509.997500", "160511.487500", "160512.977500", "160514.467500", "160515.957500", "160517.447500", "160518.937500", "160520.427500", "160521.917500", "160523.407500", "160524.897500", "160526.387500", "160527.877500", "160529.367500", "160530.857500", "160532.347500", "160533.837500", "160535.327500", "160536.817500", "160538.307500", "160539.797500", "160541.287500", "160542.777500", "160544.267500", "160545.757500", "160547.247500", "160548.737500", "160550.227500", "160551.717500", "160553.207500", "160554.697500", "160556.187500", "160557.677500", "160559.167500", "160600.657500", "160602.147500", "160603.637500", "160605.127500", "160606.617500", "160608.107500", "160609.597500", "160611.087500", "160612.577500", "160614.067500", "160615.557500", "160617.047500", "160618.537500", "160620.027500", "160621.517500", "160623.007500", "160624.497500", "160625.987500", "160627.477500", "160628.967500", "160630.457500", "160631.947500", "160633.437500", "160634.927500", "160636.417500", "160637.907500", "160639.397500", "160640.887500", "160642.377500", "160643.867500", "160645.357500", "160646.847500", "160648.337500", "160649.827500", "160651.317500", "160652.807500", "160654.297500", "160655.787500", "160657.277500", "160658.767500", "160700.257500", "160701.747500", "160703.237500", "160704.727500", "160706.217500", "160707.707500", "160709.197500", "160710.687500", "160712.177500", "160713.667500", "160715.157500", "160716.647500", "160718.137500", "160719.627500", "160721.117500", "160722.607500", "160724.097500", "160725.587500", "160727.077500", "160728.567500", "160730.057500", "160731.547500", "160733.037500", "160734.527500", "160736.017500", "160737.507500", "160738.997500", "160740.487500", "160741.977500", "160743.467500", "160744.957500", "160746.447500", "160747.937500", "160749.427500", "160750.917500", "160752.407500", "160753.897500", "160755.387500", "160756.877500", "160758.367500", "160759.857500", "160801.347500", "160802.837500", "160804.327500", "160805.817500", "160807.307500", "160808.797500", "160810.287500", "160811.777500", "160813.267500", "160814.757500", "160816.247500", "160817.737500", "160819.227500", "160820.717500", "160822.207500", "160823.697500", "160825.187500", "160826.677500", "160828.167500", "160829.657500", "160831.147500", "160832.637500", "160834.127500", "160835.617500", "160837.107500", "160838.597500", "160840.087500", "160841.577500", "160843.067500", "160844.557500", "160846.047500", "160847.537500", "160849.027500", "160850.517500", "160852.007500", "160853.497500", "160854.987500", "160856.477500", "160857.967500", "160859.457500", "160900.947500", "160902.437500", "160903.927500", "160905.417500", "160906.907500", "160908.397500", "160909.887500", "160911.377500", "160912.867500", "160914.357500", "160915.847500", "160917.337500", "160918.827500", "160920.317500", "160921.807500", "160923.297500", "160924.787500", "160926.277500", "160927.767500", "160929.257500", "160930.747500", "160932.237500", "160933.727500", "160935.217500", "160936.707500", "160938.197500", "160939.687500", "160941.177500", "160942.667500", "160944.157500", "160945.647500", "160947.137500", "160948.627500", "160950.117500", "160951.607500", "160953.097500", "160954.587500", "160956.077500", "160957.567500", "160959.057500", "161000.547500", "161002.037500", "161003.527500", "161005.017500", "161006.507500", "161007.997500", "161009.487500", "161010.977500", "161012.467500", "161013.957500", "161015.447500", "161016.937500", "161018.427500", "161019.917500", "161021.407500", "161022.897500", "161024.387500", "161025.877500", "161027.367500", "161028.857500", "161030.347500", "161031.837500", "161033.327500", "161034.817500", "161036.307500", "161037.797500", "161039.287500", "161040.777500", "161042.267500", "161043.757500", "161045.247500", "161046.737500", "161048.227500", "161049.717500", "161051.207500", "161052.697500", "161054.187500", "161055.677500", "161057.167500", "161058.657500", "161100.147500", "161101.637500", "161103.127500", "161104.617500", "161106.107500", "161107.597500", "161109.087500", "161110.577500", "161112.067500", "161113.557500", "161115.047500", "161116.537500", "161118.027500", "161119.517500", "161121.007500", "161122.497500", "161123.987500", "161125.477500", "161126.967500", "161128.457500", "161129.947500", "161131.437500", "161132.927500", "161134.417500", "161135.907500", "161137.397500", "161138.887500", "161140.377500", "161141.867500", "161143.357500", "161144.847500", "161146.337500", "161147.827500", "161149.317500", "161150.807500", "161152.297500", "161153.787500", "161155.277500", "161156.767500", "161158.257500", "161159.747500", "161201.237500", "161202.727500", "161204.217500", "161205.707500", "161207.197500", "161208.687500", "161210.177500", "161211.667500", "161213.157500", "161214.647500", "161216.137500", "161217.627500", "161219.117500", "161220.607500", "161222.097500", "161223.587500", "161225.077500", "161226.567500", "161228.057500", "161229.547500", "161231.037500", "161232.527500", "161234.017500", "161235.507500", "161236.997500", "161238.487500", "161239.977500", "161241.467500", "161242.957500", "161244.447500", "161245.937500", "161247.427500", "161248.917500", "161250.407500", "161251.897500", "161253.387500", "161254.877500", "161256.367500", "161257.857500", "161259.347500", "161300.837500", "161302.327500", "161303.817500", "161305.307500"],
      "ContentTime": ["160236.522000", "160236.526000", "160236.529000", "160236.533000", "160236.536000", "160236.539000", "160236.543000", "160236.546000", "160236.549000", "160236.552000", "160236.556000", "160236.559000", "160236.562000", "160236.566000", "160236.569000", "160236.572000", "160236.575000", "160236.581000", "160236.585000", "160236.588000", "160236.591000", "160236.595000", "160236.599000", "160236.603000", "160236.606000", "160236.609000", "160236.613000", "160236.616000", "160236.619000", "160236.623000", "160236.626000", "160236.629000", "160256.481000", "160256.485000", "160256.488000", "160256.491000", "160256.494000", "160256.498000", "160256.501000", "160256.504000", "160256.508000", "160256.525000", "160256.528000", "160256.531000", "160256.534000", "160256.538000", "160256.541000", "160256.545000", "160256.548000", "160256.551000", "160256.555000", "160256.558000", "160316.481000", "160316.490000", "160316.493000", "160316.497000", "160316.500000", "160316.503000", "160316.507000", "160316.510000", "160316.513000", "160316.517000", "160316.526000", "160316.529000", "160316.532000", "160316.536000", "160316.539000", "160316.543000", "160316.546000", "160316.549000", "160316.552000", "160316.556000", "160336.481000", "160336.485000", "160336.488000", "160336.491000", "160336.495000", "160336.498000", "160336.501000", "160336.504000", "160336.508000", "160336.511000", "160336.514000", "160336.517000", "160336.521000", "160336.524000", "160336.527000", "160336.531000", "160336.540000", "160336.543000", "160336.546000", "160336.549000", "160416.493000", "160416.497000", "160416.500000", "160416.503000", "160416.507000", "160416.510000", "160416.513000", "160416.517000", "160416.520000", "160416.524000", "160416.527000", "160416.530000", "160416.533000", "160416.537000", "160416.540000", "160416.543000", "160416.547000", "160416.550000", "160416.554000", "160416.557000", "160416.561000", "160416.565000", "160416.568000", "160416.572000", "160416.575000", "160416.578000", "160416.582000", "160416.585000", "160416.588000", "160416.592000", "160416.595000", "160416.598000", "160456.482000", "160456.486000", "160456.489000", "160456.492000", "160456.496000", "160456.499000", "160456.502000", "160456.505000", "160456.509000", "160456.512000", "160456.515000", "160456.519000", "160456.522000", "160456.525000", "160456.528000", "160456.532000", "160456.535000", "160456.538000", "160456.542000", "160456.545000", "160456.548000", "160456.552000", "160456.555000", "160456.558000", "160456.562000", "160456.565000", "160456.568000", "160536.481000", "160536.485000", "160536.488000", "160536.491000", "160536.495000", "160536.498000", "160536.501000", "160536.504000", "160536.508000", "160536.511000", "160536.514000", "160536.518000", "160536.521000", "160536.524000", "160536.528000", "160536.531000", "160536.534000", "160536.538000", "160536.541000", "160536.544000", "160536.547000", "160536.551000", "160536.554000", "160536.557000", "160536.561000", "160536.564000", "160536.567000", "160616.482000", "160616.486000", "160616.489000", "160616.492000", "160616.496000", "160616.499000", "160616.502000", "160616.505000", "160616.509000", "160616.512000", "160616.515000", "160616.519000", "160616.522000", "160616.525000", "160616.529000", "160616.532000", "160616.551000", "160616.555000", "160616.558000", "160616.561000", "160616.564000", "160616.568000", "160616.571000", "160616.574000", "160616.578000", "160616.581000", "160616.584000", "160656.482000", "160656.486000", "160656.489000", "160656.493000", "160656.496000", "160656.499000", "160656.503000", "160656.506000", "160656.509000", "160656.512000", "160656.516000", "160656.519000", "160656.522000", "160656.526000", "160656.529000", "160656.532000", "160656.535000", "160656.539000", "160656.542000", "160656.545000", "160656.549000", "160656.552000", "160656.555000", "160656.559000", "160656.563000", "160656.566000", "160656.569000", "160736.481000", "160736.485000", "160736.488000", "160736.491000", "160736.495000", "160736.498000", "160736.501000", "160736.504000", "160736.508000", "160736.511000", "160736.514000", "160736.517000", "160736.521000", "160736.524000", "160736.527000", "160736.531000", "160736.534000", "160736.537000", "160736.540000", "160736.544000", "160736.547000", "160736.550000", "160736.554000", "160736.557000", "160736.560000", "160736.563000", "160736.567000", "160816.481000", "160816.485000", "160816.488000", "160816.491000", "160816.494000", "160816.498000", "160816.501000", "160816.504000", "160816.508000", "160816.511000", "160816.514000", "160816.518000", "160816.521000", "160816.524000", "160816.528000", "160816.531000", "160816.534000", "160816.537000", "160816.541000", "160816.544000", "160816.547000", "160816.551000", "160816.554000", "160816.557000", "160816.561000", "160816.564000", "160816.567000", "160856.498000", "160856.501000", "160856.505000", "160856.508000", "160856.511000", "160856.514000", "160856.518000", "160856.521000", "160856.525000", "160856.528000", "160856.531000", "160856.534000", "160856.538000", "160856.541000", "160856.545000", "160856.549000", "160856.552000", "160856.555000", "160856.559000", "160856.562000", "160856.565000", "160856.569000", "160856.572000", "160856.575000", "160856.578000", "160856.582000", "160936.481000", "160936.485000", "160936.488000", "160936.491000", "160936.495000", "160936.498000", "160936.501000", "160936.504000", "160936.508000", "160936.511000", "160936.515000", "160936.518000", "160936.521000", "160936.524000", "160936.528000", "160936.531000", "160936.534000", "160936.538000", "160936.541000", "160936.544000", "160936.548000", "160936.551000", "160936.554000", "160936.557000", "160936.561000", "160936.564000", "160936.567000", "161016.481000", "161016.485000", "161016.488000", "161016.491000", "161016.495000", "161016.498000", "161016.501000", "161016.505000", "161016.508000", "161016.511000", "161016.515000", "161016.518000", "161016.521000", "161016.524000", "161016.528000", "161016.531000", "161016.534000", "161016.538000", "161016.541000", "161016.544000", "161016.548000", "161016.551000", "161016.554000", "161016.557000", "161016.561000", "161016.564000", "161016.568000", "161056.482000", "161056.486000", "161056.489000", "161056.492000", "161056.496000", "161056.499000", "161056.502000", "161056.506000", "161056.509000", "161056.513000", "161056.516000", "161056.519000", "161056.522000", "161056.526000", "161056.530000", "161056.534000", "161056.537000", "161056.540000", "161056.544000", "161056.547000", "161056.550000", "161056.554000", "161056.557000", "161056.567000", "161056.570000", "161056.573000", "161056.577000", "161136.482000", "161136.486000", "161136.489000", "161136.492000", "161136.496000", "161136.499000", "161136.502000", "161136.506000", "161136.509000", "161136.512000", "161136.515000", "161136.519000", "161136.522000", "161136.525000", "161136.529000", "161136.532000", "161136.535000", "161136.539000", "161136.542000", "161136.545000", "161136.548000", "161136.552000", "161136.555000", "161136.558000", "161136.562000", "161136.565000", "161136.568000", "161216.481000", "161216.485000", "161216.488000", "161216.491000", "161216.495000", "161216.498000", "161216.501000", "161216.504000", "161216.508000", "161216.511000", "161216.514000", "161216.518000", "161216.521000", "161216.524000", "161216.528000", "161216.531000", "161216.534000", "161216.537000", "161216.541000", "161216.544000", "161216.547000", "161216.551000", "161216.554000", "161216.557000", "161216.561000", "161216.564000", "161216.567000", "161256.482000", "161256.485000", "161256.489000", "161256.492000", "161256.495000", "161256.498000", "161256.502000", "161256.505000", "161256.508000", "161256.512000", "161256.515000", "161256.518000", "161256.522000", "161256.525000", "161256.528000", "161256.532000", "161256.535000", "161256.538000", "161256.542000", "161256.545000", "161256.549000", "161256.554000", "161256.557000", "161256.561000", "161256.565000", "161256.569000", "161307.232000", "161307.236000", "161307.239000", "161307.243000", "161307.246000", "161307.249000", "161307.252000", "161307.256000"],
