{
  "AcquisitionMatrixPE": 104,
  "AcquisitionNumber": 1,
  "AcquisitionTime": "15:48:58.152500",
  "BandwidthPerPixelPhaseEncode": 17.17,
  "BaseResolution": 104,
  "BodyPartExamined": "BRAIN",
  "CoilString": "HC1-7;NC1_2",
  "ConsistencyInfo": "N4_VE11C_LATEST_20160120",
  "ConversionSoftware": "dcm2niix",
  "ConversionSoftwareVersion": "v1.0.20190902",
  "DerivedVendorReportedEchoSpacing": 0.000560011,
  "DeviceSerialNumber": "167006",
  "DwellTime": 2.1e-06,
  "EchoTime": 0.037,
  "EchoTrainLength": 104,
  "EffectiveEchoSpacing": 0.000560011,
  "FlipAngle": 52,
  "HeudiconvVersion": "0.10.0",
  "ImageComments": "Unaliased_MB4_PE3_LB",
  "ImageOrientationPatientDICOM": [0.999747, -0.0223795, 0.0020809, 0.0218146, 0.94386, -0.329625],
  "ImageType": [
    "ORIGINAL",
    "PRIMARY",
    "M",
    "MB",
    "ND",
    "MOSAIC"
],
  "ImagingFrequency": 123.259,
  "InPlanePhaseEncodingDirectionDICOM": "COL",
  "InstitutionAddress": "Chemin_Queen-Mary_4565_Montreal_District_CA_H3W_1W5",
  "InstitutionName": "IUGM",
  "InstitutionalDepartmentName": "Department",
  "MRAcquisitionType": "2D",
  "MagneticFieldStrength": 3,
  "Manufacturer": "Siemens",
  "ManufacturersModelName": "Prisma_fit",
  "Modality": "MR",
  "MultibandAccelerationFactor": 4,
  "PartialFourier": 1,
  "PatientPosition": "HFS",
  "PercentPhaseFOV": 100,
  "PhaseEncodingDirection": "j",
  "PhaseEncodingSteps": 104,
  "PhaseResolution": 1,
  "PixelBandwidth": 2290,
  "ProcedureStepDescription": "games_mario",
  "ProtocolName": "func_task-mario_run-01",
  "PulseSequenceDetails": "%CustomerSeq%_cmrr_mbep2d_bold",
  "ReceiveCoilActiveElements": "HC1-7;NC1,2",
  "ReceiveCoilName": "HeadNeck_64",
  "ReconMatrixPE": 104,
  "RepetitionTime": 1.49,
  "SAR": 0.0462946,
  "ScanOptions": "FS",
  "ScanningSequence": "EP",
  "SequenceName": "epfid2d1_104",
  "SequenceVariant": "SK_SS",
  "SeriesDescription": "func_task-mario_run-01",
  "SeriesNumber": 10,
  "ShimSetting": [630, -7248, -8837, 590, 7, -205, -120, -18],
  "SliceThickness": 2,
  "SliceTiming": [0, 0.785, 0.1, 0.8825, 0.1975, 0.98, 0.295, 1.0775, 0.3925, 1.1775, 0.49, 1.275, 0.5875, 1.3725, 0.6875, 0, 0.785, 0.1, 0.8825, 0.1975, 0.98, 0.295, 1.0775, 0.3925, 1.1775, 0.49, 1.275, 0.5875, 1.3725, 0.6875, 0, 0.785, 0.1, 0.8825, 0.1975, 0.98, 0.295, 1.0775, 0.3925, 1.1775, 0.49, 1.275, 0.5875, 1.3725, 0.6875, 0, 0.785, 0.1, 0.8825, 0.1975, 0.98, 0.295, 1.0775, 0.3925, 1.1775, 0.49, 1.275, 0.5875, 1.3725, 0.6875],
  "SoftwareVersions": "syngo_MR_E11",
  "SpacingBetweenSlices": 2,
  "StationName": "MRC35049",
  "TaskName": "mario",
  "TotalReadoutTime": 0.0576811,
  "TxRefAmp": 255.261,
  "WipMemBlock": "41d24592-cc79-4f71-bc78-a5fd535ab18e||Sequence: R016 ve11c/master r/e634e98; Dec 19 2017 11:00:25 by eja",
  "dcmmeta_affine": [
    [-1.9994947910308838, 0.04362910985946655, -0.01082555204629898, 104.39545440673828],
    [0.04475903511047363, 1.8877196311950684, -0.6591745615005493, -68.04258728027344],
    [0.004161795601248741, 0.6592503190040588, 1.8882191181182861, -66.6522216796875],
    [0.0, 0.0, 0.0, 1.0]
],
  "dcmmeta_reorient_transform": [
    [0.0, -1.0, 0.0, 103.0],
    [1.0, 0.0, 0.0, 0.0],
    [0.0, 0.0, 1.0, 0.0],
    [0.0, 0.0, 0.0, 1.0]
],
  "dcmmeta_shape": [104, 104, 60, 433],
  "dcmmeta_slice_dim": 2,
  "dcmmeta_version": 0.6,
  "global": {
    "const": {
      "AcquisitionMatrix": [104, 0, 0, 104],
      "AngioFlag": "N",
      "BitsAllocated": 16,
      "BitsStored": 16,
      "BodyPartExamined": "BRAIN",
      "Columns": 832,
      "EchoNumbers": 1,
      "EchoTime": 37.0,
      "EchoTrainLength": 104,
      "FlipAngle": 52.0,
      "HighBit": 15,
      "ImageOrientationPatient": [0.99974738162179, -0.0223795175166, 0.00208089790662, 0.02181455469744, 0.94385983210683, -0.3296251545902],
      "ImagePositionPatient": [-852.5863413108, -797.23020404497, 239.70278042305],
      "ImageType": [
        "ORIGINAL",
        "PRIMARY",
        "M",
        "MB",
        "ND",
        "MOSAIC"
],
      "ImagedNucleus": "1H",
      "ImagingFrequency": 123.258872,
      "InPlanePhaseEncodingDirection": "COL",
      "MRAcquisitionType": "2D",
      "MagneticFieldStrength": 3.0,
      "Manufacturer": "SIEMENS",
      "ManufacturerModelName": "Prisma_fit",
      "Modality": "MR",
      "NumberOfAverages": 1.0,
      "NumberOfPhaseEncodingSteps": 104,
      "PercentPhaseFieldOfView": 100.0,
      "PercentSampling": 100.0,
      "PerformedProcedureStepStartTime": "154529.954000",
      "PhotometricInterpretation": "MONOCHROME2",
      "PixelBandwidth": 2290.0,
      "PixelRepresentation": 0,
      "PixelSpacing": [2.0, 2.0],
      "ProtocolName": "func_task-mario_run-01",
      "RepetitionTime": 1490.0,
      "Rows": 832,
      "SAR": 0.04629460455731,
      "SamplesPerPixel": 1,
      "ScanOptions": "FS",
      "ScanningSequence": "EP",
      "SequenceName": "epfid2d1_104",
      "SequenceVariant": [
        "SK",
        "SS"
],
      "SeriesDescription": "func_task-mario_run-01",
      "SeriesNumber": 10,
      "SeriesTime": "155020.055000",
      "SliceLocation": -41.066097673915,
      "SliceThickness": 2.0,
      "SmallestImagePixelValue": 0,
      "SoftwareVersions": "syngo MR E11",
      "SpacingBetweenSlices": 1.9999999576807,
      "SpecificCharacterSet": "ISO_IR 100",
      "StudyID": "1",
      "StudyTime": "154529.895000",
      "TransmitCoilName": "Body",
      "VariableFlipAngleFlag": "N",
      "WindowCenterWidthExplanation": "Algo1",
      "dBdt": 0.0},
    "slices": {}
  },
  "time": {
    "samples": {
      "AcquisitionNumber": [1, 2, 3, 4, 5, 6, 7, 8, 9, 10, 11, 12, 13, 14, 15, 16, 17, 18, 19, 20, 21, 22, 23, 24, 25, 26, 27, 28, 29, 30, 31, 32, 33, 34, 35, 36, 37, 38, 39, 40, 41, 42, 43, 44, 45, 46, 47, 48, 49, 50, 51, 52, 53, 54, 55, 56, 57, 58, 59, 60, 61, 62, 63, 64, 65, 66, 67, 68, 69, 70, 71, 72, 73, 74, 75, 76, 77, 78, 79, 80, 81, 82, 83, 84, 85, 86, 87, 88, 89, 90, 91, 92, 93, 94, 95, 96, 97, 98, 99, 100, 101, 102, 103, 104, 105, 106, 107, 108, 109, 110, 111, 112, 113, 114, 115, 116, 117, 118, 119, 120, 121, 122, 123, 124, 125, 126, 127, 128, 129, 130, 131, 132, 133, 134, 135, 136, 137, 138, 139, 140, 141, 142, 143, 144, 145, 146, 147, 148, 149, 150, 151, 152, 153, 154, 155, 156, 157, 158, 159, 160, 161, 162, 163, 164, 165, 166, 167, 168, 169, 170, 171, 172, 173, 174, 175, 176, 177, 178, 179, 180, 181, 182, 183, 184, 185, 186, 187, 188, 189, 190, 191, 192, 193, 194, 195, 196, 197, 198, 199, 200, 201, 202, 203, 204, 205, 206, 207, 208, 209, 210, 211, 212, 213, 214, 215, 216, 217, 218, 219, 220, 221, 222, 223, 224, 225, 226, 227, 228, 229, 230, 231, 232, 233, 234, 235, 236, 237, 238, 239, 240, 241, 242, 243, 244, 245, 246, 247, 248, 249, 250, 251, 252, 253, 254, 255, 256, 257, 258, 259, 260, 261, 262, 263, 264, 265, 266, 267, 268, 269, 270, 271, 272, 273, 274, 275, 276, 277, 278, 279, 280, 281, 282, 283, 284, 285, 286, 287, 288, 289, 290, 291, 292, 293, 294, 295, 296, 297, 298, 299, 300, 301, 302, 303, 304, 305, 306, 307, 308, 309, 310, 311, 312, 313, 314, 315, 316, 317, 318, 319, 320, 321, 322, 323, 324, 325, 326, 327, 328, 329, 330, 331, 332, 333, 334, 335, 336, 337, 338, 339, 340, 341, 342, 343, 344, 345, 346, 347, 348, 349, 350, 351, 352, 353, 354, 355, 356, 357, 358, 359, 360, 361, 362, 363, 364, 365, 366, 367, 368, 369, 370, 371, 372, 373, 374, 375, 376, 377, 378, 379, 380, 381, 382, 383, 384, 385, 386, 387, 388, 389, 390, 391, 392, 393, 394, 395, 396, 397, 398, 399, 400, 401, 402, 403, 404, 405, 406, 407, 408, 409, 410, 411, 412, 413, 414, 415, 416, 417, 418, 419, 420, 421, 422, 423, 424, 425, 426, 427, 428, 429, 430, 431, 432, 433],
      "AcquisitionTime": ["154858.152500", "154859.642500", "154901.132500", "154902.622500", "154904.112500", "154905.602500", "154907.092500", "154908.582500", "154910.072500", "154911.562500", "154913.052500", "154914.542500", "154916.032500", "154917.522500", "154919.012500", "154920.502500", "154921.992500", "154923.482500", "154924.972500", "154926.462500", "154927.952500", "154929.442500", "154930.932500", "154932.422500", "154933.912500", "154935.402500", "154936.892500", "154938.382500", "154939.872500", "154941.362500", "154942.852500", "154944.342500", "154945.832500", "154947.322500", "154948.812500", "154950.302500", "154951.792500", "154953.282500", "154954.772500", "154956.262500", "154957.752500", "154959.242500", "155000.732500", "155002.222500", "155003.712500", "155005.202500", "155006.692500", "155008.182500", "155009.672500", "155011.162500", "155012.652500", "155014.142500", "155015.632500", "155017.122500", "155018.612500", "155020.102500", "155021.592500", "155023.082500", "155024.572500", "155026.062500", "155027.552500", "155029.042500", "155030.532500", "155032.022500", "155033.512500", "155035.002500", "155036.492500", "155037.982500", "155039.472500", "155040.962500", "155042.452500", "155043.942500", "155045.432500", "155046.922500", "155048.412500", "155049.902500", "155051.392500", "155052.882500", "155054.372500", "155055.862500", "155057.352500", "155058.842500", "155100.332500", "155101.822500", "155103.312500", "155104.802500", "155106.292500", "155107.782500", "155109.272500", "155110.762500", "155112.252500", "155113.742500", "155115.232500", "155116.722500", "155118.212500", "155119.702500", "155121.192500", "155122.682500", "155124.172500", "155125.662500", "155127.152500", "155128.642500", "155130.132500", "155131.622500", "155133.112500", "155134.602500", "155136.092500", "155137.582500", "155139.072500", "155140.562500", "155142.052500", "155143.542500", "155145.032500", "155146.522500", "155148.012500", "155149.502500", "155150.992500", "155152.482500", "155153.972500", "155155.462500", "155156.952500", "155158.442500", "155159.932500", "155201.422500", "155202.912500", "155204.402500", "155205.892500", "155207.382500", "155208.872500", "155210.362500", "155211.852500", "155213.342500", "155214.832500", "155216.322500", "155217.812500", "155219.302500", "155220.792500", "155222.282500", "155223.772500", "155225.262500", "155226.752500", "155228.242500", "155229.732500", "155231.222500", "155232.712500", "155234.202500", "155235.692500", "155237.182500", "155238.672500", "155240.162500", "155241.652500", "155243.142500", "155244.632500", "155246.122500", "155247.612500", "155249.102500", "155250.592500", "155252.082500", "155253.572500", "155255.062500", "155256.552500", "155258.042500", "155259.532500", "155301.022500", "155302.512500", "155304.002500", "155305.492500", "155306.982500", "155308.472500", "155309.962500", "155311.452500", "155312.942500", "155314.432500", "155315.922500", "155317.412500", "155318.902500", "155320.392500", "155321.882500", "155323.372500", "155324.862500", "155326.352500", "155327.842500", "155329.332500", "155330.822500", "155332.312500", "155333.802500", "155335.292500", "155336.782500", "155338.272500", "155339.762500", "155341.252500", "155342.742500", "155344.232500", "155345.722500", "155347.212500", "155348.702500", "155350.192500", "155351.682500", "155353.172500", "155354.662500", "155356.152500", "155357.642500", "155359.132500", "155400.622500", "155402.112500", "155403.602500", "155405.092500", "155406.582500", "155408.072500", "155409.562500", "155411.052500", "155412.542500", "155414.032500", "155415.522500", "155417.012500", "155418.502500", "155419.992500", "155421.482500", "155422.972500", "155424.462500", "155425.952500", "155427.442500", "155428.932500", "155430.422500", "155431.912500", "155433.402500", "155434.892500", "155436.382500", "155437.872500", "155439.362500", "155440.852500", "155442.342500", "155443.832500", "155445.322500", "155446.812500", "155448.302500", "155449.792500", "155451.282500", "155452.772500", "155454.262500", "155455.752500", "155457.242500", "155458.732500", "155500.222500", "155501.712500", "155503.202500", "155504.692500", "155506.182500", "155507.672500", "155509.162500", "155510.652500", "155512.142500", "155513.632500", "155515.122500", "155516.612500", "155518.102500", "155519.592500", "155521.082500", "155522.572500", "155524.062500", "155525.552500", "155527.042500", "155528.532500", "155530.022500", "155531.512500", "155533.002500", "155534.492500", "155535.982500", "155537.472500", "155538.962500", "155540.452500", "155541.942500", "155543.432500", "155544.922500", "155546.412500", "155547.902500", "155549.392500", "155550.882500", "155552.372500", "155553.862500", "155555.352500", "155556.842500", "155558.332500", "155559.822500", "155601.312500", "155602.802500", "155604.292500", "155605.782500", "155607.272500", "155608.762500", "155610.252500", "155611.742500", "155613.232500", "155614.722500", "155616.212500", "155617.702500", "155619.192500", "155620.682500", "155622.172500", "155623.662500", "155625.152500", "155626.642500", "155628.132500", "155629.622500", "155631.112500", "155632.602500", "155634.092500", "155635.582500", "155637.072500", "155638.562500", "155640.052500", "155641.542500", "155643.032500", "155644.522500", "155646.012500", "155647.502500", "155648.992500", "155650.482500", "155651.972500", "155653.462500", "155654.952500", "155656.442500", "155657.932500", "155659.422500", "155700.912500", "155702.402500", "155703.892500", "155705.382500", "155706.872500", "155708.362500", "155709.852500", "155711.342500", "155712.832500", "155714.322500", "155715.812500", "155717.302500", "155718.792500", "155720.282500", "155721.772500", "155723.262500", "155724.752500", "155726.242500", "155727.732500", "155729.222500", "155730.712500", "155732.202500", "155733.692500", "155735.182500", "155736.672500", "155738.162500", "155739.652500", "155741.142500", "155742.632500", "155744.122500", "155745.612500", "155747.102500", "155748.592500", "155750.082500", "155751.572500", "155753.062500", "155754.552500", "155756.042500", "155757.532500", "155759.022500", "155800.512500", "155802.002500", "155803.492500", "155804.982500", "155806.472500", "155807.962500", "155809.452500", "155810.942500", "155812.432500", "155813.922500", "155815.412500", "155816.902500", "155818.392500", "155819.882500", "155821.372500", "155822.862500", "155824.352500", "155825.842500", "155827.332500", "155828.822500", "155830.312500", "155831.802500", "155833.292500", "155834.782500", "155836.272500", "155837.762500", "155839.252500", "155840.742500", "155842.232500", "155843.722500", "155845.212500", "155846.702500", "155848.192500", "155849.682500", "155851.172500", "155852.662500", "155854.152500", "155855.642500", "155857.132500", "155858.622500", "155900.112500", "155901.602500", "155903.092500", "155904.582500", "155906.072500", "155907.562500", "155909.052500", "155910.542500", "155912.032500", "155913.522500", "155915.012500", "155916.502500", "155917.992500", "155919.482500", "155920.972500", "155922.462500", "155923.952500", "155925.442500", "155926.932500", "155928.422500", "155929.912500", "155931.402500", "155932.892500", "155934.382500", "155935.872500", "155937.362500", "155938.852500", "155940.342500", "155941.832500"],
      "ContentTime": ["155020.059000", "155020.062000", "155020.066000", "155020.069000", "155020.072000", "155020.076000", "155020.079000", "155020.082000", "155020.086000", "155020.089000", "155020.092000", "155020.095000", "155020.099000", "155020.102000", "155020.105000", "155020.109000", "155020.112000", "155020.115000", "155020.130000", "155020.134000", "155020.137000", "155020.140000", "155020.144000", "155020.147000", "155020.150000", "155020.153000", "155020.157000", "155020.160000", "155040.021000", "155040.025000", "155040.028000", "155040.031000", "155040.035000", "155040.038000", "155040.041000", "155040.044000", "155040.048000", "155040.051000", "155040.054000", "155040.057000", "155040.061000", "155040.064000", "155040.067000", "155040.070000", "155040.078000", "155040.082000", "155040.085000", "155040.088000", "155100.021000", "155100.025000", "155100.028000", "155100.032000", "155100.036000", "155100.039000", "155100.042000", "155100.045000", "155100.049000", "155100.052000", "155100.055000", "155100.059000", "155100.062000", "155100.071000", "155100.075000", "155100.078000", "155100.081000", "155100.085000", "155100.098000", "155100.101000", "155120.020000", "155120.024000", "155120.027000", "155120.030000", "155120.034000", "155120.037000", "155120.040000", "155120.044000", "155120.047000", "155120.050000", "155120.054000", "155120.057000", "155120.060000", "155120.063000", "155120.067000", "155120.070000", "155120.073000", "155120.077000", "155120.080000", "155120.083000", "155200.021000", "155200.025000", "155200.028000", "155200.032000", "155200.035000", "155200.038000", "155200.042000", "155200.045000", "155200.049000", "155200.052000", "155200.056000", "155200.059000", "155200.062000", "155200.066000", "155200.069000", "155200.072000", "155200.076000", "155200.079000", "155200.082000", "155200.086000", "155200.089000", "155200.092000", "155200.096000", "155200.099000", "155200.102000", "155200.105000", "155200.109000", "155200.112000", "155200.115000", "155200.119000", "155200.122000", "155200.125000", "155200.129000", "155240.021000", "155240.025000", "155240.028000", "155240.032000", "155240.035000", "155240.038000", "155240.041000", "155240.045000", "155240.048000", "155240.051000", "155240.055000", "155240.058000", "155240.061000", "155240.064000", "155240.068000", "155240.071000", "155240.074000", "155240.078000", "155240.081000", "155240.084000", "155240.088000", "155240.091000", "155240.094000", "155240.097000", "155240.101000", "155240.104000", "155240.107000", "155320.021000", "155320.025000", "155320.028000", "155320.031000", "155320.035000", "155320.038000", "155320.041000", "155320.045000", "155320.048000", "155320.052000", "155320.055000", "155320.058000", "155320.062000", "155320.065000", "155320.068000", "155320.085000", "155320.088000", "155320.092000", "155320.095000", "155320.098000", "155320.101000", "155320.105000", "155320.108000", "155320.111000", "155320.115000", "155320.118000", "155320.121000", "155340.020000", "155340.024000", "155340.027000", "155340.030000", "155340.034000", "155340.037000", "155340.040000", "155340.044000", "155340.047000", "155340.050000", "155340.054000", "155340.057000", "155340.075000", "155420.021000", "155420.025000", "155420.028000", "155420.031000", "155420.035000", "155420.038000", "155420.041000", "155420.045000", "155420.048000", "155420.051000", "155420.055000", "155420.058000", "155420.061000", "155420.065000", "155420.068000", "155420.071000", "155420.075000", "155420.078000", "155420.081000", "155420.085000", "155420.088000", "155420.091000", "155420.094000", "155420.098000", "155420.101000", "155420.104000", "155420.108000", "155500.021000", "155500.025000", "155500.028000", "155500.031000", "155500.035000", "155500.038000", "155500.041000", "155500.045000", "155500.048000", "155500.051000", "155500.055000", "155500.058000", "155500.061000", "155500.065000", "155500.068000", "155500.071000", "155500.075000", "155500.078000", "155500.081000", "155500.084000", "155500.088000", "155500.092000", "155500.095000", "155500.099000", "155500.102000", "155500.105000", "155500.109000", "155540.021000", "155540.025000", "155540.028000", "155540.032000", "155540.035000", "155540.039000", "155540.044000", "155540.048000", "155540.051000", "155540.055000", "155540.058000", "155540.062000", "155540.079000", "155540.082000", "155540.086000", "155540.089000", "155540.092000", "155540.096000", "155540.099000", "155540.102000", "155540.106000", "155540.109000", "155540.112000", "155540.116000", "155540.119000", "155540.122000", "155620.020000", "155620.024000", "155620.027000", "155620.031000", "155620.034000", "155620.037000", "155620.041000", "155620.044000", "155620.047000", "155620.051000", "155620.054000", "155620.057000", "155620.061000", "155620.064000", "155620.067000", "155620.070000", "155620.074000", "155620.077000", "155620.080000", "155620.084000", "155620.087000", "155620.090000", "155620.094000", "155620.097000", "155620.100000", "155620.103000", "155620.107000", "155700.021000", "155700.025000", "155700.028000", "155700.048000", "155700.052000", "155700.055000", "155700.058000", "155700.062000", "155700.065000", "155700.068000", "155700.072000", "155700.075000", "155700.079000", "155700.082000", "155700.085000", "155700.089000", "155700.092000", "155700.095000", "155700.099000", "155700.102000", "155700.105000", "155700.109000", "155700.112000", "155700.115000", "155700.119000", "155700.122000", "155700.125000", "155740.021000", "155740.025000", "155740.028000", "155740.032000", "155740.035000", "155740.038000", "155740.042000", "155740.045000", "155740.048000", "155740.052000", "155740.055000", "155740.059000", "155740.062000", "155740.066000", "155740.069000", "155740.072000", "155740.075000", "155740.079000", "155740.082000", "155740.085000", "155740.089000", "155740.092000", "155740.095000", "155740.099000", "155740.102000", "155740.115000", "155740.118000", "155820.020000", "155820.024000", "155820.028000", "155820.031000", "155820.034000", "155820.038000", "155820.041000", "155820.045000", "155820.049000", "155820.052000", "155820.056000", "155820.059000", "155820.063000", "155820.066000", "155820.069000", "155820.072000", "155820.076000", "155820.079000", "155820.083000", "155820.086000", "155820.089000", "155820.093000", "155820.096000", "155820.099000", "155820.103000", "155820.106000", "155820.109000", "155900.021000", "155900.025000", "155900.029000", "155900.032000", "155900.035000", "155900.039000", "155900.042000", "155900.045000", "155900.049000", "155900.052000", "155900.055000", "155900.059000", "155900.062000", "155900.065000", "155900.069000", "155900.072000", "155900.075000", "155900.078000", "155900.082000", "155900.085000", "155900.088000", "155900.092000", "155900.095000", "155900.098000", "155900.102000", "155900.105000", "155900.108000", "155940.021000", "155940.025000", "155940.028000", "155940.031000", "155940.035000", "155940.038000", "155940.041000", "155940.045000", "155940.048000", "155940.051000", "155940.055000", "155940.068000", "155940.071000", "155940.075000", "155940.078000", "155940.082000", "155940.085000", "155940.089000", "155940.092000", "155940.096000", "155940.099000", "155940.102000", "155940.106000", "155940.109000", "155940.112000", "155940.116000", "155940.119000", "155944.538000", "155944.542000", "155944.545000"],
      "InstanceCreationTime": ["155020.059000", "155020.062000", "155020.066000", "155020.069000", "155020.072000", "155020.076000", "155020.079000", "155020.082000", "155020.086000", "155020.089000", "155020.092000", "155020.095000", "155020.099000", "155020.102000", "155020.105000", "155020.109000", "155020.112000", "155020.115000", "155020.130000", "155020.134000", "155020.137000", "155020.140000", "155020.144000", "155020.147000", "155020.150000", "155020.153000", "155020.157000", "155020.160000", "155040.021000", "155040.025000", "155040.028000", "155040.031000", "155040.035000", "155040.038000", "155040.041000", "155040.044000", "155040.048000", "155040.051000", "155040.054000", "155040.057000", "155040.061000", "155040.064000", "155040.067000", "155040.070000", "155040.078000", "155040.082000", "155040.085000", "155040.088000", "155100.021000", "155100.025000", "155100.028000", "155100.032000", "155100.036000", "155100.039000", "155100.042000", "155100.045000", "155100.049000", "155100.052000", "155100.055000", "155100.059000", "155100.062000", "155100.071000", "155100.075000", "155100.078000", "155100.081000", "155100.085000", "155100.098000", "155100.101000", "155120.020000", "155120.024000", "155120.027000", "155120.030000", "155120.034000", "155120.037000", "155120.040000", "155120.044000", "155120.047000", "155120.050000", "155120.054000", "155120.057000", "155120.060000", "155120.063000", "155120.067000", "155120.070000", "155120.073000", "155120.077000", "155120.080000", "155120.083000", "155200.021000", "155200.025000", "155200.028000", "155200.032000", "155200.035000", "155200.038000", "155200.042000", "155200.045000", "155200.049000", "155200.052000", "155200.056000", "155200.059000", "155200.062000", "155200.066000", "155200.069000", "155200.072000", "155200.076000", "155200.079000", "155200.082000", "155200.086000", "155200.089000", "155200.092000", "155200.096000", "155200.099000", "155200.102000", "155200.105000", "155200.109000", "155200.112000", "155200.115000", "155200.119000", "155200.122000", "155200.125000", "155200.129000", "155240.021000", "155240.025000", "155240.028000", "155240.032000", "155240.035000", "155240.038000", "155240.041000", "155240.045000", "155240.048000", "155240.051000", "155240.055000", "155240.058000", "155240.061000", "155240.064000", "155240.068000", "155240.071000", "155240.074000", "155240.078000", "155240.081000", "155240.084000", "155240.088000", "155240.091000", "155240.094000", "155240.097000", "155240.101000", "155240.104000", "155240.107000", "155320.021000", "155320.025000", "155320.028000", "155320.031000", "155320.035000", "155320.038000", "155320.041000", "155320.045000", "155320.048000", "155320.052000", "155320.055000", "155320.058000", "155320.062000", "155320.065000", "155320.068000", "155320.085000", "155320.088000", "155320.092000", "155320.095000", "155320.098000", "155320.101000", "155320.105000", "155320.108000", "155320.111000", "155320.115000", "155320.118000", "155320.121000", "155340.020000", "155340.024000", "155340.027000", "155340.030000", "155340.034000", "155340.037000", "155340.040000", "155340.044000", "155340.047000", "155340.050000", "155340.054000", "155340.057000", "155340.075000", "155420.021000", "155420.025000", "155420.028000", "155420.031000", "155420.035000", "155420.038000", "155420.041000", "155420.045000", "155420.048000", "155420.051000", "155420.055000", "155420.058000", "155420.061000", "155420.065000", "155420.068000", "155420.071000", "155420.075000", "155420.078000", "155420.081000", "155420.085000", "155420.088000", "155420.091000", "155420.094000", "155420.098000", "155420.101000", "155420.104000", "155420.108000", "155500.021000", "155500.025000", "155500.028000", "155500.031000", "155500.035000", "155500.038000", "155500.041000", "155500.045000", "155500.048000", "155500.051000", "155500.055000", "155500.058000", "155500.061000", "155500.065000", "155500.068000", "155500.071000", "155500.075000", "155500.078000", "155500.081000", "155500.084000", "155500.088000", "155500.092000", "155500.095000", "155500.099000", "155500.102000", "155500.105000", "155500.109000", "155540.021000", "155540.025000", "155540.028000", "155540.032000", "155540.035000", "155540.039000", "155540.044000", "155540.048000", "155540.051000", "155540.055000", "155540.058000", "155540.062000", "155540.079000", "155540.082000", "155540.086000", "155540.089000", "155540.092000", "155540.096000", "155540.099000", "155540.102000", "155540.106000", "155540.109000", "155540.112000", "155540.116000", "155540.119000", "155540.122000", "155620.020000", "155620.024000", "155620.027000", "155620.031000", "155620.034000", "155620.037000", "155620.041000", "155620.044000", "155620.047000", "155620.051000", "155620.054000", "155620.057000", "155620.061000", "155620.064000", "155620.067000", "155620.070000", "155620.074000", "155620.077000", "155620.080000", "155620.084000", "155620.087000", "155620.090000", "155620.094000", "155620.097000", "155620.100000", "155620.103000", "155620.107000", "155700.021000", "155700.025000", "155700.028000", "155700.048000", "155700.052000", "155700.055000", "155700.058000", "155700.062000", "155700.065000", "155700.068000", "155700.072000", "155700.075000", "155700.079000", "155700.082000", "155700.085000", "155700.089000", "155700.092000", "155700.095000", "155700.099000", "155700.102000", "155700.105000", "155700.109000", "155700.112000", "155700.115000", "155700.119000", "155700.122000", "155700.125000", "155740.021000", "155740.025000", "155740.028000", "155740.032000", "155740.035000", "155740.038000", "155740.042000", "155740.045000", "155740.048000", "155740.052000", "155740.055000", "155740.059000", "155740.062000", "155740.066000", "155740.069000", "155740.072000", "155740.075000", "155740.079000", "155740.082000", "155740.085000", "155740.089000", "155740.092000", "155740.095000", "155740.099000", "155740.102000", "155740.115000", "155740.118000", "155820.020000", "155820.024000", "155820.028000", "155820.031000", "155820.034000", "155820.038000", "155820.041000", "155820.045000", "155820.049000", "155820.052000", "155820.056000", "155820.059000", "155820.063000", "155820.066000", "155820.069000", "155820.072000", "155820.076000", "155820.079000", "155820.083000", "155820.086000", "155820.089000", "155820.093000", "155820.096000", "155820.099000", "155820.103000", "155820.106000", "155820.109000", "155900.021000", "155900.025000", "155900.029000", "155900.032000", "155900.035000", "155900.039000", "155900.042000", "155900.045000", "155900.049000", "155900.052000", "155900.055000", "155900.059000", "155900.062000", "155900.065000", "155900.069000", "155900.072000", "155900.075000", "155900.078000", "155900.082000", "155900.085000", "155900.088000", "155900.092000", "155900.095000", "155900.098000", "155900.102000", "155900.105000", "155900.108000", "155940.021000", "155940.025000", "155940.028000", "155940.031000", "155940.035000", "155940.038000", "155940.041000", "155940.045000", "155940.048000", "155940.051000", "155940.055000", "155940.068000", "155940.071000", "155940.075000", "155940.078000", "155940.082000", "155940.085000", "155940.089000", "155940.092000", "155940.096000", "155940.099000", "155940.102000", "155940.106000", "155940.109000", "155940.112000", "155940.116000", "155940.119000", "155944.538000", "155944.542000", "155944.545000"],
