{
  "AcquisitionMatrixPE": 104,
  "AcquisitionNumber": 1,
  "AcquisitionTime": "16:14:31.445000",
  "BandwidthPerPixelPhaseEncode": 17.17,
  "BaseResolution": 104,
  "BodyPartExamined": "BRAIN",
  "CoilString": "HC1-7;NC1_2",
  "ConsistencyInfo": "N4_VE11C_LATEST_20160120",
  "ConversionSoftware": "dcm2niix",
  "ConversionSoftwareVersion": "v1.0.20190902",
  "DerivedVendorReportedEchoSpacing": 0.000560011,
  "DeviceSerialNumber": "167006",
  "DwellTime": 2.1e-06,
  "EchoTime": 0.037,
  "EchoTrainLength": 104,
  "EffectiveEchoSpacing": 0.000560011,
  "FlipAngle": 52,
  "HeudiconvVersion": "0.10.0",
  "ImageComments": "Unaliased_MB4_PE3_LB",
  "ImageOrientationPatientDICOM": [0.999747, -0.0223795, 0.0020809, 0.0218146, 0.94386, -0.329625],
  "ImageType": [
    "ORIGINAL",
    "PRIMARY",
    "M",
    "MB",
    "ND",
    "MOSAIC"
],
  "ImagingFrequency": 123.259,
  "InPlanePhaseEncodingDirectionDICOM": "COL",
  "InstitutionAddress": "Chemin_Queen-Mary_4565_Montreal_District_CA_H3W_1W5",
  "InstitutionName": "IUGM",
  "InstitutionalDepartmentName": "Department",
  "MRAcquisitionType": "2D",
  "MagneticFieldStrength": 3,
  "Manufacturer": "Siemens",
  "ManufacturersModelName": "Prisma_fit",
  "Modality": "MR",
  "MultibandAccelerationFactor": 4,
  "PartialFourier": 1,
  "PatientPosition": "HFS",
  "PercentPhaseFOV": 100,
  "PhaseEncodingDirection": "j",
  "PhaseEncodingSteps": 104,
  "PhaseResolution": 1,
  "PixelBandwidth": 2290,
  "ProcedureStepDescription": "games_mario",
  "ProtocolName": "func_task-mario_run-03",
  "PulseSequenceDetails": "%CustomerSeq%_cmrr_mbep2d_bold",
  "ReceiveCoilActiveElements": "HC1-7;NC1,2",
  "ReceiveCoilName": "HeadNeck_64",
  "ReconMatrixPE": 104,
  "RepetitionTime": 1.49,
  "SAR": 0.0462946,
  "ScanOptions": "FS",
  "ScanningSequence": "EP",
  "SequenceName": "epfid2d1_104",
  "SequenceVariant": "SK_SS",
  "SeriesDescription": "func_task-mario_run-03",
  "SeriesNumber": 16,
  "ShimSetting": [630, -7248, -8837, 590, 7, -205, -120, -18],
  "SliceThickness": 2,
  "SliceTiming": [0, 0.7825, 0.0975, 0.8825, 0.195, 0.98, 0.295, 1.0775, 0.3925, 1.175, 0.49, 1.2725, 0.5875, 1.3725, 0.685, 0, 0.7825, 0.0975, 0.8825, 0.195, 0.98, 0.295, 1.0775, 0.3925, 1.175, 0.49, 1.2725, 0.5875, 1.3725, 0.685, 0, 0.7825, 0.0975, 0.8825, 0.195, 0.98, 0.295, 1.0775, 0.3925, 1.175, 0.49, 1.2725, 0.5875, 1.3725, 0.685, 0, 0.7825, 0.0975, 0.8825, 0.195, 0.98, 0.295, 1.0775, 0.3925, 1.175, 0.49, 1.2725, 0.5875, 1.3725, 0.685],
  "SoftwareVersions": "syngo_MR_E11",
  "SpacingBetweenSlices": 2,
  "StationName": "MRC35049",
  "TaskName": "mario",
  "TotalReadoutTime": 0.0576811,
  "TxRefAmp": 255.261,
  "WipMemBlock": "b46f03d8-33b7-485a-bd3f-235c0769b64e||Sequence: R016 ve11c/master r/e634e98; Dec 19 2017 11:00:25 by eja",
  "dcmmeta_affine": [
    [-1.9994947910308838, 0.04362910985946655, -0.01082555204629898, 104.39545440673828],
    [0.04475903511047363, 1.8877196311950684, -0.6591745615005493, -68.04258728027344],
    [0.004161795601248741, 0.6592503190040588, 1.8882191181182861, -66.6522216796875],
    [0.0, 0.0, 0.0, 1.0]
],
  "dcmmeta_reorient_transform": [
    [0.0, -1.0, 0.0, 103.0],
    [1.0, 0.0, 0.0, 0.0],
    [0.0, 0.0, 1.0, 0.0],
    [0.0, 0.0, 0.0, 1.0]
],
  "dcmmeta_shape": [104, 104, 60, 467],
  "dcmmeta_slice_dim": 2,
  "dcmmeta_version": 0.6,
  "global": {
    "const": {
      "AcquisitionMatrix": [104, 0, 0, 104],
      "AngioFlag": "N",
      "BitsAllocated": 16,
      "BitsStored": 16,
      "BodyPartExamined": "BRAIN",
      "Columns": 832,
      "EchoNumbers": 1,
      "EchoTime": 37.0,
      "EchoTrainLength": 104,
      "FlipAngle": 52.0,
      "HighBit": 15,
      "ImageOrientationPatient": [0.99974738162179, -0.0223795175166, 0.00208089790662, 0.02181455469744, 0.94385983210683, -0.3296251545902],
      "ImagePositionPatient": [-852.5863413108, -797.23020404497, 239.70278042305],
      "ImageType": [
        "ORIGINAL",
        "PRIMARY",
        "M",
        "MB",
        "ND",
        "MOSAIC"
],
      "ImagedNucleus": "1H",
      "ImagingFrequency": 123.258886,
      "InPlanePhaseEncodingDirection": "COL",
      "MRAcquisitionType": "2D",
      "MagneticFieldStrength": 3.0,
      "Manufacturer": "SIEMENS",
      "ManufacturerModelName": "Prisma_fit",
      "Modality": "MR",
      "NumberOfAverages": 1.0,
      "NumberOfPhaseEncodingSteps": 104,
      "PercentPhaseFieldOfView": 100.0,
      "PercentSampling": 100.0,
      "PerformedProcedureStepStartTime": "154529.954000",
      "PhotometricInterpretation": "MONOCHROME2",
      "PixelBandwidth": 2290.0,
      "PixelRepresentation": 0,
      "PixelSpacing": [2.0, 2.0],
      "ProtocolName": "func_task-mario_run-03",
      "RepetitionTime": 1490.0,
      "Rows": 832,
      "SAR": 0.04629460455731,
      "SamplesPerPixel": 1,
      "ScanOptions": "FS",
      "ScanningSequence": "EP",
      "SequenceName": "epfid2d1_104",
      "SequenceVariant": [
        "SK",
        "SS"
],
      "SeriesDescription": "func_task-mario_run-03",
      "SeriesNumber": 16,
      "SeriesTime": "161546.977000",
      "SliceLocation": -41.066097673915,
      "SliceThickness": 2.0,
      "SmallestImagePixelValue": 0,
      "SoftwareVersions": "syngo MR E11",
      "SpacingBetweenSlices": 1.9999999576807,
      "SpecificCharacterSet": "ISO_IR 100",
      "StudyID": "1",
      "StudyTime": "154529.895000",
      "TransmitCoilName": "Body",
      "VariableFlipAngleFlag": "N",
      "WindowCenterWidthExplanation": "Algo1",
      "dBdt": 0.0},
    "slices": {}
  },
  "time": {
    "samples": {
      "AcquisitionNumber": [1, 2, 3, 4, 5, 6, 7, 8, 9, 10, 11, 12, 13, 14, 15, 16, 17, 18, 19, 20, 21, 22, 23, 24, 25, 26, 27, 28, 29, 30, 31, 32, 33, 34, 35, 36, 37, 38, 39, 40, 41, 42, 43, 44, 45, 46, 47, 48, 49, 50, 51, 52, 53, 54, 55, 56, 57, 58, 59, 60, 61, 62, 63, 64, 65, 66, 67, 68, 69, 70, 71, 72, 73, 74, 75, 76, 77, 78, 79, 80, 81, 82, 83, 84, 85, 86, 87, 88, 89, 90, 91, 92, 93, 94, 95, 96, 97, 98, 99, 100, 101, 102, 103, 104, 105, 106, 107, 108, 109, 110, 111, 112, 113, 114, 115, 116, 117, 118, 119, 120, 121, 122, 123, 124, 125, 126, 127, 128, 129, 130, 131, 132, 133, 134, 135, 136, 137, 138, 139, 140, 141, 142, 143, 144, 145, 146, 147, 148, 149, 150, 151, 152, 153, 154, 155, 156, 157, 158, 159, 160, 161, 162, 163, 164, 165, 166, 167, 168, 169, 170, 171, 172, 173, 174, 175, 176, 177, 178, 179, 180, 181, 182, 183, 184, 185, 186, 187, 188, 189, 190, 191, 192, 193, 194, 195, 196, 197, 198, 199, 200, 201, 202, 203, 204, 205, 206, 207, 208, 209, 210, 211, 212, 213, 214, 215, 216, 217, 218, 219, 220, 221, 222, 223, 224, 225, 226, 227, 228, 229, 230, 231, 232, 233, 234, 235, 236, 237, 238, 239, 240, 241, 242, 243, 244, 245, 246, 247, 248, 249, 250, 251, 252, 253, 254, 255, 256, 257, 258, 259, 260, 261, 262, 263, 264, 265, 266, 267, 268, 269, 270, 271, 272, 273, 274, 275, 276, 277, 278, 279, 280, 281, 282, 283, 284, 285, 286, 287, 288, 289, 290, 291, 292, 293, 294, 295, 296, 297, 298, 299, 300, 301, 302, 303, 304, 305, 306, 307, 308, 309, 310, 311, 312, 313, 314, 315, 316, 317, 318, 319, 320, 321, 322, 323, 324, 325, 326, 327, 328, 329, 330, 331, 332, 333, 334, 335, 336, 337, 338, 339, 340, 341, 342, 343, 344, 345, 346, 347, 348, 349, 350, 351, 352, 353, 354, 355, 356, 357, 358, 359, 360, 361, 362, 363, 364, 365, 366, 367, 368, 369, 370, 371, 372, 373, 374, 375, 376, 377, 378, 379, 380, 381, 382, 383, 384, 385, 386, 387, 388, 389, 390, 391, 392, 393, 394, 395, 396, 397, 398, 399, 400, 401, 402, 403, 404, 405, 406, 407, 408, 409, 410, 411, 412, 413, 414, 415, 416, 417, 418, 419, 420, 421, 422, 423, 424, 425, 426, 427, 428, 429, 430, 431, 432, 433, 434, 435, 436, 437, 438, 439, 440, 441, 442, 443, 444, 445, 446, 447, 448, 449, 450, 451, 452, 453, 454, 455, 456, 457, 458, 459, 460, 461, 462, 463, 464, 465, 466, 467],
      "AcquisitionTime": ["161431.445000", "161432.935000", "161434.425000", "161435.915000", "161437.405000", "161438.895000", "161440.385000", "161441.875000", "161443.365000", "161444.855000", "161446.345000", "161447.835000", "161449.325000", "161450.815000", "161452.305000", "161453.795000", "161455.285000", "161456.775000", "161458.265000", "161459.755000", "161501.245000", "161502.735000", "161504.225000", "161505.715000", "161507.205000", "161508.695000", "161510.185000", "161511.675000", "161513.165000", "161514.655000", "161516.145000", "161517.635000", "161519.125000", "161520.615000", "161522.105000", "161523.595000", "161525.085000", "161526.575000", "161528.065000", "161529.555000", "161531.045000", "161532.535000", "161534.025000", "161535.515000", "161537.005000", "161538.495000", "161539.985000", "161541.475000", "161542.965000", "161544.455000", "161545.945000", "161547.435000", "161548.925000", "161550.415000", "161551.905000", "161553.395000", "161554.885000", "161556.375000", "161557.865000", "161559.355000", "161600.845000", "161602.335000", "161603.825000", "161605.315000", "161606.805000", "161608.295000", "161609.785000", "161611.275000", "161612.765000", "161614.255000", "161615.745000", "161617.235000", "161618.725000", "161620.215000", "161621.705000", "161623.195000", "161624.685000", "161626.175000", "161627.665000", "161629.155000", "161630.645000", "161632.135000", "161633.625000", "161635.115000", "161636.605000", "161638.095000", "161639.585000", "161641.075000", "161642.565000", "161644.055000", "161645.545000", "161647.035000", "161648.525000", "161650.015000", "161651.505000", "161652.995000", "161654.485000", "161655.975000", "161657.465000", "161658.955000", "161700.445000", "161701.935000", "161703.425000", "161704.915000", "161706.405000", "161707.895000", "161709.385000", "161710.875000", "161712.365000", "161713.855000", "161715.345000", "161716.835000", "161718.325000", "161719.815000", "161721.305000", "161722.795000", "161724.285000", "161725.775000", "161727.265000", "161728.755000", "161730.245000", "161731.735000", "161733.225000", "161734.715000", "161736.205000", "161737.695000", "161739.185000", "161740.675000", "161742.165000", "161743.655000", "161745.145000", "161746.635000", "161748.125000", "161749.615000", "161751.105000", "161752.595000", "161754.085000", "161755.575000", "161757.065000", "161758.555000", "161800.045000", "161801.535000", "161803.025000", "161804.515000", "161806.005000", "161807.495000", "161808.985000", "161810.475000", "161811.965000", "161813.455000", "161814.945000", "161816.435000", "161817.925000", "161819.415000", "161820.905000", "161822.395000", "161823.885000", "161825.375000", "161826.865000", "161828.355000", "161829.845000", "161831.335000", "161832.825000", "161834.315000", "161835.805000", "161837.295000", "161838.785000", "161840.275000", "161841.765000", "161843.255000", "161844.745000", "161846.235000", "161847.725000", "161849.215000", "161850.705000", "161852.195000", "161853.685000", "161855.175000", "161856.665000", "161858.155000", "161859.645000", "161901.135000", "161902.625000", "161904.115000", "161905.605000", "161907.095000", "161908.585000", "161910.075000", "161911.565000", "161913.055000", "161914.545000", "161916.035000", "161917.525000", "161919.015000", "161920.505000", "161921.995000", "161923.485000", "161924.975000", "161926.465000", "161927.955000", "161929.445000", "161930.935000", "161932.425000", "161933.915000", "161935.405000", "161936.895000", "161938.385000", "161939.875000", "161941.365000", "161942.855000", "161944.345000", "161945.835000", "161947.325000", "161948.815000", "161950.305000", "161951.795000", "161953.285000", "161954.775000", "161956.265000", "161957.755000", "161959.245000", "162000.735000", "162002.225000", "162003.715000", "162005.205000", "162006.695000", "162008.185000", "162009.675000", "162011.165000", "162012.655000", "162014.145000", "162015.635000", "162017.125000", "162018.615000", "162020.105000", "162021.595000", "162023.085000", "162024.575000", "162026.065000", "162027.555000", "162029.045000", "162030.535000", "162032.025000", "162033.515000", "162035.005000", "162036.495000", "162037.985000", "162039.475000", "162040.965000", "162042.455000", "162043.945000", "162045.435000", "162046.925000", "162048.415000", "162049.905000", "162051.395000", "162052.885000", "162054.375000", "162055.865000", "162057.355000", "162058.845000", "162100.335000", "162101.825000", "162103.315000", "162104.805000", "162106.295000", "162107.785000", "162109.275000", "162110.765000", "162112.255000", "162113.745000", "162115.235000", "162116.725000", "162118.215000", "162119.705000", "162121.195000", "162122.685000", "162124.175000", "162125.665000", "162127.155000", "162128.645000", "162130.135000", "162131.625000", "162133.115000", "162134.605000", "162136.095000", "162137.585000", "162139.075000", "162140.565000", "162142.055000", "162143.545000", "162145.035000", "162146.525000", "162148.015000", "162149.505000", "162150.995000", "162152.485000", "162153.975000", "162155.465000", "162156.955000", "162158.445000", "162159.935000", "162201.425000", "162202.915000", "162204.405000", "162205.895000", "162207.385000", "162208.875000", "162210.365000", "162211.855000", "162213.345000", "162214.835000", "162216.325000", "162217.815000", "162219.305000", "162220.795000", "162222.285000", "162223.775000", "162225.265000", "162226.755000", "162228.245000", "162229.735000", "162231.225000", "162232.715000", "162234.205000", "162235.695000", "162237.185000", "162238.675000", "162240.165000", "162241.655000", "162243.145000", "162244.635000", "162246.125000", "162247.615000", "162249.105000", "162250.595000", "162252.085000", "162253.575000", "162255.065000", "162256.555000", "162258.045000", "162259.535000", "162301.025000", "162302.515000", "162304.005000", "162305.495000", "162306.985000", "162308.475000", "162309.965000", "162311.455000", "162312.945000", "162314.435000", "162315.925000", "162317.415000", "162318.905000", "162320.395000", "162321.885000", "162323.375000", "162324.865000", "162326.355000", "162327.845000", "162329.335000", "162330.825000", "162332.315000", "162333.805000", "162335.295000", "162336.785000", "162338.275000", "162339.765000", "162341.255000", "162342.745000", "162344.235000", "162345.725000", "162347.215000", "162348.705000", "162350.195000", "162351.685000", "162353.175000", "162354.665000", "162356.155000", "162357.645000", "162359.135000", "162400.625000", "162402.115000", "162403.605000", "162405.095000", "162406.585000", "162408.075000", "162409.565000", "162411.055000", "162412.545000", "162414.035000", "162415.525000", "162417.015000", "162418.505000", "162419.995000", "162421.485000", "162422.975000", "162424.465000", "162425.955000", "162427.445000", "162428.935000", "162430.425000", "162431.915000", "162433.405000", "162434.895000", "162436.385000", "162437.875000", "162439.365000", "162440.855000", "162442.345000", "162443.835000", "162445.325000", "162446.815000", "162448.305000", "162449.795000", "162451.285000", "162452.775000", "162454.265000", "162455.755000", "162457.245000", "162458.735000", "162500.225000", "162501.715000", "162503.205000", "162504.695000", "162506.185000", "162507.675000", "162509.165000", "162510.655000", "162512.145000", "162513.635000", "162515.125000", "162516.615000", "162518.105000", "162519.595000", "162521.085000", "162522.575000", "162524.065000", "162525.555000", "162527.045000", "162528.535000", "162530.025000", "162531.515000", "162533.005000", "162534.495000", "162535.985000", "162537.475000", "162538.965000", "162540.455000", "162541.945000", "162543.435000", "162544.925000", "162546.415000", "162547.905000", "162549.395000", "162550.885000", "162552.375000", "162553.865000", "162555.355000", "162556.845000", "162558.335000", "162559.825000", "162601.315000", "162602.805000", "162604.295000", "162605.785000"],
      "ContentTime": ["161546.981000", "161546.985000", "161546.988000", "161546.991000", "161546.995000", "161546.998000", "161547.002000", "161547.006000", "161547.009000", "161547.017000", "161547.020000", "161547.023000", "161547.029000", "161547.032000", "161547.035000", "161547.038000", "161547.042000", "161547.045000", "161547.048000", "161606.940000", "161606.944000", "161606.947000", "161606.950000", "161606.953000", "161606.957000", "161606.960000", "161606.963000", "161606.967000", "161606.970000", "161606.973000", "161606.976000", "161606.980000", "161606.983000", "161606.986000", "161606.990000", "161606.993000", "161606.997000", "161607.001000", "161607.004000", "161626.940000", "161626.944000", "161626.962000", "161626.965000", "161626.969000", "161626.972000", "161626.975000", "161626.979000", "161626.982000", "161626.985000", "161626.988000", "161626.992000", "161626.995000", "161626.998000", "161627.003000", "161627.006000", "161627.009000", "161627.012000", "161627.016000", "161627.019000", "161646.941000", "161646.945000", "161646.948000", "161646.951000", "161646.955000", "161646.958000", "161646.961000", "161646.964000", "161646.968000", "161646.971000", "161646.974000", "161646.978000", "161646.981000", "161646.984000", "161646.987000", "161647.002000", "161647.006000", "161647.009000", "161647.012000", "161647.016000", "161706.941000", "161706.945000", "161706.948000", "161706.951000", "161706.955000", "161706.958000", "161706.961000", "161706.965000", "161706.968000", "161706.971000", "161706.974000", "161706.978000", "161706.981000", "161706.984000", "161706.988000", "161706.991000", "161706.994000", "161706.997000", "161707.002000", "161707.005000", "161746.940000", "161746.944000", "161746.947000", "161746.951000", "161746.954000", "161746.957000", "161746.961000", "161746.964000", "161746.967000", "161746.970000", "161746.974000", "161746.977000", "161746.980000", "161746.984000", "161746.987000", "161746.990000", "161746.994000", "161746.997000", "161747.001000", "161747.004000", "161747.008000", "161747.011000", "161747.014000", "161747.018000", "161747.021000", "161747.024000", "161747.028000", "161747.033000", "161747.036000", "161747.040000", "161747.044000", "161826.940000", "161826.944000", "161826.947000", "161826.951000", "161826.954000", "161826.957000", "161826.960000", "161826.964000", "161826.967000", "161826.970000", "161826.974000", "161826.977000", "161826.980000", "161826.984000", "161826.987000", "161826.990000", "161826.994000", "161826.997000", "161827.001000", "161827.005000", "161827.008000", "161827.011000", "161827.015000", "161827.018000", "161827.021000", "161827.025000", "161827.028000", "161906.941000", "161906.945000", "161906.948000", "161906.952000", "161906.955000", "161906.958000", "161906.962000", "161906.965000", "161906.968000", "161906.971000", "161906.975000", "161906.978000", "161906.981000", "161906.985000", "161906.988000", "161906.991000", "161906.995000", "161907.011000", "161907.014000", "161907.017000", "161907.021000", "161907.024000", "161907.027000", "161907.031000", "161907.034000", "161907.037000", "161907.041000", "161946.940000", "161946.944000", "161946.947000", "161946.951000", "161946.954000", "161946.957000", "161946.961000", "161946.964000", "161946.967000", "161946.971000", "161946.974000", "161946.985000", "161946.989000", "161946.992000", "161946.995000", "161947.000000", "161947.003000", "161947.006000", "161947.010000", "161947.013000", "161947.016000", "161947.020000", "161947.023000", "161947.026000", "161947.030000", "161947.033000", "161947.036000", "162026.940000", "162026.944000", "162026.947000", "162026.951000", "162026.954000", "162026.957000", "162026.961000", "162026.964000", "162026.967000", "162026.971000", "162026.974000", "162026.978000", "162026.981000", "162026.984000", "162026.987000", "162026.991000", "162026.994000", "162026.998000", "162027.002000", "162027.005000", "162027.009000", "162027.012000", "162027.015000", "162027.018000", "162027.022000", "162027.025000", "162027.028000", "162106.940000", "162107.022000", "162107.026000", "162107.029000", "162107.032000", "162107.036000", "162107.039000", "162107.042000", "162107.046000", "162107.049000", "162107.052000", "162107.056000", "162107.059000", "162107.062000", "162107.066000", "162107.069000", "162107.072000", "162107.076000", "162107.079000", "162107.082000", "162107.085000", "162107.089000", "162107.092000", "162107.096000", "162107.099000", "162107.102000", "162107.106000", "162146.941000", "162146.945000", "162146.948000", "162146.952000", "162146.955000", "162146.958000", "162146.962000", "162146.965000", "162146.985000", "162146.988000", "162146.992000", "162146.995000", "162146.998000", "162147.003000", "162147.006000", "162147.009000", "162147.013000", "162147.016000", "162147.019000", "162147.022000", "162147.026000", "162147.029000", "162147.032000", "162147.036000", "162147.039000", "162147.042000", "162226.940000", "162226.944000", "162226.947000", "162226.951000", "162226.954000", "162226.957000", "162226.960000", "162226.964000", "162226.967000", "162226.970000", "162226.974000", "162226.977000", "162226.981000", "162226.984000", "162226.987000", "162226.990000", "162226.994000", "162226.997000", "162227.002000", "162227.005000", "162227.008000", "162227.012000", "162227.015000", "162227.018000", "162227.023000", "162227.026000", "162227.029000", "162306.940000", "162306.944000", "162306.947000", "162306.951000", "162306.954000", "162306.957000", "162306.961000", "162306.964000", "162306.967000", "162306.970000", "162306.974000", "162306.977000", "162306.980000", "162306.984000", "162306.987000", "162306.990000", "162306.994000", "162306.997000", "162307.001000", "162307.005000", "162307.008000", "162307.011000", "162307.014000", "162307.018000", "162307.021000", "162307.024000", "162307.028000", "162346.942000", "162346.945000", "162346.949000", "162346.952000", "162346.955000", "162346.958000", "162346.962000", "162346.965000", "162346.968000", "162346.972000", "162346.975000", "162346.979000", "162346.982000", "162346.985000", "162346.989000", "162346.992000", "162346.995000", "162347.000000", "162347.003000", "162347.006000", "162347.010000", "162347.013000", "162347.016000", "162347.020000", "162347.043000", "162347.046000", "162347.050000", "162426.940000", "162426.944000", "162426.947000", "162426.950000", "162426.954000", "162426.957000", "162426.960000", "162426.964000", "162426.967000", "162426.970000", "162426.974000", "162426.977000", "162426.980000", "162426.983000", "162426.987000", "162426.990000", "162426.993000", "162426.997000", "162427.001000", "162427.004000", "162427.008000", "162427.019000", "162427.022000", "162427.025000", "162427.029000", "162427.036000", "162427.039000", "162506.940000", "162506.944000", "162506.947000", "162506.955000", "162506.958000", "162506.961000", "162506.964000", "162506.968000", "162506.971000", "162506.975000", "162506.978000", "162506.982000", "162506.985000", "162506.988000", "162506.991000", "162506.995000", "162506.998000", "162507.002000", "162507.006000", "162507.009000", "162507.012000", "162507.016000", "162507.019000", "162507.022000", "162507.025000", "162507.029000", "162507.032000", "162546.940000", "162546.944000", "162546.947000", "162546.951000", "162546.954000", "162546.957000", "162546.961000", "162546.964000", "162546.967000", "162546.971000", "162546.974000", "162546.977000", "162546.981000", "162546.984000", "162546.987000", "162546.990000", "162546.994000", "162546.997000", "162547.001000", "162547.005000", "162547.008000", "162547.011000", "162547.014000", "162547.018000", "162547.021000", "162547.024000", "162547.028000", "162608.786000", "162608.790000", "162608.793000", "162608.800000", "162608.803000", "162608.806000", "162608.810000", "162608.813000", "162608.817000", "162608.820000", "162608.823000", "162608.830000", "162608.834000", "162608.837000"],
