{
  "AcquisitionMatrixPE": 104,
  "AcquisitionNumber": 1,
  "AcquisitionTime": "16:41:39.167500",
  "BandwidthPerPixelPhaseEncode": 17.17,
  "BaseResolution": 104,
  "BodyPartExamined": "BRAIN",
  "CoilString": "HC1-7;NC1_2",
  "ConsistencyInfo": "N4_VE11C_LATEST_20160120",
  "ConversionSoftware": "dcm2niix",
  "ConversionSoftwareVersion": "v1.0.20190902",
  "DerivedVendorReportedEchoSpacing": 0.000560011,
  "DeviceSerialNumber": "167006",
  "DwellTime": 2.1e-06,
  "EchoTime": 0.037,
  "EchoTrainLength": 104,
  "EffectiveEchoSpacing": 0.000560011,
  "FlipAngle": 52,
  "HeudiconvVersion": "0.10.0",
  "ImageComments": "Unaliased_MB4_PE3_LB",
  "ImageOrientationPatientDICOM": [0.999747, -0.0223795, 0.0020809, 0.0218146, 0.94386, -0.329625],
  "ImageType": [
    "ORIGINAL",
    "PRIMARY",
    "M",
    "MB",
    "ND",
    "MOSAIC"
],
  "ImagingFrequency": 123.259,
  "InPlanePhaseEncodingDirectionDICOM": "COL",
  "InstitutionAddress": "Chemin_Queen-Mary_4565_Montreal_District_CA_H3W_1W5",
  "InstitutionName": "IUGM",
  "InstitutionalDepartmentName": "Department",
  "MRAcquisitionType": "2D",
  "MagneticFieldStrength": 3,
  "Manufacturer": "Siemens",
  "ManufacturersModelName": "Prisma_fit",
  "Modality": "MR",
  "MultibandAccelerationFactor": 4,
  "PartialFourier": 1,
  "PatientPosition": "HFS",
  "PercentPhaseFOV": 100,
  "PhaseEncodingDirection": "j",
  "PhaseEncodingSteps": 104,
  "PhaseResolution": 1,
  "PixelBandwidth": 2290,
  "ProcedureStepDescription": "games_mario",
  "ProtocolName": "func_task-mario_run-05",
  "PulseSequenceDetails": "%CustomerSeq%_cmrr_mbep2d_bold",
  "ReceiveCoilActiveElements": "HC1-7;NC1,2",
  "ReceiveCoilName": "HeadNeck_64",
  "ReconMatrixPE": 104,
  "RepetitionTime": 1.49,
  "SAR": 0.0462946,
  "ScanOptions": "FS",
  "ScanningSequence": "EP",
  "SequenceName": "epfid2d1_104",
  "SequenceVariant": "SK_SS",
  "SeriesDescription": "func_task-mario_run-05",
  "SeriesNumber": 22,
  "ShimSetting": [630, -7248, -8837, 590, 7, -205, -120, -18],
  "SliceThickness": 2,
  "SliceTiming": [0, 0.785, 0.1, 0.8825, 0.1975, 0.98, 0.295, 1.0775, 0.3925, 1.1775, 0.49, 1.275, 0.59, 1.3725, 0.6875, 0, 0.785, 0.1, 0.8825, 0.1975, 0.98, 0.295, 1.0775, 0.3925, 1.1775, 0.49, 1.275, 0.59, 1.3725, 0.6875, 0, 0.785, 0.1, 0.8825, 0.1975, 0.98, 0.295, 1.0775, 0.3925, 1.1775, 0.49, 1.275, 0.59, 1.3725, 0.6875, 0, 0.785, 0.1, 0.8825, 0.1975, 0.98, 0.295, 1.0775, 0.3925, 1.1775, 0.49, 1.275, 0.59, 1.3725, 0.6875],
  "SoftwareVersions": "syngo_MR_E11",
  "SpacingBetweenSlices": 2,
  "StationName": "MRC35049",
  "TaskName": "mario",
  "TotalReadoutTime": 0.0576811,
  "TxRefAmp": 255.261,
  "WipMemBlock": "93b066bb-5a05-4562-bdaf-16cb9eca05a5||Sequence: R016 ve11c/master r/e634e98; Dec 19 2017 11:00:25 by eja",
  "dcmmeta_affine": [
    [-1.9994947910308838, 0.04362910985946655, -0.01082555204629898, 104.39545440673828],
    [0.04475903511047363, 1.8877196311950684, -0.6591745615005493, -68.04258728027344],
    [0.004161795601248741, 0.6592503190040588, 1.8882191181182861, -66.6522216796875],
    [0.0, 0.0, 0.0, 1.0]
],
  "dcmmeta_reorient_transform": [
    [0.0, -1.0, 0.0, 103.0],
    [1.0, 0.0, 0.0, 0.0],
    [0.0, 0.0, 1.0, 0.0],
    [0.0, 0.0, 0.0, 1.0]
],
  "dcmmeta_shape": [104, 104, 60, 424],
  "dcmmeta_slice_dim": 2,
  "dcmmeta_version": 0.6,
  "global": {
    "const": {
      "AcquisitionMatrix": [104, 0, 0, 104],
      "AngioFlag": "N",
      "BitsAllocated": 16,
      "BitsStored": 16,
      "BodyPartExamined": "BRAIN",
      "Columns": 832,
      "EchoNumbers": 1,
      "EchoTime": 37.0,
      "EchoTrainLength": 104,
      "FlipAngle": 52.0,
      "HighBit": 15,
      "ImageOrientationPatient": [0.99974738162179, -0.0223795175166, 0.00208089790662, 0.02181455469744, 0.94385983210683, -0.3296251545902],
      "ImagePositionPatient": [-852.5863413108, -797.23020404497, 239.70278042305],
      "ImageType": [
        "ORIGINAL",
        "PRIMARY",
        "M",
        "MB",
        "ND",
        "MOSAIC"
],
      "ImagedNucleus": "1H",
      "ImagingFrequency": 123.258894,
      "InPlanePhaseEncodingDirection": "COL",
      "MRAcquisitionType": "2D",
      "MagneticFieldStrength": 3.0,
      "Manufacturer": "SIEMENS",
      "ManufacturerModelName": "Prisma_fit",
      "Modality": "MR",
      "NumberOfAverages": 1.0,
      "NumberOfPhaseEncodingSteps": 104,
      "PercentPhaseFieldOfView": 100.0,
      "PercentSampling": 100.0,
      "PerformedProcedureStepStartTime": "154529.954000",
      "PhotometricInterpretation": "MONOCHROME2",
      "PixelBandwidth": 2290.0,
      "PixelRepresentation": 0,
      "PixelSpacing": [2.0, 2.0],
      "ProtocolName": "func_task-mario_run-05",
      "RepetitionTime": 1490.0,
      "Rows": 832,
      "SAR": 0.04629460455731,
      "SamplesPerPixel": 1,
      "ScanOptions": "FS",
      "ScanningSequence": "EP",
      "SequenceName": "epfid2d1_104",
      "SequenceVariant": [
        "SK",
        "SS"
],
      "SeriesDescription": "func_task-mario_run-05",
      "SeriesNumber": 22,
      "SeriesTime": "164256.517000",
      "SliceLocation": -41.066097673915,
      "SliceThickness": 2.0,
      "SmallestImagePixelValue": 0,
      "SoftwareVersions": "syngo MR E11",
      "SpacingBetweenSlices": 1.9999999576807,
      "SpecificCharacterSet": "ISO_IR 100",
      "StudyID": "1",
      "StudyTime": "154529.895000",
      "TransmitCoilName": "Body",
      "VariableFlipAngleFlag": "N",
      "WindowCenterWidthExplanation": "Algo1",
      "dBdt": 0.0},
    "slices": {}
  },
  "time": {
    "samples": {
      "AcquisitionNumber": [1, 2, 3, 4, 5, 6, 7, 8, 9, 10, 11, 12, 13, 14, 15, 16, 17, 18, 19, 20, 21, 22, 23, 24, 25, 26, 27, 28, 29, 30, 31, 32, 33, 34, 35, 36, 37, 38, 39, 40, 41, 42, 43, 44, 45, 46, 47, 48, 49, 50, 51, 52, 53, 54, 55, 56, 57, 58, 59, 60, 61, 62, 63, 64, 65, 66, 67, 68, 69, 70, 71, 72, 73, 74, 75, 76, 77, 78, 79, 80, 81, 82, 83, 84, 85, 86, 87, 88, 89, 90, 91, 92, 93, 94, 95, 96, 97, 98, 99, 100, 101, 102, 103, 104, 105, 106, 107, 108, 109, 110, 111, 112, 113, 114, 115, 116, 117, 118, 119, 120, 121, 122, 123, 124, 125, 126, 127, 128, 129, 130, 131, 132, 133, 134, 135, 136, 137, 138, 139, 140, 141, 142, 143, 144, 145, 146, 147, 148, 149, 150, 151, 152, 153, 154, 155, 156, 157, 158, 159, 160, 161, 162, 163, 164, 165, 166, 167, 168, 169, 170, 171, 172, 173, 174, 175, 176, 177, 178, 179, 180, 181, 182, 183, 184, 185, 186, 187, 188, 189, 190, 191, 192, 193, 194, 195, 196, 197, 198, 199, 200, 201, 202, 203, 204, 205, 206, 207, 208, 209, 210, 211, 212, 213, 214, 215, 216, 217, 218, 219, 220, 221, 222, 223, 224, 225, 226, 227, 228, 229, 230, 231, 232, 233, 234, 235, 236, 237, 238, 239, 240, 241, 242, 243, 244, 245, 246, 247, 248, 249, 250, 251, 252, 253, 254, 255, 256, 257, 258, 259, 260, 261, 262, 263, 264, 265, 266, 267, 268, 269, 270, 271, 272, 273, 274, 275, 276, 277, 278, 279, 280, 281, 282, 283, 284, 285, 286, 287, 288, 289, 290, 291, 292, 293, 294, 295, 296, 297, 298, 299, 300, 301, 302, 303, 304, 305, 306, 307, 308, 309, 310, 311, 312, 313, 314, 315, 316, 317, 318, 319, 320, 321, 322, 323, 324, 325, 326, 327, 328, 329, 330, 331, 332, 333, 334, 335, 336, 337, 338, 339, 340, 341, 342, 343, 344, 345, 346, 347, 348, 349, 350, 351, 352, 353, 354, 355, 356, 357, 358, 359, 360, 361, 362, 363, 364, 365, 366, 367, 368, 369, 370, 371, 372, 373, 374, 375, 376, 377, 378, 379, 380, 381, 382, 383, 384, 385, 386, 387, 388, 389, 390, 391, 392, 393, 394, 395, 396, 397, 398, 399, 400, 401, 402, 403, 404, 405, 406, 407, 408, 409, 410, 411, 412, 413, 414, 415, 416, 417, 418, 419, 420, 421, 422, 423, 424],
      "AcquisitionTime": ["164139.167500", "164140.657500", "164142.147500", "164143.637500", "164145.127500", "164146.617500", "164148.107500", "164149.597500", "164151.087500", "164152.577500", "164154.067500", "164155.557500", "164157.047500", "164158.537500", "164200.027500", "164201.517500", "164203.007500", "164204.497500", "164205.987500", "164207.477500", "164208.967500", "164210.457500", "164211.947500", "164213.437500", "164214.927500", "164216.417500", "164217.907500", "164219.397500", "164220.887500", "164222.377500", "164223.867500", "164225.357500", "164226.847500", "164228.337500", "164229.827500", "164231.317500", "164232.807500", "164234.297500", "164235.787500", "164237.277500", "164238.767500", "164240.257500", "164241.747500", "164243.237500", "164244.727500", "164246.217500", "164247.707500", "164249.197500", "164250.687500", "164252.177500", "164253.667500", "164255.157500", "164256.647500", "164258.137500", "164259.627500", "164301.117500", "164302.607500", "164304.097500", "164305.587500", "164307.077500", "164308.567500", "164310.057500", "164311.547500", "164313.037500", "164314.527500", "164316.017500", "164317.507500", "164318.997500", "164320.487500", "164321.977500", "164323.467500", "164324.957500", "164326.447500", "164327.937500", "164329.427500", "164330.917500", "164332.407500", "164333.897500", "164335.387500", "164336.877500", "164338.367500", "164339.857500", "164341.347500", "164342.837500", "164344.327500", "164345.817500", "164347.307500", "164348.797500", "164350.287500", "164351.777500", "164353.267500", "164354.757500", "164356.247500", "164357.737500", "164359.227500", "164400.717500", "164402.207500", "164403.697500", "164405.187500", "164406.677500", "164408.167500", "164409.657500", "164411.147500", "164412.637500", "164414.127500", "164415.617500", "164417.107500", "164418.597500", "164420.087500", "164421.577500", "164423.067500", "164424.557500", "164426.047500", "164427.537500", "164429.027500", "164430.517500", "164432.007500", "164433.497500", "164434.987500", "164436.477500", "164437.967500", "164439.457500", "164440.947500", "164442.437500", "164443.927500", "164445.417500", "164446.907500", "164448.397500", "164449.887500", "164451.377500", "164452.867500", "164454.357500", "164455.847500", "164457.337500", "164458.827500", "164500.317500", "164501.807500", "164503.297500", "164504.787500", "164506.277500", "164507.767500", "164509.257500", "164510.747500", "164512.237500", "164513.727500", "164515.217500", "164516.707500", "164518.197500", "164519.687500", "164521.177500", "164522.667500", "164524.157500", "164525.647500", "164527.137500", "164528.627500", "164530.117500", "164531.607500", "164533.097500", "164534.587500", "164536.077500", "164537.567500", "164539.057500", "164540.547500", "164542.037500", "164543.527500", "164545.017500", "164546.507500", "164547.997500", "164549.487500", "164550.977500", "164552.467500", "164553.957500", "164555.447500", "164556.937500", "164558.427500", "164559.917500", "164601.407500", "164602.897500", "164604.387500", "164605.877500", "164607.367500", "164608.857500", "164610.347500", "164611.837500", "164613.327500", "164614.817500", "164616.307500", "164617.797500", "164619.287500", "164620.777500", "164622.267500", "164623.757500", "164625.247500", "164626.737500", "164628.227500", "164629.717500", "164631.207500", "164632.697500", "164634.187500", "164635.677500", "164637.167500", "164638.657500", "164640.147500", "164641.637500", "164643.127500", "164644.617500", "164646.107500", "164647.597500", "164649.087500", "164650.577500", "164652.067500", "164653.557500", "164655.047500", "164656.537500", "164658.027500", "164659.517500", "164701.007500", "164702.497500", "164703.987500", "164705.477500", "164706.967500", "164708.457500", "164709.947500", "164711.437500", "164712.927500", "164714.417500", "164715.907500", "164717.397500", "164718.887500", "164720.377500", "164721.867500", "164723.357500", "164724.847500", "164726.337500", "164727.827500", "164729.317500", "164730.807500", "164732.297500", "164733.787500", "164735.277500", "164736.767500", "164738.257500", "164739.747500", "164741.237500", "164742.727500", "164744.217500", "164745.707500", "164747.197500", "164748.687500", "164750.177500", "164751.667500", "164753.157500", "164754.647500", "164756.137500", "164757.627500", "164759.117500", "164800.607500", "164802.097500", "164803.587500", "164805.077500", "164806.567500", "164808.057500", "164809.547500", "164811.037500", "164812.527500", "164814.017500", "164815.507500", "164816.997500", "164818.487500", "164819.977500", "164821.467500", "164822.957500", "164824.447500", "164825.937500", "164827.427500", "164828.917500", "164830.407500", "164831.897500", "164833.387500", "164834.877500", "164836.367500", "164837.857500", "164839.347500", "164840.837500", "164842.327500", "164843.817500", "164845.307500", "164846.797500", "164848.287500", "164849.777500", "164851.267500", "164852.757500", "164854.247500", "164855.737500", "164857.227500", "164858.717500", "164900.207500", "164901.697500", "164903.187500", "164904.677500", "164906.167500", "164907.657500", "164909.147500", "164910.637500", "164912.127500", "164913.617500", "164915.107500", "164916.597500", "164918.087500", "164919.577500", "164921.067500", "164922.557500", "164924.047500", "164925.537500", "164927.027500", "164928.517500", "164930.007500", "164931.497500", "164932.987500", "164934.477500", "164935.967500", "164937.457500", "164938.947500", "164940.437500", "164941.927500", "164943.417500", "164944.907500", "164946.397500", "164947.887500", "164949.377500", "164950.867500", "164952.357500", "164953.847500", "164955.337500", "164956.827500", "164958.317500", "164959.807500", "165001.297500", "165002.787500", "165004.277500", "165005.767500", "165007.257500", "165008.747500", "165010.237500", "165011.727500", "165013.217500", "165014.707500", "165016.197500", "165017.687500", "165019.177500", "165020.667500", "165022.157500", "165023.647500", "165025.137500", "165026.627500", "165028.117500", "165029.607500", "165031.097500", "165032.587500", "165034.077500", "165035.567500", "165037.057500", "165038.547500", "165040.037500", "165041.527500", "165043.017500", "165044.507500", "165045.997500", "165047.487500", "165048.977500", "165050.467500", "165051.957500", "165053.447500", "165054.937500", "165056.427500", "165057.917500", "165059.407500", "165100.897500", "165102.387500", "165103.877500", "165105.367500", "165106.857500", "165108.347500", "165109.837500", "165111.327500", "165112.817500", "165114.307500", "165115.797500", "165117.287500", "165118.777500", "165120.267500", "165121.757500", "165123.247500", "165124.737500", "165126.227500", "165127.717500", "165129.207500", "165130.697500", "165132.187500", "165133.677500", "165135.167500", "165136.657500", "165138.147500", "165139.637500", "165141.127500", "165142.617500", "165144.107500", "165145.597500", "165147.087500", "165148.577500", "165150.067500", "165151.557500", "165153.047500", "165154.537500", "165156.027500", "165157.517500", "165159.007500", "165200.497500", "165201.987500", "165203.477500", "165204.967500", "165206.457500", "165207.947500", "165209.437500"],
      "ContentTime": ["164256.520000", "164256.524000", "164256.527000", "164256.530000", "164256.534000", "164256.537000", "164256.550000", "164256.553000", "164256.557000", "164256.560000", "164256.563000", "164256.566000", "164256.570000", "164256.573000", "164256.576000", "164256.588000", "164256.591000", "164256.594000", "164256.597000", "164256.601000", "164256.604000", "164316.482000", "164316.486000", "164316.489000", "164316.492000", "164316.496000", "164316.499000", "164316.502000", "164316.506000", "164316.509000", "164316.512000", "164316.515000", "164316.518000", "164316.522000", "164316.525000", "164316.528000", "164316.532000", "164316.536000", "164316.539000", "164316.542000", "164316.545000", "164336.482000", "164336.486000", "164336.489000", "164336.493000", "164336.496000", "164336.499000", "164336.503000", "164336.506000", "164336.509000", "164336.513000", "164336.516000", "164336.519000", "164336.522000", "164336.526000", "164336.529000", "164336.532000", "164336.536000", "164336.539000", "164336.542000", "164336.546000", "164356.482000", "164356.486000", "164356.489000", "164356.492000", "164356.495000", "164356.507000", "164356.510000", "164356.514000", "164356.517000", "164356.520000", "164356.523000", "164356.527000", "164356.530000", "164356.533000", "164356.537000", "164356.540000", "164356.543000", "164356.546000", "164356.550000", "164356.553000", "164356.556000", "164416.482000", "164416.486000", "164416.489000", "164416.492000", "164416.496000", "164416.499000", "164416.502000", "164416.505000", "164416.509000", "164416.512000", "164416.515000", "164416.518000", "164416.522000", "164416.525000", "164416.528000", "164416.532000", "164416.535000", "164416.538000", "164416.541000", "164416.545000", "164456.481000", "164456.485000", "164456.488000", "164456.491000", "164456.495000", "164456.498000", "164456.501000", "164456.505000", "164456.508000", "164456.511000", "164456.515000", "164456.518000", "164456.521000", "164456.525000", "164456.528000", "164456.531000", "164456.535000", "164456.538000", "164456.541000", "164456.545000", "164456.548000", "164456.551000", "164456.555000", "164456.558000", "164456.561000", "164456.565000", "164456.568000", "164456.571000", "164456.575000", "164536.482000", "164536.486000", "164536.489000", "164536.492000", "164536.496000", "164536.499000", "164536.502000", "164536.506000", "164536.509000", "164536.512000", "164536.516000", "164536.519000", "164536.522000", "164536.526000", "164536.529000", "164536.532000", "164536.536000", "164536.539000", "164536.542000", "164536.546000", "164536.549000", "164536.552000", "164536.555000", "164536.559000", "164536.562000", "164536.565000", "164536.569000", "164616.482000", "164616.486000", "164616.489000", "164616.492000", "164616.496000", "164616.499000", "164616.502000", "164616.506000", "164616.522000", "164616.525000", "164616.529000", "164616.532000", "164616.535000", "164616.539000", "164616.542000", "164616.545000", "164616.549000", "164616.552000", "164616.555000", "164616.559000", "164616.562000", "164616.565000", "164616.568000", "164616.572000", "164616.575000", "164616.579000", "164616.582000", "164656.481000", "164656.485000", "164656.488000", "164656.491000", "164656.495000", "164656.498000", "164656.501000", "164656.505000", "164656.508000", "164656.511000", "164656.515000", "164656.518000", "164656.521000", "164656.525000", "164656.528000", "164656.531000", "164656.535000", "164656.538000", "164656.541000", "164656.545000", "164656.548000", "164656.551000", "164656.554000", "164656.558000", "164656.561000", "164656.566000", "164656.569000", "164736.481000", "164736.485000", "164736.488000", "164736.491000", "164736.495000", "164736.498000", "164736.502000", "164736.505000", "164736.508000", "164736.512000", "164736.515000", "164736.518000", "164736.521000", "164736.525000", "164736.528000", "164736.531000", "164736.535000", "164736.538000", "164736.541000", "164736.545000", "164736.548000", "164736.551000", "164736.555000", "164736.558000", "164736.561000", "164736.565000", "164736.568000", "164816.482000", "164816.486000", "164816.489000", "164816.493000", "164816.496000", "164816.499000", "164816.502000", "164816.506000", "164816.509000", "164816.513000", "164816.516000", "164816.519000", "164816.523000", "164816.526000", "164816.529000", "164816.532000", "164816.536000", "164816.539000", "164816.542000", "164816.546000", "164816.549000", "164816.552000", "164816.556000", "164816.569000", "164816.573000", "164816.576000", "164856.482000", "164856.486000", "164856.489000", "164856.493000", "164856.496000", "164856.499000", "164856.503000", "164856.506000", "164856.509000", "164856.513000", "164856.516000", "164856.519000", "164856.522000", "164856.526000", "164856.529000", "164856.532000", "164856.536000", "164856.539000", "164856.542000", "164856.546000", "164856.549000", "164856.552000", "164856.556000", "164856.559000", "164856.562000", "164856.566000", "164856.569000", "164936.481000", "164936.485000", "164936.489000", "164936.492000", "164936.495000", "164936.499000", "164936.502000", "164936.505000", "164936.509000", "164936.512000", "164936.515000", "164936.519000", "164936.522000", "164936.525000", "164936.529000", "164936.532000", "164936.535000", "164936.539000", "164936.542000", "164936.545000", "164936.548000", "164936.552000", "164936.555000", "164936.558000", "164936.562000", "164936.565000", "164936.568000", "165016.482000", "165016.486000", "165016.489000", "165016.493000", "165016.496000", "165016.499000", "165016.503000", "165016.506000", "165016.510000", "165016.513000", "165016.516000", "165016.519000", "165016.523000", "165016.526000", "165016.529000", "165016.533000", "165016.536000", "165016.539000", "165016.543000", "165016.546000", "165016.549000", "165016.553000", "165016.556000", "165016.559000", "165016.563000", "165016.566000", "165016.569000", "165056.482000", "165056.486000", "165056.489000", "165056.492000", "165056.496000", "165056.499000", "165056.502000", "165056.520000", "165056.523000", "165056.526000", "165056.530000", "165056.533000", "165056.536000", "165056.540000", "165056.543000", "165056.546000", "165056.550000", "165056.553000", "165056.558000", "165056.569000", "165056.572000", "165056.576000", "165056.579000", "165056.582000", "165056.586000", "165056.589000", "165056.592000", "165136.481000", "165136.485000", "165136.488000", "165136.492000", "165136.495000", "165136.498000", "165136.502000", "165136.505000", "165136.508000", "165136.512000", "165136.515000", "165136.518000", "165136.522000", "165136.525000", "165136.528000", "165136.532000", "165136.535000", "165136.538000", "165136.542000", "165136.545000", "165136.548000", "165136.552000", "165136.555000", "165136.558000", "165136.561000", "165136.565000", "165136.568000", "165212.126000", "165212.130000", "165212.133000", "165212.137000", "165212.140000", "165212.143000", "165212.146000", "165212.150000", "165212.153000", "165212.157000", "165212.160000", "165212.163000", "165212.167000", "165212.170000", "165212.173000", "165212.177000", "165212.180000", "165212.183000", "165212.186000", "165212.190000", "165212.193000", "165212.196000", "165212.200000", "165212.203000"],
      "InstanceCreationTime": ["164256.520000", "164256.524000", "164256.527000", "164256.530000", "164256.534000", "164256.537000", "164256.550000", "164256.553000", "164256.557000", "164256.560000", "164256.563000", "164256.566000", "164256.570000", "164256.573000", "164256.576000", "164256.588000", "164256.591000", "164256.594000", "164256.597000", "164256.601000", "164256.604000", "164316.482000", "164316.486000", "164316.489000", "164316.492000", "164316.496000", "164316.499000", "164316.502000", "164316.506000", "164316.509000", "164316.512000", "164316.515000", "164316.518000", "164316.522000", "164316.525000", "164316.528000", "164316.532000", "164316.536000", "164316.539000", "164316.542000", "164316.545000", "164336.482000", "164336.486000", "164336.489000", "164336.493000", "164336.496000", "164336.499000", "164336.503000", "164336.506000", "164336.509000", "164336.513000", "164336.516000", "164336.519000", "164336.522000", "164336.526000", "164336.529000", "164336.532000", "164336.536000", "164336.539000", "164336.542000", "164336.546000", "164356.482000", "164356.486000", "164356.489000", "164356.492000", "164356.495000", "164356.507000", "164356.510000", "164356.514000", "164356.517000", "164356.520000", "164356.523000", "164356.527000", "164356.530000", "164356.533000", "164356.537000", "164356.540000", "164356.543000", "164356.546000", "164356.550000", "164356.553000", "164356.556000", "164416.482000", "164416.486000", "164416.489000", "164416.492000", "164416.496000", "164416.499000", "164416.502000", "164416.505000", "164416.509000", "164416.512000", "164416.515000", "164416.518000", "164416.522000", "164416.525000", "164416.528000", "164416.532000", "164416.535000", "164416.538000", "164416.541000", "164416.545000", "164456.481000", "164456.485000", "164456.488000", "164456.491000", "164456.495000", "164456.498000", "164456.501000", "164456.505000", "164456.508000", "164456.511000", "164456.515000", "164456.518000", "164456.521000", "164456.525000", "164456.528000", "164456.531000", "164456.535000", "164456.538000", "164456.541000", "164456.545000", "164456.548000", "164456.551000", "164456.555000", "164456.558000", "164456.561000", "164456.565000", "164456.568000", "164456.571000", "164456.575000", "164536.482000", "164536.486000", "164536.489000", "164536.492000", "164536.496000", "164536.499000", "164536.502000", "164536.506000", "164536.509000", "164536.512000", "164536.516000", "164536.519000", "164536.522000", "164536.526000", "164536.529000", "164536.532000", "164536.536000", "164536.539000", "164536.542000", "164536.546000", "164536.549000", "164536.552000", "164536.555000", "164536.559000", "164536.562000", "164536.565000", "164536.569000", "164616.482000", "164616.486000", "164616.489000", "164616.492000", "164616.496000", "164616.499000", "164616.502000", "164616.506000", "164616.522000", "164616.525000", "164616.529000", "164616.532000", "164616.535000", "164616.539000", "164616.542000", "164616.545000", "164616.549000", "164616.552000", "164616.555000", "164616.559000", "164616.562000", "164616.565000", "164616.568000", "164616.572000", "164616.575000", "164616.579000", "164616.582000", "164656.481000", "164656.485000", "164656.488000", "164656.491000", "164656.495000", "164656.498000", "164656.501000", "164656.505000", "164656.508000", "164656.511000", "164656.515000", "164656.518000", "164656.521000", "164656.525000", "164656.528000", "164656.531000", "164656.535000", "164656.538000", "164656.541000", "164656.545000", "164656.548000", "164656.551000", "164656.554000", "164656.558000", "164656.561000", "164656.566000", "164656.569000", "164736.481000", "164736.485000", "164736.488000", "164736.491000", "164736.495000", "164736.498000", "164736.502000", "164736.505000", "164736.508000", "164736.512000", "164736.515000", "164736.518000", "164736.521000", "164736.525000", "164736.528000", "164736.531000", "164736.535000", "164736.538000", "164736.541000", "164736.545000", "164736.548000", "164736.551000", "164736.555000", "164736.558000", "164736.561000", "164736.565000", "164736.568000", "164816.482000", "164816.486000", "164816.489000", "164816.493000", "164816.496000", "164816.499000", "164816.502000", "164816.506000", "164816.509000", "164816.513000", "164816.516000", "164816.519000", "164816.523000", "164816.526000", "164816.529000", "164816.532000", "164816.536000", "164816.539000", "164816.542000", "164816.546000", "164816.549000", "164816.552000", "164816.556000", "164816.569000", "164816.573000", "164816.576000", "164856.482000", "164856.486000", "164856.489000", "164856.493000", "164856.496000", "164856.499000", "164856.503000", "164856.506000", "164856.509000", "164856.513000", "164856.516000", "164856.519000", "164856.522000", "164856.526000", "164856.529000", "164856.532000", "164856.536000", "164856.539000", "164856.542000", "164856.546000", "164856.549000", "164856.552000", "164856.556000", "164856.559000", "164856.562000", "164856.566000", "164856.569000", "164936.481000", "164936.485000", "164936.489000", "164936.492000", "164936.495000", "164936.499000", "164936.502000", "164936.505000", "164936.509000", "164936.512000", "164936.515000", "164936.519000", "164936.522000", "164936.525000", "164936.529000", "164936.532000", "164936.535000", "164936.539000", "164936.542000", "164936.545000", "164936.548000", "164936.552000", "164936.555000", "164936.558000", "164936.562000", "164936.565000", "164936.568000", "165016.482000", "165016.486000", "165016.489000", "165016.493000", "165016.496000", "165016.499000", "165016.503000", "165016.506000", "165016.510000", "165016.513000", "165016.516000", "165016.519000", "165016.523000", "165016.526000", "165016.529000", "165016.533000", "165016.536000", "165016.539000", "165016.543000", "165016.546000", "165016.549000", "165016.553000", "165016.556000", "165016.559000", "165016.563000", "165016.566000", "165016.569000", "165056.482000", "165056.486000", "165056.489000", "165056.492000", "165056.496000", "165056.499000", "165056.502000", "165056.520000", "165056.523000", "165056.526000", "165056.530000", "165056.533000", "165056.536000", "165056.540000", "165056.543000", "165056.546000", "165056.550000", "165056.553000", "165056.558000", "165056.569000", "165056.572000", "165056.576000", "165056.579000", "165056.582000", "165056.586000", "165056.589000", "165056.592000", "165136.481000", "165136.485000", "165136.488000", "165136.492000", "165136.495000", "165136.498000", "165136.502000", "165136.505000", "165136.508000", "165136.512000", "165136.515000", "165136.518000", "165136.522000", "165136.525000", "165136.528000", "165136.532000", "165136.535000", "165136.538000", "165136.542000", "165136.545000", "165136.548000", "165136.552000", "165136.555000", "165136.558000", "165136.561000", "165136.565000", "165136.568000", "165212.126000", "165212.130000", "165212.133000", "165212.137000", "165212.140000", "165212.143000", "165212.146000", "165212.150000", "165212.153000", "165212.157000", "165212.160000", "165212.163000", "165212.167000", "165212.170000", "165212.173000", "165212.177000", "165212.180000", "165212.183000", "165212.186000", "165212.190000", "165212.193000", "165212.196000", "165212.200000", "165212.203000"],
