{
  "AcquisitionMatrixPE": 104,
  "AcquisitionNumber": 1,
  "AcquisitionTime": "11:16:45.530000",
  "BandwidthPerPixelPhaseEncode": 17.17,
  "BaseResolution": 104,
  "BodyPartExamined": "BRAIN",
  "CoilString": "HC1-7;NC1_2",
  "ConsistencyInfo": "N4_VE11C_LATEST_20160120",
  "ConversionSoftware": "dcm2niix",
  "ConversionSoftwareVersion": "v1.0.20190902",
  "DerivedVendorReportedEchoSpacing": 0.000560011,
  "DeviceSerialNumber": "167006",
  "DwellTime": 2.1e-06,
  "EchoTime": 0.037,
  "EchoTrainLength": 104,
  "EffectiveEchoSpacing": 0.000560011,
  "FlipAngle": 52,
  "HeudiconvVersion": "0.10.0",
  "ImageComments": "Unaliased_MB4_PE3_LB",
  "ImageOrientationPatientDICOM": [0.996894, 0.0599839, 0.0510333, -0.0355091, 0.920732, -0.388577],
  "ImageType": [
    "ORIGINAL",
    "PRIMARY",
    "P",
    "MB",
    "ND",
    "MOSAIC"
],
  "ImagingFrequency": 123.259,
  "InPlanePhaseEncodingDirectionDICOM": "COL",
  "InstitutionAddress": "Chemin_Queen-Mary_4565_Montreal_District_CA_H3W_1W5",
  "InstitutionName": "IUGM",
  "InstitutionalDepartmentName": "Department",
  "MRAcquisitionType": "2D",
  "MagneticFieldStrength": 3,
  "Manufacturer": "Siemens",
  "ManufacturersModelName": "Prisma_fit",
  "Modality": "MR",
  "MultibandAccelerationFactor": 4,
  "PartialFourier": 1,
  "PatientPosition": "HFS",
  "PercentPhaseFOV": 100,
  "PhaseEncodingDirection": "j",
  "PhaseEncodingSteps": 104,
  "PhaseResolution": 1,
  "PixelBandwidth": 2290,
  "ProcedureStepDescription": "games_mario",
  "ProtocolName": "func_task-mario_run-02",
  "PulseSequenceDetails": "%CustomerSeq%_cmrr_mbep2d_bold",
  "ReceiveCoilActiveElements": "HC1-7;NC1,2",
  "ReceiveCoilName": "HeadNeck_64",
  "ReconMatrixPE": 104,
  "RepetitionTime": 1.49,
  "SAR": 0.0645903,
  "ScanOptions": "FS",
  "ScanningSequence": "EP",
  "SequenceName": "epfid2d1_104",
  "SequenceVariant": "SK_SS",
  "SeriesDescription": "func_task-mario_run-02",
  "SeriesNumber": 14,
  "ShimSetting": [637, -7193, -8827, 648, 107, -23, -53, -29],
  "SliceThickness": 2,
  "SliceTiming": [0, 0.785, 0.0975, 0.8825, 0.1975, 0.98, 0.295, 1.0775, 0.3925, 1.1775, 0.49, 1.275, 0.5875, 1.3725, 0.6875, 0, 0.785, 0.0975, 0.8825, 0.1975, 0.98, 0.295, 1.0775, 0.3925, 1.1775, 0.49, 1.275, 0.5875, 1.3725, 0.6875, 0, 0.785, 0.0975, 0.8825, 0.1975, 0.98, 0.295, 1.0775, 0.3925, 1.1775, 0.49, 1.275, 0.5875, 1.3725, 0.6875, 0, 0.785, 0.0975, 0.8825, 0.1975, 0.98, 0.295, 1.0775, 0.3925, 1.1775, 0.49, 1.275, 0.5875, 1.3725, 0.6875],
  "SoftwareVersions": "syngo_MR_E11",
  "SpacingBetweenSlices": 2,
  "StationName": "MRC35049",
  "TaskName": "mario",
  "TotalReadoutTime": 0.0576811,
  "TxRefAmp": 300.046,
  "WipMemBlock": "d56a39cd-b769-4873-b341-e61519a3fb53||Sequence: R016 ve11c/master r/e634e98; Dec 19 2017 11:00:25 by eja",
  "dcmmeta_affine": [
    [-1.9937878847122192, -0.07101813703775406, 0.14059258997440338, 106.92597961425781],
    [-0.11996783316135406, 1.8414638042449951, -0.771115243434906, -50.808773040771484],
    [0.10206650197505951, 0.7771534323692322, 1.8400040864944458, -67.19007873535156],
    [0.0, 0.0, 0.0, 1.0]
],
  "dcmmeta_reorient_transform": [
    [0.0, -1.0, 0.0, 103.0],
    [1.0, 0.0, 0.0, 0.0],
    [0.0, 0.0, 1.0, 0.0],
    [0.0, 0.0, 0.0, 1.0]
],
  "dcmmeta_shape": [104, 104, 60, 452],
  "dcmmeta_slice_dim": 2,
  "dcmmeta_version": 0.6,
  "global": {
    "const": {
      "AcquisitionMatrix": [104, 0, 0, 104],
      "AngioFlag": "N",
      "BitsAllocated": 16,
      "BitsStored": 16,
      "BodyPartExamined": "BRAIN",
      "Columns": 832,
      "EchoNumbers": 1,
      "EchoTime": 37.0,
      "EchoTrainLength": 104,
      "FlipAngle": 52.0,
      "HighBit": 15,
      "ImageOrientationPatient": [0.99689394474694, 0.05998391702056, 0.05103325019781, -0.0355090667288, 0.92073190642214, -0.3885767140171],
      "ImagePositionPatient": [-799.49930187227, -852.82311881526, 258.58836679264],
      "ImageType": [
        "ORIGINAL",
        "PRIMARY",
        "P",
        "MB",
        "ND",
        "MOSAIC"
],
      "ImagedNucleus": "1H",
      "ImagingFrequency": 123.258954,
      "InPlanePhaseEncodingDirection": "COL",
      "LargestImagePixelValue": 4095,
      "MRAcquisitionType": "2D",
      "MagneticFieldStrength": 3.0,
      "Manufacturer": "SIEMENS",
      "ManufacturerModelName": "Prisma_fit",
      "Modality": "MR",
      "NumberOfAverages": 1.0,
      "NumberOfPhaseEncodingSteps": 104,
      "PercentPhaseFieldOfView": 100.0,
      "PercentSampling": 100.0,
      "PerformedProcedureStepStartTime": "103310.149000",
      "PhotometricInterpretation": "MONOCHROME2",
      "PixelBandwidth": 2290.0,
      "PixelRepresentation": 0,
      "PixelSpacing": [2.0, 2.0],
      "ProtocolName": "func_task-mario_run-02",
      "RepetitionTime": 1490.0,
      "RescaleIntercept": -4096.0,
      "RescaleSlope": 2.0,
      "RescaleType": "US",
      "Rows": 832,
      "SAR": 0.06459029256159,
      "SamplesPerPixel": 1,
      "ScanOptions": "FS",
      "ScanningSequence": "EP",
      "SequenceName": "epfid2d1_104",
      "SequenceVariant": [
        "SK",
        "SS"
],
      "SeriesDescription": "func_task-mario_run-02",
      "SeriesNumber": 14,
      "SeriesTime": "111808.139000",
      "SliceLocation": -34.708798072063,
      "SliceThickness": 2.0,
      "SmallestImagePixelValue": 0,
      "SoftwareVersions": "syngo MR E11",
      "SpacingBetweenSlices": 2.0000000224972,
      "SpecificCharacterSet": "ISO_IR 100",
      "StudyID": "1",
      "StudyTime": "103310.016000",
      "TransmitCoilName": "Body",
      "VariableFlipAngleFlag": "N",
      "WindowCenterWidthExplanation": "Algo1",
      "dBdt": 0.0},
    "slices": {}
  },
  "time": {
    "samples": {
      "AcquisitionNumber": [1, 2, 3, 4, 5, 6, 7, 8, 9, 10, 11, 12, 13, 14, 15, 16, 17, 18, 19, 20, 21, 22, 23, 24, 25, 26, 27, 28, 29, 30, 31, 32, 33, 34, 35, 36, 37, 38, 39, 40, 41, 42, 43, 44, 45, 46, 47, 48, 49, 50, 51, 52, 53, 54, 55, 56, 57, 58, 59, 60, 61, 62, 63, 64, 65, 66, 67, 68, 69, 70, 71, 72, 73, 74, 75, 76, 77, 78, 79, 80, 81, 82, 83, 84, 85, 86, 87, 88, 89, 90, 91, 92, 93, 94, 95, 96, 97, 98, 99, 100, 101, 102, 103, 104, 105, 106, 107, 108, 109, 110, 111, 112, 113, 114, 115, 116, 117, 118, 119, 120, 121, 122, 123, 124, 125, 126, 127, 128, 129, 130, 131, 132, 133, 134, 135, 136, 137, 138, 139, 140, 141, 142, 143, 144, 145, 146, 147, 148, 149, 150, 151, 152, 153, 154, 155, 156, 157, 158, 159, 160, 161, 162, 163, 164, 165, 166, 167, 168, 169, 170, 171, 172, 173, 174, 175, 176, 177, 178, 179, 180, 181, 182, 183, 184, 185, 186, 187, 188, 189, 190, 191, 192, 193, 194, 195, 196, 197, 198, 199, 200, 201, 202, 203, 204, 205, 206, 207, 208, 209, 210, 211, 212, 213, 214, 215, 216, 217, 218, 219, 220, 221, 222, 223, 224, 225, 226, 227, 228, 229, 230, 231, 232, 233, 234, 235, 236, 237, 238, 239, 240, 241, 242, 243, 244, 245, 246, 247, 248, 249, 250, 251, 252, 253, 254, 255, 256, 257, 258, 259, 260, 261, 262, 263, 264, 265, 266, 267, 268, 269, 270, 271, 272, 273, 274, 275, 276, 277, 278, 279, 280, 281, 282, 283, 284, 285, 286, 287, 288, 289, 290, 291, 292, 293, 294, 295, 296, 297, 298, 299, 300, 301, 302, 303, 304, 305, 306, 307, 308, 309, 310, 311, 312, 313, 314, 315, 316, 317, 318, 319, 320, 321, 322, 323, 324, 325, 326, 327, 328, 329, 330, 331, 332, 333, 334, 335, 336, 337, 338, 339, 340, 341, 342, 343, 344, 345, 346, 347, 348, 349, 350, 351, 352, 353, 354, 355, 356, 357, 358, 359, 360, 361, 362, 363, 364, 365, 366, 367, 368, 369, 370, 371, 372, 373, 374, 375, 376, 377, 378, 379, 380, 381, 382, 383, 384, 385, 386, 387, 388, 389, 390, 391, 392, 393, 394, 395, 396, 397, 398, 399, 400, 401, 402, 403, 404, 405, 406, 407, 408, 409, 410, 411, 412, 413, 414, 415, 416, 417, 418, 419, 420, 421, 422, 423, 424, 425, 426, 427, 428, 429, 430, 431, 432, 433, 434, 435, 436, 437, 438, 439, 440, 441, 442, 443, 444, 445, 446, 447, 448, 449, 450, 451, 452],
      "AcquisitionTime": ["111645.530000", "111647.020000", "111648.510000", "111650.000000", "111651.490000", "111652.980000", "111654.470000", "111655.960000", "111657.450000", "111658.940000", "111700.430000", "111701.920000", "111703.410000", "111704.900000", "111706.390000", "111707.880000", "111709.370000", "111710.860000", "111712.350000", "111713.840000", "111715.330000", "111716.820000", "111718.310000", "111719.800000", "111721.290000", "111722.780000", "111724.270000", "111725.760000", "111727.250000", "111728.740000", "111730.230000", "111731.720000", "111733.210000", "111734.700000", "111736.190000", "111737.680000", "111739.170000", "111740.660000", "111742.150000", "111743.640000", "111745.130000", "111746.620000", "111748.110000", "111749.600000", "111751.090000", "111752.580000", "111754.070000", "111755.560000", "111757.050000", "111758.540000", "111800.030000", "111801.520000", "111803.010000", "111804.500000", "111805.990000", "111807.480000", "111808.970000", "111810.460000", "111811.950000", "111813.440000", "111814.930000", "111816.420000", "111817.910000", "111819.400000", "111820.890000", "111822.380000", "111823.870000", "111825.360000", "111826.850000", "111828.340000", "111829.830000", "111831.320000", "111832.810000", "111834.300000", "111835.790000", "111837.280000", "111838.770000", "111840.260000", "111841.750000", "111843.240000", "111844.730000", "111846.220000", "111847.710000", "111849.200000", "111850.690000", "111852.180000", "111853.670000", "111855.160000", "111856.650000", "111858.140000", "111859.630000", "111901.120000", "111902.610000", "111904.100000", "111905.590000", "111907.080000", "111908.570000", "111910.060000", "111911.550000", "111913.040000", "111914.530000", "111916.020000", "111917.510000", "111919.000000", "111920.490000", "111921.980000", "111923.470000", "111924.960000", "111926.450000", "111927.940000", "111929.430000", "111930.920000", "111932.410000", "111933.900000", "111935.390000", "111936.880000", "111938.370000", "111939.860000", "111941.350000", "111942.840000", "111944.330000", "111945.820000", "111947.310000", "111948.800000", "111950.290000", "111951.780000", "111953.270000", "111954.760000", "111956.250000", "111957.740000", "111959.230000", "112000.720000", "112002.210000", "112003.700000", "112005.190000", "112006.680000", "112008.170000", "112009.660000", "112011.150000", "112012.640000", "112014.130000", "112015.620000", "112017.110000", "112018.600000", "112020.090000", "112021.580000", "112023.070000", "112024.560000", "112026.050000", "112027.540000", "112029.030000", "112030.520000", "112032.010000", "112033.500000", "112034.990000", "112036.480000", "112037.970000", "112039.460000", "112040.950000", "112042.440000", "112043.930000", "112045.420000", "112046.910000", "112048.400000", "112049.890000", "112051.380000", "112052.870000", "112054.360000", "112055.850000", "112057.340000", "112058.830000", "112100.320000", "112101.810000", "112103.300000", "112104.790000", "112106.280000", "112107.770000", "112109.260000", "112110.750000", "112112.240000", "112113.730000", "112115.220000", "112116.710000", "112118.200000", "112119.690000", "112121.180000", "112122.670000", "112124.160000", "112125.650000", "112127.140000", "112128.630000", "112130.120000", "112131.610000", "112133.100000", "112134.590000", "112136.080000", "112137.570000", "112139.060000", "112140.550000", "112142.040000", "112143.530000", "112145.020000", "112146.510000", "112148.000000", "112149.490000", "112150.980000", "112152.470000", "112153.960000", "112155.450000", "112156.940000", "112158.430000", "112159.920000", "112201.410000", "112202.900000", "112204.390000", "112205.880000", "112207.370000", "112208.860000", "112210.350000", "112211.840000", "112213.330000", "112214.820000", "112216.310000", "112217.800000", "112219.290000", "112220.780000", "112222.270000", "112223.760000", "112225.250000", "112226.740000", "112228.230000", "112229.720000", "112231.210000", "112232.700000", "112234.190000", "112235.680000", "112237.170000", "112238.660000", "112240.150000", "112241.640000", "112243.130000", "112244.620000", "112246.110000", "112247.600000", "112249.090000", "112250.580000", "112252.070000", "112253.560000", "112255.050000", "112256.540000", "112258.030000", "112259.520000", "112301.010000", "112302.500000", "112303.990000", "112305.480000", "112306.970000", "112308.460000", "112309.950000", "112311.440000", "112312.930000", "112314.420000", "112315.910000", "112317.400000", "112318.890000", "112320.380000", "112321.870000", "112323.360000", "112324.850000", "112326.340000", "112327.830000", "112329.320000", "112330.810000", "112332.300000", "112333.790000", "112335.280000", "112336.770000", "112338.260000", "112339.750000", "112341.240000", "112342.730000", "112344.220000", "112345.710000", "112347.200000", "112348.690000", "112350.180000", "112351.670000", "112353.160000", "112354.650000", "112356.140000", "112357.630000", "112359.120000", "112400.610000", "112402.100000", "112403.590000", "112405.080000", "112406.570000", "112408.060000", "112409.550000", "112411.040000", "112412.530000", "112414.020000", "112415.510000", "112417.000000", "112418.490000", "112419.980000", "112421.470000", "112422.960000", "112424.450000", "112425.940000", "112427.430000", "112428.920000", "112430.410000", "112431.900000", "112433.390000", "112434.880000", "112436.370000", "112437.860000", "112439.350000", "112440.840000", "112442.330000", "112443.820000", "112445.310000", "112446.800000", "112448.290000", "112449.780000", "112451.270000", "112452.760000", "112454.250000", "112455.740000", "112457.230000", "112458.720000", "112500.210000", "112501.700000", "112503.190000", "112504.680000", "112506.170000", "112507.660000", "112509.150000", "112510.640000", "112512.130000", "112513.620000", "112515.110000", "112516.600000", "112518.090000", "112519.580000", "112521.070000", "112522.560000", "112524.050000", "112525.540000", "112527.030000", "112528.520000", "112530.010000", "112531.500000", "112532.990000", "112534.480000", "112535.970000", "112537.460000", "112538.950000", "112540.440000", "112541.930000", "112543.420000", "112544.910000", "112546.400000", "112547.890000", "112549.380000", "112550.870000", "112552.360000", "112553.850000", "112555.340000", "112556.830000", "112558.320000", "112559.810000", "112601.300000", "112602.790000", "112604.280000", "112605.770000", "112607.260000", "112608.750000", "112610.240000", "112611.730000", "112613.220000", "112614.710000", "112616.200000", "112617.690000", "112619.180000", "112620.670000", "112622.160000", "112623.650000", "112625.140000", "112626.630000", "112628.120000", "112629.610000", "112631.100000", "112632.590000", "112634.080000", "112635.570000", "112637.060000", "112638.550000", "112640.040000", "112641.530000", "112643.020000", "112644.510000", "112646.000000", "112647.490000", "112648.980000", "112650.470000", "112651.960000", "112653.450000", "112654.940000", "112656.430000", "112657.920000", "112659.410000", "112700.900000", "112702.390000", "112703.880000", "112705.370000", "112706.860000", "112708.350000", "112709.840000", "112711.330000", "112712.820000", "112714.310000", "112715.800000", "112717.290000", "112718.780000", "112720.270000", "112721.760000", "112723.250000", "112724.740000", "112726.230000", "112727.720000", "112729.210000", "112730.700000", "112732.190000", "112733.680000", "112735.170000", "112736.660000", "112738.150000", "112739.640000", "112741.130000", "112742.620000", "112744.110000", "112745.600000", "112747.090000", "112748.580000", "112750.070000", "112751.560000", "112753.050000", "112754.540000", "112756.030000", "112757.520000"],
      "ContentTime": ["111808.141000", "111808.144000", "111808.146000", "111808.149000", "111808.152000", "111808.154000", "111808.157000", "111808.159000", "111808.162000", "111808.164000", "111808.167000", "111808.169000", "111808.172000", "111808.174000", "111808.177000", "111808.179000", "111808.182000", "111808.184000", "111808.187000", "111808.189000", "111808.192000", "111808.194000", "111808.197000", "111808.200000", "111808.202000", "111808.205000", "111808.207000", "111808.210000", "111808.212000", "111828.047000", "111828.050000", "111828.052000", "111828.055000", "111828.057000", "111828.060000", "111828.062000", "111828.065000", "111828.067000", "111828.070000", "111828.073000", "111828.075000", "111828.078000", "111828.080000", "111828.083000", "111828.085000", "111828.088000", "111828.091000", "111828.093000", "111828.096000", "111848.064000", "111848.068000", "111848.072000", "111848.076000", "111848.078000", "111848.082000", "111848.084000", "111848.087000", "111848.090000", "111848.092000", "111848.095000", "111848.100000", "111848.102000", "111848.105000", "111848.107000", "111848.110000", "111848.113000", "111848.115000", "111848.118000", "111848.121000", "111908.062000", "111908.065000", "111908.067000", "111908.070000", "111908.073000", "111908.075000", "111908.078000", "111908.080000", "111908.083000", "111908.085000", "111908.088000", "111908.090000", "111908.093000", "111908.096000", "111908.098000", "111908.101000", "111908.103000", "111908.106000", "111908.108000", "111908.111000", "111908.113000", "111948.105000", "111948.107000", "111948.110000", "111948.113000", "111948.115000", "111948.118000", "111948.120000", "111948.123000", "111948.125000", "111948.128000", "111948.130000", "111948.133000", "111948.136000", "111948.138000", "111948.141000", "111948.143000", "111948.146000", "111948.148000", "111948.151000", "111948.154000", "111948.156000", "111948.159000", "111948.161000", "111948.164000", "111948.166000", "111948.169000", "111948.171000", "111948.174000", "111948.176000", "111948.179000", "111948.182000", "111948.184000", "112028.084000", "112028.087000", "112028.089000", "112028.092000", "112028.095000", "112028.097000", "112028.100000", "112028.102000", "112028.105000", "112028.107000", "112028.110000", "112028.112000", "112028.115000", "112028.118000", "112028.120000", "112028.123000", "112028.125000", "112028.128000", "112028.130000", "112028.133000", "112028.136000", "112028.138000", "112028.141000", "112028.143000", "112028.146000", "112028.148000", "112028.151000", "112108.081000", "112108.085000", "112108.087000", "112108.090000", "112108.093000", "112108.096000", "112108.099000", "112108.101000", "112108.104000", "112108.107000", "112108.109000", "112108.112000", "112108.114000", "112108.117000", "112108.119000", "112108.122000", "112108.124000", "112108.127000", "112108.129000", "112108.132000", "112108.135000", "112108.137000", "112108.140000", "112108.142000", "112108.145000", "112108.147000", "112148.076000", "112148.079000", "112148.082000", "112148.090000", "112148.092000", "112148.095000", "112148.097000", "112148.100000", "112148.102000", "112148.105000", "112148.107000", "112148.110000", "112148.112000", "112148.115000", "112148.118000", "112148.120000", "112148.123000", "112148.125000", "112148.128000", "112148.130000", "112148.133000", "112148.135000", "112148.138000", "112148.141000", "112148.143000", "112148.146000", "112148.148000", "112228.078000", "112228.081000", "112228.083000", "112228.086000", "112228.088000", "112228.091000", "112228.094000", "112228.096000", "112228.099000", "112228.101000", "112228.104000", "112228.106000", "112228.109000", "112228.111000", "112228.114000", "112228.116000", "112228.119000", "112228.121000", "112228.124000", "112228.127000", "112228.129000", "112228.132000", "112228.134000", "112228.137000", "112228.139000", "112228.142000", "112228.144000", "112308.092000", "112308.095000", "112308.098000", "112308.100000", "112308.103000", "112308.105000", "112308.108000", "112308.110000", "112308.113000", "112308.115000", "112308.118000", "112308.121000", "112308.123000", "112308.126000", "112308.128000", "112308.131000", "112308.133000", "112308.136000", "112308.139000", "112308.141000", "112308.144000", "112308.146000", "112308.149000", "112308.151000", "112308.154000", "112308.156000", "112308.159000", "112348.078000", "112348.081000", "112348.083000", "112348.086000", "112348.089000", "112348.091000", "112348.094000", "112348.096000", "112348.099000", "112348.101000", "112348.104000", "112348.106000", "112348.109000", "112348.112000", "112348.114000", "112348.117000", "112348.119000", "112348.122000", "112348.125000", "112348.127000", "112348.130000", "112348.132000", "112348.135000", "112348.137000", "112348.140000", "112348.142000", "112348.145000", "112428.092000", "112428.094000", "112428.097000", "112428.100000", "112428.102000", "112428.105000", "112428.107000", "112428.110000", "112428.112000", "112428.115000", "112428.118000", "112428.120000", "112428.123000", "112428.125000", "112428.128000", "112428.130000", "112428.133000", "112428.136000", "112428.138000", "112428.141000", "112428.143000", "112428.146000", "112428.148000", "112428.151000", "112428.153000", "112428.156000", "112428.159000", "112508.101000", "112508.103000", "112508.106000", "112508.108000", "112508.111000", "112508.114000", "112508.116000", "112508.119000", "112508.121000", "112508.124000", "112508.126000", "112508.129000", "112508.131000", "112508.134000", "112508.137000", "112508.139000", "112508.142000", "112508.144000", "112508.147000", "112508.149000", "112508.152000", "112508.155000", "112508.157000", "112508.160000", "112508.162000", "112508.165000", "112548.086000", "112548.089000", "112548.091000", "112548.094000", "112548.097000", "112548.099000", "112548.102000", "112548.104000", "112548.107000", "112548.109000", "112548.112000", "112548.114000", "112548.117000", "112548.120000", "112548.122000", "112548.125000", "112548.127000", "112548.130000", "112548.133000", "112548.135000", "112548.138000", "112548.141000", "112548.143000", "112548.146000", "112548.148000", "112548.151000", "112548.153000", "112628.094000", "112628.096000", "112628.099000", "112628.102000", "112628.104000", "112628.107000", "112628.109000", "112628.112000", "112628.114000", "112628.117000", "112628.120000", "112628.122000", "112628.125000", "112628.127000", "112628.130000", "112628.132000", "112628.135000", "112628.137000", "112628.140000", "112628.143000", "112628.145000", "112628.148000", "112628.150000", "112628.153000", "112628.155000", "112628.158000", "112628.161000", "112708.085000", "112708.087000", "112708.090000", "112708.093000", "112708.095000", "112708.098000", "112708.100000", "112708.103000", "112708.106000", "112708.108000", "112708.111000", "112708.113000", "112708.116000", "112708.118000", "112708.121000", "112708.123000", "112708.126000", "112708.129000", "112708.131000", "112708.134000", "112708.136000", "112708.139000", "112708.141000", "112708.144000", "112708.147000", "112708.149000", "112708.152000", "112748.075000", "112748.078000", "112748.081000", "112748.083000", "112748.086000", "112748.088000", "112748.091000", "112748.094000", "112748.096000", "112748.099000", "112748.101000", "112748.104000", "112748.106000", "112748.109000", "112748.111000", "112748.114000", "112748.116000", "112748.119000", "112748.122000", "112748.124000", "112748.127000", "112748.129000", "112748.132000", "112748.134000", "112748.137000", "112748.139000", "112748.142000", "112759.716000", "112759.719000", "112759.722000", "112759.725000", "112759.727000", "112759.730000", "112759.733000", "112759.736000"],
