{
  "AcquisitionMatrixPE": 104,
  "AcquisitionNumber": 1,
  "AcquisitionTime": "11:29:19.212500",
  "BandwidthPerPixelPhaseEncode": 17.17,
  "BaseResolution": 104,
  "BodyPartExamined": "BRAIN",
  "CoilString": "HC1-7;NC1_2",
  "ConsistencyInfo": "N4_VE11C_LATEST_20160120",
  "ConversionSoftware": "dcm2niix",
  "ConversionSoftwareVersion": "v1.0.20190902",
  "DerivedVendorReportedEchoSpacing": 0.000560011,
  "DeviceSerialNumber": "167006",
  "DwellTime": 2.1e-06,
  "EchoTime": 0.037,
  "EchoTrainLength": 104,
  "EffectiveEchoSpacing": 0.000560011,
  "FlipAngle": 52,
  "HeudiconvVersion": "0.10.0",
  "ImageComments": "Unaliased_MB4_PE3_LB",
  "ImageOrientationPatientDICOM": [0.996894, 0.0599839, 0.0510333, -0.0355091, 0.920732, -0.388577],
  "ImageType": [
    "ORIGINAL",
    "PRIMARY",
    "M",
    "MB",
    "ND",
    "MOSAIC"
],
  "ImagingFrequency": 123.259,
  "InPlanePhaseEncodingDirectionDICOM": "COL",
  "InstitutionAddress": "Chemin_Queen-Mary_4565_Montreal_District_CA_H3W_1W5",
  "InstitutionName": "IUGM",
  "InstitutionalDepartmentName": "Department",
  "MRAcquisitionType": "2D",
  "MagneticFieldStrength": 3,
  "Manufacturer": "Siemens",
  "ManufacturersModelName": "Prisma_fit",
  "Modality": "MR",
  "MultibandAccelerationFactor": 4,
  "PartialFourier": 1,
  "PatientPosition": "HFS",
  "PercentPhaseFOV": 100,
  "PhaseEncodingDirection": "j",
  "PhaseEncodingSteps": 104,
  "PhaseResolution": 1,
  "PixelBandwidth": 2290,
  "ProcedureStepDescription": "games_mario",
  "ProtocolName": "func_task-mario_run-03",
  "PulseSequenceDetails": "%CustomerSeq%_cmrr_mbep2d_bold",
  "ReceiveCoilActiveElements": "HC1-7;NC1,2",
  "ReceiveCoilName": "HeadNeck_64",
  "ReconMatrixPE": 104,
  "RepetitionTime": 1.49,
  "SAR": 0.0645903,
  "ScanOptions": "FS",
  "ScanningSequence": "EP",
  "SequenceName": "epfid2d1_104",
  "SequenceVariant": "SK_SS",
  "SeriesDescription": "func_task-mario_run-03",
  "SeriesNumber": 16,
  "ShimSetting": [637, -7193, -8827, 648, 107, -23, -53, -29],
  "SliceThickness": 2,
  "SliceTiming": [0, 0.7825, 0.0975, 0.88, 0.195, 0.98, 0.2925, 1.0775, 0.39, 1.175, 0.49, 1.2725, 0.5875, 1.37, 0.685, 0, 0.7825, 0.0975, 0.88, 0.195, 0.98, 0.2925, 1.0775, 0.39, 1.175, 0.49, 1.2725, 0.5875, 1.37, 0.685, 0, 0.7825, 0.0975, 0.88, 0.195, 0.98, 0.2925, 1.0775, 0.39, 1.175, 0.49, 1.2725, 0.5875, 1.37, 0.685, 0, 0.7825, 0.0975, 0.88, 0.195, 0.98, 0.2925, 1.0775, 0.39, 1.175, 0.49, 1.2725, 0.5875, 1.37, 0.685],
  "SoftwareVersions": "syngo_MR_E11",
  "SpacingBetweenSlices": 2,
  "StationName": "MRC35049",
  "TaskName": "mario",
  "TotalReadoutTime": 0.0576811,
  "TxRefAmp": 300.046,
  "WipMemBlock": "c557afdc-00e4-4b68-b8b6-8f9eab8e5049||Sequence: R016 ve11c/master r/e634e98; Dec 19 2017 11:00:25 by eja",
  "dcmmeta_affine": [
    [-1.9937878847122192, -0.07101813703775406, 0.14059258997440338, 106.92597961425781],
    [-0.11996783316135406, 1.8414638042449951, -0.771115243434906, -50.808773040771484],
    [0.10206650197505951, 0.7771534323692322, 1.8400040864944458, -67.19007873535156],
    [0.0, 0.0, 0.0, 1.0]
],
  "dcmmeta_reorient_transform": [
    [0.0, -1.0, 0.0, 103.0],
    [1.0, 0.0, 0.0, 0.0],
    [0.0, 0.0, 1.0, 0.0],
    [0.0, 0.0, 0.0, 1.0]
],
  "dcmmeta_shape": [104, 104, 60, 429],
  "dcmmeta_slice_dim": 2,
  "dcmmeta_version": 0.6,
  "global": {
    "const": {
      "AcquisitionMatrix": [104, 0, 0, 104],
      "AngioFlag": "N",
      "BitsAllocated": 16,
      "BitsStored": 16,
      "BodyPartExamined": "BRAIN",
      "Columns": 832,
      "EchoNumbers": 1,
      "EchoTime": 37.0,
      "EchoTrainLength": 104,
      "FlipAngle": 52.0,
      "HighBit": 15,
      "ImageOrientationPatient": [0.99689394474694, 0.05998391702056, 0.05103325019781, -0.0355090667288, 0.92073190642214, -0.3885767140171],
      "ImagePositionPatient": [-799.49930187227, -852.82311881526, 258.58836679264],
      "ImageType": [
        "ORIGINAL",
        "PRIMARY",
        "M",
        "MB",
        "ND",
        "MOSAIC"
],
      "ImagedNucleus": "1H",
      "ImagingFrequency": 123.258962,
      "InPlanePhaseEncodingDirection": "COL",
      "MRAcquisitionType": "2D",
      "MagneticFieldStrength": 3.0,
      "Manufacturer": "SIEMENS",
      "ManufacturerModelName": "Prisma_fit",
      "Modality": "MR",
      "NumberOfAverages": 1.0,
      "NumberOfPhaseEncodingSteps": 104,
      "PercentPhaseFieldOfView": 100.0,
      "PercentSampling": 100.0,
      "PerformedProcedureStepStartTime": "103310.149000",
      "PhotometricInterpretation": "MONOCHROME2",
      "PixelBandwidth": 2290.0,
      "PixelRepresentation": 0,
      "PixelSpacing": [2.0, 2.0],
      "ProtocolName": "func_task-mario_run-03",
      "RepetitionTime": 1490.0,
      "Rows": 832,
      "SAR": 0.06459029256159,
      "SamplesPerPixel": 1,
      "ScanOptions": "FS",
      "ScanningSequence": "EP",
      "SequenceName": "epfid2d1_104",
      "SequenceVariant": [
        "SK",
        "SS"
],
      "SeriesDescription": "func_task-mario_run-03",
      "SeriesNumber": 16,
      "SeriesTime": "113047.899000",
      "SliceLocation": -34.708798072063,
      "SliceThickness": 2.0,
      "SmallestImagePixelValue": 0,
      "SoftwareVersions": "syngo MR E11",
      "SpacingBetweenSlices": 2.0000000224972,
      "SpecificCharacterSet": "ISO_IR 100",
      "StudyID": "1",
      "StudyTime": "103310.016000",
      "TransmitCoilName": "Body",
      "VariableFlipAngleFlag": "N",
      "WindowCenterWidthExplanation": "Algo1",
      "dBdt": 0.0},
    "slices": {}
  },
  "time": {
    "samples": {
      "AcquisitionNumber": [1, 2, 3, 4, 5, 6, 7, 8, 9, 10, 11, 12, 13, 14, 15, 16, 17, 18, 19, 20, 21, 22, 23, 24, 25, 26, 27, 28, 29, 30, 31, 32, 33, 34, 35, 36, 37, 38, 39, 40, 41, 42, 43, 44, 45, 46, 47, 48, 49, 50, 51, 52, 53, 54, 55, 56, 57, 58, 59, 60, 61, 62, 63, 64, 65, 66, 67, 68, 69, 70, 71, 72, 73, 74, 75, 76, 77, 78, 79, 80, 81, 82, 83, 84, 85, 86, 87, 88, 89, 90, 91, 92, 93, 94, 95, 96, 97, 98, 99, 100, 101, 102, 103, 104, 105, 106, 107, 108, 109, 110, 111, 112, 113, 114, 115, 116, 117, 118, 119, 120, 121, 122, 123, 124, 125, 126, 127, 128, 129, 130, 131, 132, 133, 134, 135, 136, 137, 138, 139, 140, 141, 142, 143, 144, 145, 146, 147, 148, 149, 150, 151, 152, 153, 154, 155, 156, 157, 158, 159, 160, 161, 162, 163, 164, 165, 166, 167, 168, 169, 170, 171, 172, 173, 174, 175, 176, 177, 178, 179, 180, 181, 182, 183, 184, 185, 186, 187, 188, 189, 190, 191, 192, 193, 194, 195, 196, 197, 198, 199, 200, 201, 202, 203, 204, 205, 206, 207, 208, 209, 210, 211, 212, 213, 214, 215, 216, 217, 218, 219, 220, 221, 222, 223, 224, 225, 226, 227, 228, 229, 230, 231, 232, 233, 234, 235, 236, 237, 238, 239, 240, 241, 242, 243, 244, 245, 246, 247, 248, 249, 250, 251, 252, 253, 254, 255, 256, 257, 258, 259, 260, 261, 262, 263, 264, 265, 266, 267, 268, 269, 270, 271, 272, 273, 274, 275, 276, 277, 278, 279, 280, 281, 282, 283, 284, 285, 286, 287, 288, 289, 290, 291, 292, 293, 294, 295, 296, 297, 298, 299, 300, 301, 302, 303, 304, 305, 306, 307, 308, 309, 310, 311, 312, 313, 314, 315, 316, 317, 318, 319, 320, 321, 322, 323, 324, 325, 326, 327, 328, 329, 330, 331, 332, 333, 334, 335, 336, 337, 338, 339, 340, 341, 342, 343, 344, 345, 346, 347, 348, 349, 350, 351, 352, 353, 354, 355, 356, 357, 358, 359, 360, 361, 362, 363, 364, 365, 366, 367, 368, 369, 370, 371, 372, 373, 374, 375, 376, 377, 378, 379, 380, 381, 382, 383, 384, 385, 386, 387, 388, 389, 390, 391, 392, 393, 394, 395, 396, 397, 398, 399, 400, 401, 402, 403, 404, 405, 406, 407, 408, 409, 410, 411, 412, 413, 414, 415, 416, 417, 418, 419, 420, 421, 422, 423, 424, 425, 426, 427, 428, 429],
      "AcquisitionTime": ["112919.212500", "112920.702500", "112922.192500", "112923.682500", "112925.172500", "112926.662500", "112928.152500", "112929.642500", "112931.132500", "112932.622500", "112934.112500", "112935.602500", "112937.092500", "112938.582500", "112940.072500", "112941.562500", "112943.052500", "112944.542500", "112946.032500", "112947.522500", "112949.012500", "112950.502500", "112951.992500", "112953.482500", "112954.972500", "112956.462500", "112957.952500", "112959.442500", "113000.932500", "113002.422500", "113003.912500", "113005.402500", "113006.892500", "113008.382500", "113009.872500", "113011.362500", "113012.852500", "113014.342500", "113015.832500", "113017.322500", "113018.812500", "113020.302500", "113021.792500", "113023.282500", "113024.772500", "113026.262500", "113027.752500", "113029.242500", "113030.732500", "113032.222500", "113033.712500", "113035.202500", "113036.692500", "113038.182500", "113039.672500", "113041.162500", "113042.652500", "113044.142500", "113045.632500", "113047.122500", "113048.612500", "113050.102500", "113051.592500", "113053.082500", "113054.572500", "113056.062500", "113057.552500", "113059.042500", "113100.532500", "113102.022500", "113103.512500", "113105.002500", "113106.492500", "113107.982500", "113109.472500", "113110.962500", "113112.452500", "113113.942500", "113115.432500", "113116.922500", "113118.412500", "113119.902500", "113121.392500", "113122.882500", "113124.372500", "113125.862500", "113127.352500", "113128.842500", "113130.332500", "113131.822500", "113133.312500", "113134.802500", "113136.292500", "113137.782500", "113139.272500", "113140.762500", "113142.252500", "113143.742500", "113145.232500", "113146.722500", "113148.212500", "113149.702500", "113151.192500", "113152.682500", "113154.172500", "113155.662500", "113157.152500", "113158.642500", "113200.132500", "113201.622500", "113203.112500", "113204.602500", "113206.092500", "113207.582500", "113209.072500", "113210.562500", "113212.052500", "113213.542500", "113215.032500", "113216.522500", "113218.012500", "113219.502500", "113220.992500", "113222.482500", "113223.972500", "113225.462500", "113226.952500", "113228.442500", "113229.932500", "113231.422500", "113232.912500", "113234.402500", "113235.892500", "113237.382500", "113238.872500", "113240.362500", "113241.852500", "113243.342500", "113244.832500", "113246.322500", "113247.812500", "113249.302500", "113250.792500", "113252.282500", "113253.772500", "113255.262500", "113256.752500", "113258.242500", "113259.732500", "113301.222500", "113302.712500", "113304.202500", "113305.692500", "113307.182500", "113308.672500", "113310.162500", "113311.652500", "113313.142500", "113314.632500", "113316.122500", "113317.612500", "113319.102500", "113320.592500", "113322.082500", "113323.572500", "113325.062500", "113326.552500", "113328.042500", "113329.532500", "113331.022500", "113332.512500", "113334.002500", "113335.492500", "113336.982500", "113338.472500", "113339.962500", "113341.452500", "113342.942500", "113344.432500", "113345.922500", "113347.412500", "113348.902500", "113350.392500", "113351.882500", "113353.372500", "113354.862500", "113356.352500", "113357.842500", "113359.332500", "113400.822500", "113402.312500", "113403.802500", "113405.292500", "113406.782500", "113408.272500", "113409.762500", "113411.252500", "113412.742500", "113414.232500", "113415.722500", "113417.212500", "113418.702500", "113420.192500", "113421.682500", "113423.172500", "113424.662500", "113426.152500", "113427.642500", "113429.132500", "113430.622500", "113432.112500", "113433.602500", "113435.092500", "113436.582500", "113438.072500", "113439.562500", "113441.052500", "113442.542500", "113444.032500", "113445.522500", "113447.012500", "113448.502500", "113449.992500", "113451.482500", "113452.972500", "113454.462500", "113455.952500", "113457.442500", "113458.932500", "113500.422500", "113501.912500", "113503.402500", "113504.892500", "113506.382500", "113507.872500", "113509.362500", "113510.852500", "113512.342500", "113513.832500", "113515.322500", "113516.812500", "113518.302500", "113519.792500", "113521.282500", "113522.772500", "113524.262500", "113525.752500", "113527.242500", "113528.732500", "113530.222500", "113531.712500", "113533.202500", "113534.692500", "113536.182500", "113537.672500", "113539.162500", "113540.652500", "113542.142500", "113543.632500", "113545.122500", "113546.612500", "113548.102500", "113549.592500", "113551.082500", "113552.572500", "113554.062500", "113555.552500", "113557.042500", "113558.532500", "113600.022500", "113601.512500", "113603.002500", "113604.492500", "113605.982500", "113607.472500", "113608.962500", "113610.452500", "113611.942500", "113613.432500", "113614.922500", "113616.412500", "113617.902500", "113619.392500", "113620.882500", "113622.372500", "113623.862500", "113625.352500", "113626.842500", "113628.332500", "113629.822500", "113631.312500", "113632.802500", "113634.292500", "113635.782500", "113637.272500", "113638.762500", "113640.252500", "113641.742500", "113643.232500", "113644.722500", "113646.212500", "113647.702500", "113649.192500", "113650.682500", "113652.172500", "113653.662500", "113655.152500", "113656.642500", "113658.132500", "113659.622500", "113701.112500", "113702.602500", "113704.092500", "113705.582500", "113707.072500", "113708.562500", "113710.052500", "113711.542500", "113713.032500", "113714.522500", "113716.012500", "113717.502500", "113718.992500", "113720.482500", "113721.972500", "113723.462500", "113724.952500", "113726.442500", "113727.932500", "113729.422500", "113730.912500", "113732.402500", "113733.892500", "113735.382500", "113736.872500", "113738.362500", "113739.852500", "113741.342500", "113742.832500", "113744.322500", "113745.812500", "113747.302500", "113748.792500", "113750.282500", "113751.772500", "113753.262500", "113754.752500", "113756.242500", "113757.732500", "113759.222500", "113800.712500", "113802.202500", "113803.692500", "113805.182500", "113806.672500", "113808.162500", "113809.652500", "113811.142500", "113812.632500", "113814.122500", "113815.612500", "113817.102500", "113818.592500", "113820.082500", "113821.572500", "113823.062500", "113824.552500", "113826.042500", "113827.532500", "113829.022500", "113830.512500", "113832.002500", "113833.492500", "113834.982500", "113836.472500", "113837.962500", "113839.452500", "113840.942500", "113842.432500", "113843.922500", "113845.412500", "113846.902500", "113848.392500", "113849.882500", "113851.372500", "113852.862500", "113854.352500", "113855.842500", "113857.332500", "113858.822500", "113900.312500", "113901.802500", "113903.292500", "113904.782500", "113906.272500", "113907.762500", "113909.252500", "113910.742500", "113912.232500", "113913.722500", "113915.212500", "113916.702500", "113918.192500", "113919.682500", "113921.172500", "113922.662500", "113924.152500", "113925.642500", "113927.132500", "113928.622500", "113930.112500", "113931.602500", "113933.092500", "113934.582500", "113936.072500", "113937.562500", "113939.052500", "113940.542500", "113942.032500", "113943.522500", "113945.012500", "113946.502500", "113947.992500", "113949.482500", "113950.972500", "113952.462500", "113953.952500", "113955.442500", "113956.932500"],
      "ContentTime": ["113047.903000", "113047.906000", "113047.910000", "113047.913000", "113047.917000", "113047.920000", "113047.924000", "113047.927000", "113047.931000", "113047.934000", "113047.937000", "113047.941000", "113047.944000", "113047.948000", "113047.951000", "113047.954000", "113047.958000", "113047.961000", "113047.965000", "113047.968000", "113047.971000", "113047.975000", "113047.978000", "113047.982000", "113047.991000", "113047.995000", "113047.998000", "113048.003000", "113048.006000", "113048.009000", "113048.013000", "113048.016000", "113048.020000", "113048.023000", "113107.855000", "113107.859000", "113107.863000", "113107.866000", "113107.869000", "113107.873000", "113107.876000", "113107.880000", "113107.883000", "113107.887000", "113107.890000", "113107.894000", "113107.897000", "113107.900000", "113107.904000", "113107.907000", "113107.911000", "113107.914000", "113107.917000", "113107.921000", "113127.855000", "113127.859000", "113127.863000", "113127.866000", "113127.870000", "113127.873000", "113127.877000", "113127.880000", "113127.884000", "113127.896000", "113127.900000", "113127.903000", "113127.906000", "113127.910000", "113127.913000", "113127.917000", "113127.920000", "113127.924000", "113127.927000", "113127.930000", "113147.855000", "113147.859000", "113147.863000", "113147.866000", "113147.869000", "113147.873000", "113147.876000", "113147.880000", "113147.883000", "113147.887000", "113147.890000", "113147.893000", "113147.897000", "113147.900000", "113147.904000", "113147.907000", "113147.910000", "113147.914000", "113147.917000", "113147.921000", "113147.924000", "113227.855000", "113227.859000", "113227.862000", "113227.866000", "113227.870000", "113227.873000", "113227.876000", "113227.880000", "113227.883000", "113227.887000", "113227.890000", "113227.894000", "113227.920000", "113227.923000", "113227.927000", "113227.930000", "113227.934000", "113227.937000", "113227.940000", "113227.944000", "113227.947000", "113227.951000", "113227.954000", "113227.958000", "113227.961000", "113227.964000", "113227.968000", "113227.971000", "113227.975000", "113227.978000", "113227.981000", "113307.855000", "113307.859000", "113307.863000", "113307.866000", "113307.869000", "113307.873000", "113307.876000", "113307.880000", "113307.883000", "113307.887000", "113307.890000", "113307.894000", "113307.897000", "113307.901000", "113307.904000", "113307.908000", "113307.911000", "113307.914000", "113307.918000", "113307.921000", "113307.925000", "113307.928000", "113307.932000", "113307.935000", "113307.938000", "113307.942000", "113307.945000", "113347.855000", "113347.859000", "113347.862000", "113347.866000", "113347.869000", "113347.873000", "113347.876000", "113347.880000", "113347.883000", "113347.887000", "113347.890000", "113347.894000", "113347.897000", "113347.900000", "113347.904000", "113347.907000", "113347.911000", "113347.914000", "113347.918000", "113347.921000", "113347.925000", "113347.928000", "113347.932000", "113347.935000", "113347.938000", "113347.942000", "113347.945000", "113407.856000", "113407.859000", "113407.863000", "113407.866000", "113407.870000", "113407.873000", "113407.877000", "113407.880000", "113407.884000", "113407.887000", "113407.891000", "113407.894000", "113407.897000", "113447.855000", "113447.859000", "113447.862000", "113447.866000", "113447.870000", "113447.873000", "113447.876000", "113447.898000", "113447.901000", "113447.904000", "113447.908000", "113447.911000", "113447.915000", "113447.918000", "113447.921000", "113447.925000", "113447.928000", "113447.932000", "113447.935000", "113447.939000", "113447.942000", "113447.945000", "113447.949000", "113447.952000", "113447.956000", "113447.959000", "113447.963000", "113527.855000", "113527.859000", "113527.863000", "113527.866000", "113527.870000", "113527.873000", "113527.877000", "113527.880000", "113527.884000", "113527.887000", "113527.890000", "113527.894000", "113527.897000", "113527.901000", "113527.904000", "113527.908000", "113527.911000", "113527.915000", "113527.918000", "113527.921000", "113527.925000", "113527.928000", "113527.932000", "113527.935000", "113527.938000", "113527.942000", "113527.945000", "113607.855000", "113607.859000", "113607.862000", "113607.866000", "113607.870000", "113607.873000", "113607.876000", "113607.880000", "113607.883000", "113607.887000", "113607.890000", "113607.894000", "113607.897000", "113607.901000", "113607.904000", "113607.908000", "113607.911000", "113607.914000", "113607.918000", "113607.921000", "113607.925000", "113607.928000", "113607.932000", "113607.935000", "113607.939000", "113607.942000", "113607.945000", "113647.856000", "113647.860000", "113647.864000", "113647.867000", "113647.871000", "113647.875000", "113647.878000", "113647.882000", "113647.885000", "113647.889000", "113647.892000", "113647.895000", "113647.899000", "113647.902000", "113647.906000", "113647.909000", "113647.913000", "113647.916000", "113647.920000", "113647.923000", "113647.926000", "113647.930000", "113647.933000", "113647.937000", "113647.940000", "113647.944000", "113727.855000", "113727.859000", "113727.863000", "113727.866000", "113727.869000", "113727.873000", "113727.876000", "113727.880000", "113727.883000", "113727.887000", "113727.890000", "113727.894000", "113727.897000", "113727.901000", "113727.904000", "113727.907000", "113727.911000", "113727.915000", "113727.918000", "113727.921000", "113727.925000", "113727.928000", "113727.932000", "113727.935000", "113727.939000", "113727.942000", "113727.946000", "113807.855000", "113807.859000", "113807.863000", "113807.866000", "113807.870000", "113807.873000", "113807.876000", "113807.880000", "113807.884000", "113807.887000", "113807.890000", "113807.894000", "113807.897000", "113807.901000", "113807.904000", "113807.908000", "113807.911000", "113807.915000", "113807.918000", "113807.922000", "113807.925000", "113807.928000", "113807.932000", "113807.935000", "113807.939000", "113807.942000", "113807.945000", "113847.855000", "113847.859000", "113847.863000", "113847.866000", "113847.870000", "113847.873000", "113847.877000", "113847.880000", "113847.884000", "113847.887000", "113847.891000", "113847.894000", "113847.897000", "113847.901000", "113847.904000", "113847.908000", "113847.911000", "113847.915000", "113847.918000", "113847.922000", "113847.925000", "113847.930000", "113847.933000", "113847.937000", "113847.940000", "113847.944000", "113847.947000", "113927.856000", "113927.859000", "113927.863000", "113927.866000", "113927.870000", "113927.873000", "113927.885000", "113927.889000", "113927.892000", "113927.896000", "113927.899000", "113927.903000", "113927.906000", "113927.909000", "113927.913000", "113927.917000", "113927.920000", "113927.923000", "113927.927000", "113927.930000", "113927.934000", "113927.937000", "113927.941000", "113927.944000", "113927.948000", "113927.951000", "113927.954000", "113958.791000", "113958.795000", "113958.799000", "113958.802000", "113958.805000", "113958.809000", "113958.812000", "113958.816000", "113958.819000", "113958.823000", "113958.826000", "113958.829000", "113958.833000", "113958.837000", "113958.840000", "113958.843000", "113958.847000", "113958.850000", "113958.854000", "113958.857000", "113958.860000"],
      "InstanceCreationTime": ["113047.903000", "113047.906000", "113047.910000", "113047.913000", "113047.917000", "113047.920000", "113047.924000", "113047.927000", "113047.931000", "113047.934000", "113047.937000", "113047.941000", "113047.944000", "113047.948000", "113047.951000", "113047.954000", "113047.958000", "113047.961000", "113047.965000", "113047.968000", "113047.971000", "113047.975000", "113047.978000", "113047.982000", "113047.991000", "113047.995000", "113047.998000", "113048.003000", "113048.006000", "113048.009000", "113048.013000", "113048.016000", "113048.020000", "113048.023000", "113107.855000", "113107.859000", "113107.863000", "113107.866000", "113107.869000", "113107.873000", "113107.876000", "113107.880000", "113107.883000", "113107.887000", "113107.890000", "113107.894000", "113107.897000", "113107.900000", "113107.904000", "113107.907000", "113107.911000", "113107.914000", "113107.917000", "113107.921000", "113127.855000", "113127.859000", "113127.863000", "113127.866000", "113127.870000", "113127.873000", "113127.877000", "113127.880000", "113127.884000", "113127.896000", "113127.900000", "113127.903000", "113127.906000", "113127.910000", "113127.913000", "113127.917000", "113127.920000", "113127.924000", "113127.927000", "113127.930000", "113147.855000", "113147.859000", "113147.863000", "113147.866000", "113147.869000", "113147.873000", "113147.876000", "113147.880000", "113147.883000", "113147.887000", "113147.890000", "113147.893000", "113147.897000", "113147.900000", "113147.904000", "113147.907000", "113147.910000", "113147.914000", "113147.917000", "113147.921000", "113147.924000", "113227.855000", "113227.859000", "113227.862000", "113227.866000", "113227.870000", "113227.873000", "113227.876000", "113227.880000", "113227.883000", "113227.887000", "113227.890000", "113227.894000", "113227.920000", "113227.923000", "113227.927000", "113227.930000", "113227.934000", "113227.937000", "113227.940000", "113227.944000", "113227.947000", "113227.951000", "113227.954000", "113227.958000", "113227.961000", "113227.964000", "113227.968000", "113227.971000", "113227.975000", "113227.978000", "113227.981000", "113307.855000", "113307.859000", "113307.863000", "113307.866000", "113307.869000", "113307.873000", "113307.876000", "113307.880000", "113307.883000", "113307.887000", "113307.890000", "113307.894000", "113307.897000", "113307.901000", "113307.904000", "113307.908000", "113307.911000", "113307.914000", "113307.918000", "113307.921000", "113307.925000", "113307.928000", "113307.932000", "113307.935000", "113307.938000", "113307.942000", "113307.945000", "113347.855000", "113347.859000", "113347.862000", "113347.866000", "113347.869000", "113347.873000", "113347.876000", "113347.880000", "113347.883000", "113347.887000", "113347.890000", "113347.894000", "113347.897000", "113347.900000", "113347.904000", "113347.907000", "113347.911000", "113347.914000", "113347.918000", "113347.921000", "113347.925000", "113347.928000", "113347.932000", "113347.935000", "113347.938000", "113347.942000", "113347.945000", "113407.856000", "113407.859000", "113407.863000", "113407.866000", "113407.870000", "113407.873000", "113407.877000", "113407.880000", "113407.884000", "113407.887000", "113407.891000", "113407.894000", "113407.897000", "113447.855000", "113447.859000", "113447.862000", "113447.866000", "113447.870000", "113447.873000", "113447.876000", "113447.898000", "113447.901000", "113447.904000", "113447.908000", "113447.911000", "113447.915000", "113447.918000", "113447.921000", "113447.925000", "113447.928000", "113447.932000", "113447.935000", "113447.939000", "113447.942000", "113447.945000", "113447.949000", "113447.952000", "113447.956000", "113447.959000", "113447.963000", "113527.855000", "113527.859000", "113527.863000", "113527.866000", "113527.870000", "113527.873000", "113527.877000", "113527.880000", "113527.884000", "113527.887000", "113527.890000", "113527.894000", "113527.897000", "113527.901000", "113527.904000", "113527.908000", "113527.911000", "113527.915000", "113527.918000", "113527.921000", "113527.925000", "113527.928000", "113527.932000", "113527.935000", "113527.938000", "113527.942000", "113527.945000", "113607.855000", "113607.859000", "113607.862000", "113607.866000", "113607.870000", "113607.873000", "113607.876000", "113607.880000", "113607.883000", "113607.887000", "113607.890000", "113607.894000", "113607.897000", "113607.901000", "113607.904000", "113607.908000", "113607.911000", "113607.914000", "113607.918000", "113607.921000", "113607.925000", "113607.928000", "113607.932000", "113607.935000", "113607.939000", "113607.942000", "113607.945000", "113647.856000", "113647.860000", "113647.864000", "113647.867000", "113647.871000", "113647.875000", "113647.878000", "113647.882000", "113647.885000", "113647.889000", "113647.892000", "113647.895000", "113647.899000", "113647.902000", "113647.906000", "113647.909000", "113647.913000", "113647.916000", "113647.920000", "113647.923000", "113647.926000", "113647.930000", "113647.933000", "113647.937000", "113647.940000", "113647.944000", "113727.855000", "113727.859000", "113727.863000", "113727.866000", "113727.869000", "113727.873000", "113727.876000", "113727.880000", "113727.883000", "113727.887000", "113727.890000", "113727.894000", "113727.897000", "113727.901000", "113727.904000", "113727.907000", "113727.911000", "113727.915000", "113727.918000", "113727.921000", "113727.925000", "113727.928000", "113727.932000", "113727.935000", "113727.939000", "113727.942000", "113727.946000", "113807.855000", "113807.859000", "113807.863000", "113807.866000", "113807.870000", "113807.873000", "113807.876000", "113807.880000", "113807.884000", "113807.887000", "113807.890000", "113807.894000", "113807.897000", "113807.901000", "113807.904000", "113807.908000", "113807.911000", "113807.915000", "113807.918000", "113807.922000", "113807.925000", "113807.928000", "113807.932000", "113807.935000", "113807.939000", "113807.942000", "113807.945000", "113847.855000", "113847.859000", "113847.863000", "113847.866000", "113847.870000", "113847.873000", "113847.877000", "113847.880000", "113847.884000", "113847.887000", "113847.891000", "113847.894000", "113847.897000", "113847.901000", "113847.904000", "113847.908000", "113847.911000", "113847.915000", "113847.918000", "113847.922000", "113847.925000", "113847.930000", "113847.933000", "113847.937000", "113847.940000", "113847.944000", "113847.947000", "113927.856000", "113927.859000", "113927.863000", "113927.866000", "113927.870000", "113927.873000", "113927.885000", "113927.889000", "113927.892000", "113927.896000", "113927.899000", "113927.903000", "113927.906000", "113927.909000", "113927.913000", "113927.917000", "113927.920000", "113927.923000", "113927.927000", "113927.930000", "113927.934000", "113927.937000", "113927.941000", "113927.944000", "113927.948000", "113927.951000", "113927.954000", "113958.791000", "113958.795000", "113958.799000", "113958.802000", "113958.805000", "113958.809000", "113958.812000", "113958.816000", "113958.819000", "113958.823000", "113958.826000", "113958.829000", "113958.833000", "113958.837000", "113958.840000", "113958.843000", "113958.847000", "113958.850000", "113958.854000", "113958.857000", "113958.860000"],
