{
  "AcquisitionMatrixPE": 104,
  "AcquisitionNumber": 1,
  "AcquisitionTime": "11:04:14.715000",
  "BandwidthPerPixelPhaseEncode": 17.17,
  "BaseResolution": 104,
  "BodyPartExamined": "BRAIN",
  "CoilString": "HC1-7;NC1_2",
  "ConsistencyInfo": "N4_VE11C_LATEST_20160120",
  "ConversionSoftware": "dcm2niix",
  "ConversionSoftwareVersion": "v1.0.20190902",
  "DerivedVendorReportedEchoSpacing": 0.000560011,
  "DeviceSerialNumber": "167006",
  "DwellTime": 2.1e-06,
  "EchoTime": 0.037,
  "EchoTrainLength": 104,
  "EffectiveEchoSpacing": 0.000560011,
  "FlipAngle": 52,
  "HeudiconvVersion": "0.10.0",
  "ImageComments": "Unaliased_MB4_PE3_LB",
  "ImageOrientationPatientDICOM": [0.996894, 0.0599839, 0.0510333, -0.0355091, 0.920732, -0.388577],
  "ImageType": [
    "ORIGINAL",
    "PRIMARY",
    "M",
    "MB",
    "ND",
    "MOSAIC"
],
  "ImagingFrequency": 123.259,
  "InPlanePhaseEncodingDirectionDICOM": "COL",
  "InstitutionAddress": "Chemin_Queen-Mary_4565_Montreal_District_CA_H3W_1W5",
  "InstitutionName": "IUGM",
  "InstitutionalDepartmentName": "Department",
  "MRAcquisitionType": "2D",
  "MagneticFieldStrength": 3,
  "Manufacturer": "Siemens",
  "ManufacturersModelName": "Prisma_fit",
  "Modality": "MR",
  "MultibandAccelerationFactor": 4,
  "PartialFourier": 1,
  "PatientPosition": "HFS",
  "PercentPhaseFOV": 100,
  "PhaseEncodingDirection": "j",
  "PhaseEncodingSteps": 104,
  "PhaseResolution": 1,
  "PixelBandwidth": 2290,
  "ProcedureStepDescription": "games_mario",
  "ProtocolName": "func_task-mario_run-01",
  "PulseSequenceDetails": "%CustomerSeq%_cmrr_mbep2d_bold",
  "ReceiveCoilActiveElements": "HC1-7;NC1,2",
  "ReceiveCoilName": "HeadNeck_64",
  "ReconMatrixPE": 104,
  "RepetitionTime": 1.49,
  "SAR": 0.0645903,
  "ScanOptions": "FS",
  "ScanningSequence": "EP",
  "SequenceName": "epfid2d1_104",
  "SequenceVariant": "SK_SS",
  "SeriesDescription": "func_task-mario_run-01",
  "SeriesNumber": 10,
  "ShimSetting": [637, -7193, -8827, 648, 107, -23, -53, -29],
  "SliceThickness": 2,
  "SliceTiming": [0, 0.785, 0.0975, 0.8825, 0.195, 0.98, 0.295, 1.0775, 0.3925, 1.175, 0.49, 1.275, 0.5875, 1.3725, 0.685, 0, 0.785, 0.0975, 0.8825, 0.195, 0.98, 0.295, 1.0775, 0.3925, 1.175, 0.49, 1.275, 0.5875, 1.3725, 0.685, 0, 0.785, 0.0975, 0.8825, 0.195, 0.98, 0.295, 1.0775, 0.3925, 1.175, 0.49, 1.275, 0.5875, 1.3725, 0.685, 0, 0.785, 0.0975, 0.8825, 0.195, 0.98, 0.295, 1.0775, 0.3925, 1.175, 0.49, 1.275, 0.5875, 1.3725, 0.685],
  "SoftwareVersions": "syngo_MR_E11",
  "SpacingBetweenSlices": 2,
  "StationName": "MRC35049",
  "TaskName": "mario",
  "TotalReadoutTime": 0.0576811,
  "TxRefAmp": 300.046,
  "WipMemBlock": "ec9b336b-5341-4d63-93ca-aeaad21510be||Sequence: R016 ve11c/master r/e634e98; Dec 19 2017 11:00:25 by eja",
  "dcmmeta_affine": [
    [-1.9937878847122192, -0.07101813703775406, 0.14059258997440338, 106.92597961425781],
    [-0.11996783316135406, 1.8414638042449951, -0.771115243434906, -50.808773040771484],
    [0.10206650197505951, 0.7771534323692322, 1.8400040864944458, -67.19007873535156],
    [0.0, 0.0, 0.0, 1.0]
],
  "dcmmeta_reorient_transform": [
    [0.0, -1.0, 0.0, 103.0],
    [1.0, 0.0, 0.0, 0.0],
    [0.0, 0.0, 1.0, 0.0],
    [0.0, 0.0, 0.0, 1.0]
],
  "dcmmeta_shape": [104, 104, 60, 443],
  "dcmmeta_slice_dim": 2,
  "dcmmeta_version": 0.6,
  "global": {
    "const": {
      "AcquisitionMatrix": [104, 0, 0, 104],
      "AngioFlag": "N",
      "BitsAllocated": 16,
      "BitsStored": 16,
      "BodyPartExamined": "BRAIN",
      "Columns": 832,
      "EchoNumbers": 1,
      "EchoTime": 37.0,
      "EchoTrainLength": 104,
      "FlipAngle": 52.0,
      "HighBit": 15,
      "ImageOrientationPatient": [0.99689394474694, 0.05998391702056, 0.05103325019781, -0.0355090667288, 0.92073190642214, -0.3885767140171],
      "ImagePositionPatient": [-799.49930187227, -852.82311881526, 258.58836679264],
      "ImageType": [
        "ORIGINAL",
        "PRIMARY",
        "M",
        "MB",
        "ND",
        "MOSAIC"
],
      "ImagedNucleus": "1H",
      "ImagingFrequency": 123.258944,
      "InPlanePhaseEncodingDirection": "COL",
      "MRAcquisitionType": "2D",
      "MagneticFieldStrength": 3.0,
      "Manufacturer": "SIEMENS",
      "ManufacturerModelName": "Prisma_fit",
      "Modality": "MR",
      "NumberOfAverages": 1.0,
      "NumberOfPhaseEncodingSteps": 104,
      "PercentPhaseFieldOfView": 100.0,
      "PercentSampling": 100.0,
      "PerformedProcedureStepStartTime": "103310.149000",
      "PhotometricInterpretation": "MONOCHROME2",
      "PixelBandwidth": 2290.0,
      "PixelRepresentation": 0,
      "PixelSpacing": [2.0, 2.0],
      "ProtocolName": "func_task-mario_run-01",
      "RepetitionTime": 1490.0,
      "Rows": 832,
      "SAR": 0.06459029256159,
      "SamplesPerPixel": 1,
      "ScanOptions": "FS",
      "ScanningSequence": "EP",
      "SequenceName": "epfid2d1_104",
      "SequenceVariant": [
        "SK",
        "SS"
],
      "SeriesDescription": "func_task-mario_run-01",
      "SeriesNumber": 10,
      "SeriesTime": "110518.123000",
      "SliceLocation": -34.708798072063,
      "SliceThickness": 2.0,
      "SmallestImagePixelValue": 0,
      "SoftwareVersions": "syngo MR E11",
      "SpacingBetweenSlices": 2.0000000224972,
      "SpecificCharacterSet": "ISO_IR 100",
      "StudyID": "1",
      "StudyTime": "103310.016000",
      "TransmitCoilName": "Body",
      "VariableFlipAngleFlag": "N",
      "WindowCenterWidthExplanation": "Algo1",
      "dBdt": 0.0},
    "slices": {}
  },
  "time": {
    "samples": {
      "AcquisitionNumber": [1, 2, 3, 4, 5, 6, 7, 8, 9, 10, 11, 12, 13, 14, 15, 16, 17, 18, 19, 20, 21, 22, 23, 24, 25, 26, 27, 28, 29, 30, 31, 32, 33, 34, 35, 36, 37, 38, 39, 40, 41, 42, 43, 44, 45, 46, 47, 48, 49, 50, 51, 52, 53, 54, 55, 56, 57, 58, 59, 60, 61, 62, 63, 64, 65, 66, 67, 68, 69, 70, 71, 72, 73, 74, 75, 76, 77, 78, 79, 80, 81, 82, 83, 84, 85, 86, 87, 88, 89, 90, 91, 92, 93, 94, 95, 96, 97, 98, 99, 100, 101, 102, 103, 104, 105, 106, 107, 108, 109, 110, 111, 112, 113, 114, 115, 116, 117, 118, 119, 120, 121, 122, 123, 124, 125, 126, 127, 128, 129, 130, 131, 132, 133, 134, 135, 136, 137, 138, 139, 140, 141, 142, 143, 144, 145, 146, 147, 148, 149, 150, 151, 152, 153, 154, 155, 156, 157, 158, 159, 160, 161, 162, 163, 164, 165, 166, 167, 168, 169, 170, 171, 172, 173, 174, 175, 176, 177, 178, 179, 180, 181, 182, 183, 184, 185, 186, 187, 188, 189, 190, 191, 192, 193, 194, 195, 196, 197, 198, 199, 200, 201, 202, 203, 204, 205, 206, 207, 208, 209, 210, 211, 212, 213, 214, 215, 216, 217, 218, 219, 220, 221, 222, 223, 224, 225, 226, 227, 228, 229, 230, 231, 232, 233, 234, 235, 236, 237, 238, 239, 240, 241, 242, 243, 244, 245, 246, 247, 248, 249, 250, 251, 252, 253, 254, 255, 256, 257, 258, 259, 260, 261, 262, 263, 264, 265, 266, 267, 268, 269, 270, 271, 272, 273, 274, 275, 276, 277, 278, 279, 280, 281, 282, 283, 284, 285, 286, 287, 288, 289, 290, 291, 292, 293, 294, 295, 296, 297, 298, 299, 300, 301, 302, 303, 304, 305, 306, 307, 308, 309, 310, 311, 312, 313, 314, 315, 316, 317, 318, 319, 320, 321, 322, 323, 324, 325, 326, 327, 328, 329, 330, 331, 332, 333, 334, 335, 336, 337, 338, 339, 340, 341, 342, 343, 344, 345, 346, 347, 348, 349, 350, 351, 352, 353, 354, 355, 356, 357, 358, 359, 360, 361, 362, 363, 364, 365, 366, 367, 368, 369, 370, 371, 372, 373, 374, 375, 376, 377, 378, 379, 380, 381, 382, 383, 384, 385, 386, 387, 388, 389, 390, 391, 392, 393, 394, 395, 396, 397, 398, 399, 400, 401, 402, 403, 404, 405, 406, 407, 408, 409, 410, 411, 412, 413, 414, 415, 416, 417, 418, 419, 420, 421, 422, 423, 424, 425, 426, 427, 428, 429, 430, 431, 432, 433, 434, 435, 436, 437, 438, 439, 440, 441, 442, 443],
      "AcquisitionTime": ["110414.715000", "110416.205000", "110417.695000", "110419.185000", "110420.675000", "110422.165000", "110423.655000", "110425.145000", "110426.635000", "110428.125000", "110429.615000", "110431.105000", "110432.595000", "110434.085000", "110435.575000", "110437.065000", "110438.555000", "110440.045000", "110441.535000", "110443.025000", "110444.515000", "110446.005000", "110447.495000", "110448.985000", "110450.475000", "110451.965000", "110453.455000", "110454.945000", "110456.435000", "110457.925000", "110459.415000", "110500.905000", "110502.395000", "110503.885000", "110505.375000", "110506.865000", "110508.355000", "110509.845000", "110511.335000", "110512.825000", "110514.315000", "110515.805000", "110517.295000", "110518.785000", "110520.275000", "110521.765000", "110523.255000", "110524.745000", "110526.235000", "110527.725000", "110529.215000", "110530.705000", "110532.195000", "110533.685000", "110535.175000", "110536.665000", "110538.155000", "110539.645000", "110541.135000", "110542.625000", "110544.115000", "110545.605000", "110547.095000", "110548.585000", "110550.075000", "110551.565000", "110553.055000", "110554.545000", "110556.035000", "110557.525000", "110559.015000", "110600.505000", "110601.995000", "110603.485000", "110604.975000", "110606.465000", "110607.955000", "110609.445000", "110610.935000", "110612.425000", "110613.915000", "110615.405000", "110616.895000", "110618.385000", "110619.875000", "110621.365000", "110622.855000", "110624.345000", "110625.835000", "110627.325000", "110628.815000", "110630.305000", "110631.795000", "110633.285000", "110634.775000", "110636.265000", "110637.755000", "110639.245000", "110640.735000", "110642.225000", "110643.715000", "110645.205000", "110646.695000", "110648.185000", "110649.675000", "110651.165000", "110652.655000", "110654.145000", "110655.635000", "110657.125000", "110658.615000", "110700.105000", "110701.595000", "110703.085000", "110704.575000", "110706.065000", "110707.555000", "110709.045000", "110710.535000", "110712.025000", "110713.515000", "110715.005000", "110716.495000", "110717.985000", "110719.475000", "110720.965000", "110722.455000", "110723.945000", "110725.435000", "110726.925000", "110728.415000", "110729.905000", "110731.395000", "110732.885000", "110734.375000", "110735.865000", "110737.355000", "110738.845000", "110740.335000", "110741.825000", "110743.315000", "110744.805000", "110746.295000", "110747.785000", "110749.275000", "110750.765000", "110752.255000", "110753.745000", "110755.235000", "110756.725000", "110758.215000", "110759.705000", "110801.195000", "110802.685000", "110804.175000", "110805.665000", "110807.155000", "110808.645000", "110810.135000", "110811.625000", "110813.115000", "110814.605000", "110816.095000", "110817.585000", "110819.075000", "110820.565000", "110822.055000", "110823.545000", "110825.035000", "110826.525000", "110828.015000", "110829.505000", "110830.995000", "110832.485000", "110833.975000", "110835.465000", "110836.955000", "110838.445000", "110839.935000", "110841.425000", "110842.915000", "110844.405000", "110845.895000", "110847.385000", "110848.875000", "110850.365000", "110851.855000", "110853.345000", "110854.835000", "110856.325000", "110857.815000", "110859.305000", "110900.795000", "110902.285000", "110903.775000", "110905.265000", "110906.755000", "110908.245000", "110909.735000", "110911.225000", "110912.715000", "110914.205000", "110915.695000", "110917.185000", "110918.675000", "110920.165000", "110921.655000", "110923.145000", "110924.635000", "110926.125000", "110927.615000", "110929.105000", "110930.595000", "110932.085000", "110933.575000", "110935.065000", "110936.555000", "110938.045000", "110939.535000", "110941.025000", "110942.515000", "110944.005000", "110945.495000", "110946.985000", "110948.475000", "110949.965000", "110951.455000", "110952.945000", "110954.435000", "110955.925000", "110957.415000", "110958.905000", "111000.395000", "111001.885000", "111003.375000", "111004.865000", "111006.355000", "111007.845000", "111009.335000", "111010.825000", "111012.315000", "111013.805000", "111015.295000", "111016.785000", "111018.275000", "111019.765000", "111021.255000", "111022.745000", "111024.235000", "111025.725000", "111027.215000", "111028.705000", "111030.195000", "111031.685000", "111033.175000", "111034.665000", "111036.155000", "111037.645000", "111039.135000", "111040.625000", "111042.115000", "111043.605000", "111045.095000", "111046.585000", "111048.075000", "111049.565000", "111051.055000", "111052.545000", "111054.035000", "111055.525000", "111057.015000", "111058.505000", "111059.995000", "111101.485000", "111102.975000", "111104.465000", "111105.955000", "111107.445000", "111108.935000", "111110.425000", "111111.915000", "111113.405000", "111114.895000", "111116.385000", "111117.875000", "111119.365000", "111120.855000", "111122.345000", "111123.835000", "111125.325000", "111126.815000", "111128.305000", "111129.795000", "111131.285000", "111132.775000", "111134.265000", "111135.755000", "111137.245000", "111138.735000", "111140.225000", "111141.715000", "111143.205000", "111144.695000", "111146.185000", "111147.675000", "111149.165000", "111150.655000", "111152.145000", "111153.635000", "111155.125000", "111156.615000", "111158.105000", "111159.595000", "111201.085000", "111202.575000", "111204.065000", "111205.555000", "111207.045000", "111208.535000", "111210.025000", "111211.515000", "111213.005000", "111214.495000", "111215.985000", "111217.475000", "111218.965000", "111220.455000", "111221.945000", "111223.435000", "111224.925000", "111226.415000", "111227.905000", "111229.395000", "111230.885000", "111232.375000", "111233.865000", "111235.355000", "111236.845000", "111238.335000", "111239.825000", "111241.315000", "111242.805000", "111244.295000", "111245.785000", "111247.275000", "111248.765000", "111250.255000", "111251.745000", "111253.235000", "111254.725000", "111256.215000", "111257.705000", "111259.195000", "111300.685000", "111302.175000", "111303.665000", "111305.155000", "111306.645000", "111308.135000", "111309.625000", "111311.115000", "111312.605000", "111314.095000", "111315.585000", "111317.075000", "111318.565000", "111320.055000", "111321.545000", "111323.035000", "111324.525000", "111326.015000", "111327.505000", "111328.995000", "111330.485000", "111331.975000", "111333.465000", "111334.955000", "111336.445000", "111337.935000", "111339.425000", "111340.915000", "111342.405000", "111343.895000", "111345.385000", "111346.875000", "111348.365000", "111349.855000", "111351.345000", "111352.835000", "111354.325000", "111355.815000", "111357.305000", "111358.795000", "111400.285000", "111401.775000", "111403.265000", "111404.755000", "111406.245000", "111407.735000", "111409.225000", "111410.715000", "111412.205000", "111413.695000", "111415.185000", "111416.675000", "111418.165000", "111419.655000", "111421.145000", "111422.635000", "111424.125000", "111425.615000", "111427.105000", "111428.595000", "111430.085000", "111431.575000", "111433.065000", "111434.555000", "111436.045000", "111437.535000", "111439.025000", "111440.515000", "111442.005000", "111443.495000", "111444.985000", "111446.475000", "111447.965000", "111449.455000", "111450.945000", "111452.435000", "111453.925000", "111455.415000", "111456.905000", "111458.395000", "111459.885000", "111501.375000", "111502.865000", "111504.355000", "111505.845000", "111507.335000", "111508.825000", "111510.315000", "111511.805000", "111513.295000"],
      "ContentTime": ["110518.126000", "110518.134000", "110518.137000", "110518.141000", "110518.151000", "110518.154000", "110518.162000", "110518.166000", "110518.169000", "110558.084000", "110558.088000", "110558.092000", "110558.095000", "110558.098000", "110558.102000", "110558.105000", "110558.109000", "110558.112000", "110558.116000", "110558.119000", "110558.122000", "110558.126000", "110558.129000", "110558.133000", "110558.136000", "110558.139000", "110558.143000", "110558.146000", "110558.150000", "110558.153000", "110558.157000", "110558.160000", "110558.164000", "110558.167000", "110558.171000", "110558.174000", "110558.177000", "110558.181000", "110558.184000", "110558.188000", "110558.191000", "110558.194000", "110558.198000", "110558.201000", "110558.205000", "110558.208000", "110558.212000", "110558.215000", "110618.084000", "110618.088000", "110618.091000", "110618.095000", "110618.098000", "110618.102000", "110618.105000", "110618.109000", "110618.112000", "110618.116000", "110618.119000", "110618.122000", "110618.126000", "110618.129000", "110618.133000", "110618.136000", "110618.140000", "110618.143000", "110618.146000", "110618.161000", "110638.083000", "110638.087000", "110638.090000", "110638.095000", "110638.098000", "110638.102000", "110638.105000", "110638.109000", "110638.112000", "110638.116000", "110638.119000", "110638.123000", "110638.127000", "110638.130000", "110638.134000", "110638.138000", "110638.141000", "110638.144000", "110638.148000", "110638.151000", "110658.083000", "110658.087000", "110658.090000", "110658.094000", "110658.098000", "110658.101000", "110658.104000", "110658.108000", "110658.111000", "110658.114000", "110658.118000", "110658.122000", "110658.125000", "110658.129000", "110658.132000", "110658.135000", "110658.139000", "110658.142000", "110658.145000", "110658.149000", "110738.083000", "110738.087000", "110738.090000", "110738.094000", "110738.097000", "110738.101000", "110738.104000", "110738.108000", "110738.111000", "110738.115000", "110738.118000", "110738.122000", "110738.125000", "110738.128000", "110738.132000", "110738.135000", "110738.139000", "110738.151000", "110738.155000", "110738.158000", "110738.162000", "110738.165000", "110738.168000", "110738.172000", "110738.175000", "110738.179000", "110738.182000", "110818.084000", "110818.088000", "110818.092000", "110818.096000", "110818.099000", "110818.103000", "110818.106000", "110818.109000", "110818.113000", "110818.116000", "110818.120000", "110818.123000", "110818.127000", "110818.130000", "110818.134000", "110818.137000", "110818.141000", "110818.144000", "110818.148000", "110818.151000", "110818.154000", "110818.158000", "110818.161000", "110818.165000", "110818.168000", "110818.172000", "110818.175000", "110858.083000", "110858.087000", "110858.090000", "110858.094000", "110858.107000", "110858.111000", "110858.114000", "110858.118000", "110858.121000", "110858.124000", "110858.128000", "110858.131000", "110858.135000", "110858.138000", "110858.142000", "110858.145000", "110858.149000", "110858.152000", "110858.155000", "110858.159000", "110858.162000", "110858.166000", "110858.169000", "110858.173000", "110858.176000", "110858.180000", "110858.183000", "110938.083000", "110938.087000", "110938.091000", "110938.094000", "110938.098000", "110938.101000", "110938.105000", "110938.108000", "110938.111000", "110938.115000", "110938.118000", "110938.122000", "110938.125000", "110938.129000", "110938.132000", "110938.136000", "110938.139000", "110938.143000", "110938.146000", "110938.149000", "110938.153000", "110938.156000", "110938.160000", "110938.163000", "110938.166000", "110938.170000", "110938.173000", "111018.084000", "111018.088000", "111018.091000", "111018.095000", "111018.099000", "111018.102000", "111018.105000", "111018.109000", "111018.112000", "111018.116000", "111018.119000", "111018.123000", "111018.126000", "111018.130000", "111018.133000", "111018.137000", "111018.140000", "111018.143000", "111018.147000", "111018.150000", "111018.154000", "111018.157000", "111018.161000", "111018.164000", "111018.168000", "111018.171000", "111018.174000", "111058.084000", "111058.089000", "111058.093000", "111058.098000", "111058.101000", "111058.105000", "111058.108000", "111058.112000", "111058.115000", "111058.119000", "111058.122000", "111058.125000", "111058.129000", "111058.132000", "111058.136000", "111058.139000", "111058.142000", "111058.146000", "111058.149000", "111058.153000", "111058.156000", "111058.160000", "111058.163000", "111058.166000", "111058.170000", "111058.173000", "111138.083000", "111138.087000", "111138.091000", "111138.094000", "111138.098000", "111138.101000", "111138.105000", "111138.108000", "111138.111000", "111138.115000", "111138.118000", "111138.122000", "111138.125000", "111138.129000", "111138.132000", "111138.136000", "111138.139000", "111138.143000", "111138.146000", "111138.150000", "111138.153000", "111138.156000", "111138.160000", "111138.163000", "111138.166000", "111138.170000", "111138.174000", "111218.084000", "111218.088000", "111218.091000", "111218.095000", "111218.099000", "111218.102000", "111218.105000", "111218.109000", "111218.112000", "111218.116000", "111218.119000", "111218.123000", "111218.126000", "111218.129000", "111218.133000", "111218.136000", "111218.140000", "111218.143000", "111218.147000", "111218.150000", "111218.154000", "111218.157000", "111218.160000", "111218.164000", "111218.167000", "111218.171000", "111218.174000", "111258.085000", "111258.088000", "111258.092000", "111258.095000", "111258.099000", "111258.102000", "111258.106000", "111258.109000", "111258.112000", "111258.121000", "111258.124000", "111258.128000", "111258.131000", "111258.135000", "111258.138000", "111258.142000", "111258.145000", "111258.149000", "111258.152000", "111258.156000", "111258.159000", "111258.162000", "111258.166000", "111258.169000", "111258.173000", "111258.176000", "111258.180000", "111338.083000", "111338.087000", "111338.091000", "111338.094000", "111338.098000", "111338.101000", "111338.105000", "111338.108000", "111338.112000", "111338.115000", "111338.134000", "111338.138000", "111338.141000", "111338.144000", "111338.148000", "111338.151000", "111338.155000", "111338.158000", "111338.162000", "111338.165000", "111338.169000", "111338.172000", "111338.175000", "111338.179000", "111338.182000", "111338.186000", "111338.189000", "111418.083000", "111418.087000", "111418.091000", "111418.094000", "111418.098000", "111418.102000", "111418.106000", "111418.109000", "111418.113000", "111418.116000", "111418.120000", "111418.123000", "111418.127000", "111418.130000", "111418.134000", "111418.137000", "111418.140000", "111418.144000", "111418.147000", "111418.151000", "111418.154000", "111418.158000", "111418.161000", "111418.165000", "111418.168000", "111418.172000", "111418.175000", "111458.084000", "111458.088000", "111458.092000", "111458.095000", "111458.099000", "111458.102000", "111458.106000", "111458.109000", "111458.113000", "111458.116000", "111458.119000", "111458.123000", "111458.126000", "111458.130000", "111458.133000", "111458.137000", "111458.140000", "111458.144000", "111458.147000", "111458.151000", "111458.154000", "111458.158000", "111458.161000", "111458.164000", "111458.168000", "111458.171000", "111458.175000", "111516.079000", "111516.083000", "111516.086000", "111516.090000", "111516.093000", "111516.108000", "111516.111000", "111516.115000", "111516.118000", "111516.122000", "111516.125000", "111516.128000"],
