{
  "AcquisitionMatrixPE": 104,
  "AcquisitionNumber": 1,
  "AcquisitionTime": "18:27:46.190000",
  "BandwidthPerPixelPhaseEncode": 17.17,
  "BaseResolution": 104,
  "BodyPartExamined": "BRAIN",
  "CoilCombinationMethod": "Sum of Squares",
  "ConsistencyInfo": "N4_VE11C_LATEST_20160120",
  "ConversionSoftware": "dcm2niix",
  "ConversionSoftwareVersion": "v1.0.20211006",
  "DerivedVendorReportedEchoSpacing": 0.000560011,
  "DeviceSerialNumber": "167006",
  "DwellTime": 2.1e-06,
  "EchoTime": 0.037,
  "EchoTrainLength": 104,
  "EffectiveEchoSpacing": 0.000560011,
  "FlipAngle": 52,
  "HeudiconvVersion": "0.10.0",
  "ImageComments": "Unaliased MB4/PE3/LB",
  "ImageOrientationPatientDICOM": [0.999266, 0.0150386, 0.0352406, -0.00662747, 0.973731, -0.227606],
  "ImageOrientationText": "Tra>Cor(-13.1)>Sag(2.2)",
  "ImageType": [
    "ORIGINAL",
    "PRIMARY",
    "M",
    "MB",
    "ND",
    "MOSAIC"
],
  "ImagingFrequency": 123.259,
  "InPlanePhaseEncodingDirectionDICOM": "COL",
  "InstitutionAddress": "Chemin Queen-Mary 4565,Montreal,District,CA,H3W 1W5",
  "InstitutionName": "IUGM",
  "InstitutionalDepartmentName": "Department",
  "MRAcquisitionType": "2D",
  "MagneticFieldStrength": 3,
  "Manufacturer": "Siemens",
  "ManufacturersModelName": "Prisma_fit",
  "MatrixCoilMode": "SENSE",
  "Modality": "MR",
  "MultibandAccelerationFactor": 4,
  "PartialFourier": 1,
  "PatientPosition": "HFS",
  "PercentPhaseFOV": 100,
  "PercentSampling": 100,
  "PhaseEncodingDirection": "j",
  "PhaseEncodingSteps": 104,
  "PhaseResolution": 1,
  "PixelBandwidth": 2290,
  "ProcedureStepDescription": "games^mario",
  "ProtocolName": "func_task-mario_run-02",
  "PulseSequenceDetails": "%CustomerSeq%\\cmrr_mbep2d_bold",
  "ReceiveCoilActiveElements": "HC1-7;NC1,2",
  "ReceiveCoilName": "HeadNeck_64",
  "ReconMatrixPE": 104,
  "RepetitionTime": 1.49,
  "SAR": 0.0604855,
  "ScanOptions": "FS",
  "ScanningSequence": "EP",
  "SequenceName": "epfid2d1_104",
  "SequenceVariant": "SK\\SS",
  "SeriesDescription": "func_task-mario_run-02",
  "SeriesNumber": 13,
  "ShimSetting": [631, -7222, -8739, 748, 14, -40, 93, -6],
  "SliceThickness": 2,
  "SliceTiming": [0, 0.785, 0.0975, 0.8825, 0.1975, 0.98, 0.295, 1.0775, 0.3925, 1.1775, 0.49, 1.275, 0.5875, 1.3725, 0.6875, 0, 0.785, 0.0975, 0.8825, 0.1975, 0.98, 0.295, 1.0775, 0.3925, 1.1775, 0.49, 1.275, 0.5875, 1.3725, 0.6875, 0, 0.785, 0.0975, 0.8825, 0.1975, 0.98, 0.295, 1.0775, 0.3925, 1.1775, 0.49, 1.275, 0.5875, 1.3725, 0.6875, 0, 0.785, 0.0975, 0.8825, 0.1975, 0.98, 0.295, 1.0775, 0.3925, 1.1775, 0.49, 1.275, 0.5875, 1.3725, 0.6875],
  "SoftwareVersions": "syngo MR E11",
  "SpacingBetweenSlices": 2,
  "StationName": "MRC35049",
  "TaskName": "mario",
  "TotalReadoutTime": 0.0576811,
  "TxRefAmp": 264.758,
  "WipMemBlock": "fcf82e3c-06a4-4686-ad12-5bb98a750c02||Sequence: R016 ve11c/master r/e634e98; Dec 19 2017 11:00:25 by eja",
  "dcmmeta_affine": [
    [-1.998531460762024, -0.013254934921860695, 0.07547540217638016, 107.34358215332031],
    [-0.030077241361141205, 1.947461485862732, -0.45441076159477234, -74.17923736572266],
    [0.07048112899065018, 0.45521214604377747, 1.9462307691574097, -50.987918853759766],
    [0.0, 0.0, 0.0, 1.0]
],
  "dcmmeta_reorient_transform": [
    [0.0, -1.0, 0.0, 103.0],
    [1.0, 0.0, 0.0, 0.0],
    [0.0, 0.0, 1.0, 0.0],
    [0.0, 0.0, 0.0, 1.0]
],
  "dcmmeta_shape": [104, 104, 60, 454],
  "dcmmeta_slice_dim": 2,
  "dcmmeta_version": 0.6,
  "global": {
    "const": {
      "AcquisitionMatrix": [104, 0, 0, 104],
      "AngioFlag": "N",
      "BitsAllocated": 16,
      "BitsStored": 16,
      "BodyPartExamined": "BRAIN",
      "Columns": 832,
      "EchoNumbers": 1,
      "EchoTime": 37.0,
      "EchoTrainLength": 104,
      "FlipAngle": 52.0,
      "HighBit": 15,
      "ImageOrientationPatient": [0.99926570163141, 0.01503862092429, 0.035240565032, -0.0066274672567, 0.97373073827663, -0.2276060763974],
      "ImagePositionPatient": [-828.61895874413, -846.23338689972, 135.94102690376],
      "ImageType": [
        "ORIGINAL",
        "PRIMARY",
        "M",
        "MB",
        "ND",
        "MOSAIC"
],
      "ImagedNucleus": "1H",
      "ImagingFrequency": 123.258865,
      "InPlanePhaseEncodingDirection": "COL",
      "MRAcquisitionType": "2D",
      "MagneticFieldStrength": 3.0,
      "Manufacturer": "SIEMENS",
      "ManufacturerModelName": "Prisma_fit",
      "Modality": "MR",
      "NumberOfAverages": 1.0,
      "NumberOfPhaseEncodingSteps": 104,
      "PercentPhaseFieldOfView": 100.0,
      "PercentSampling": 100.0,
      "PerformedProcedureStepStartTime": "180333.074000",
      "PhotometricInterpretation": "MONOCHROME2",
      "PixelBandwidth": 2290.0,
      "PixelRepresentation": 0,
      "PixelSpacing": [2.0, 2.0],
      "ProtocolName": "func_task-mario_run-02",
      "RepetitionTime": 1490.0,
      "Rows": 832,
      "SAR": 0.06048545948839,
      "SamplesPerPixel": 1,
      "ScanOptions": "FS",
      "ScanningSequence": "EP",
      "SequenceName": "epfid2d1_104",
      "SequenceVariant": [
        "SK",
        "SS"
],
      "SeriesDescription": "func_task-mario_run-02",
      "SeriesNumber": 13,
      "SeriesTime": "182908.954000",
      "SliceLocation": -28.712304145739,
      "SliceThickness": 2.0,
      "SmallestImagePixelValue": 0,
      "SoftwareVersions": "syngo MR E11",
      "SpacingBetweenSlices": 1.9999999518915,
      "SpecificCharacterSet": "ISO_IR 100",
      "StudyID": "1",
      "StudyTime": "180332.937000",
      "TransmitCoilName": "Body",
      "VariableFlipAngleFlag": "N",
      "WindowCenterWidthExplanation": "Algo1",
      "dBdt": 0.0},
    "slices": {}
  },
  "time": {
    "samples": {
      "AcquisitionNumber": [1, 2, 3, 4, 5, 6, 7, 8, 9, 10, 11, 12, 13, 14, 15, 16, 17, 18, 19, 20, 21, 22, 23, 24, 25, 26, 27, 28, 29, 30, 31, 32, 33, 34, 35, 36, 37, 38, 39, 40, 41, 42, 43, 44, 45, 46, 47, 48, 49, 50, 51, 52, 53, 54, 55, 56, 57, 58, 59, 60, 61, 62, 63, 64, 65, 66, 67, 68, 69, 70, 71, 72, 73, 74, 75, 76, 77, 78, 79, 80, 81, 82, 83, 84, 85, 86, 87, 88, 89, 90, 91, 92, 93, 94, 95, 96, 97, 98, 99, 100, 101, 102, 103, 104, 105, 106, 107, 108, 109, 110, 111, 112, 113, 114, 115, 116, 117, 118, 119, 120, 121, 122, 123, 124, 125, 126, 127, 128, 129, 130, 131, 132, 133, 134, 135, 136, 137, 138, 139, 140, 141, 142, 143, 144, 145, 146, 147, 148, 149, 150, 151, 152, 153, 154, 155, 156, 157, 158, 159, 160, 161, 162, 163, 164, 165, 166, 167, 168, 169, 170, 171, 172, 173, 174, 175, 176, 177, 178, 179, 180, 181, 182, 183, 184, 185, 186, 187, 188, 189, 190, 191, 192, 193, 194, 195, 196, 197, 198, 199, 200, 201, 202, 203, 204, 205, 206, 207, 208, 209, 210, 211, 212, 213, 214, 215, 216, 217, 218, 219, 220, 221, 222, 223, 224, 225, 226, 227, 228, 229, 230, 231, 232, 233, 234, 235, 236, 237, 238, 239, 240, 241, 242, 243, 244, 245, 246, 247, 248, 249, 250, 251, 252, 253, 254, 255, 256, 257, 258, 259, 260, 261, 262, 263, 264, 265, 266, 267, 268, 269, 270, 271, 272, 273, 274, 275, 276, 277, 278, 279, 280, 281, 282, 283, 284, 285, 286, 287, 288, 289, 290, 291, 292, 293, 294, 295, 296, 297, 298, 299, 300, 301, 302, 303, 304, 305, 306, 307, 308, 309, 310, 311, 312, 313, 314, 315, 316, 317, 318, 319, 320, 321, 322, 323, 324, 325, 326, 327, 328, 329, 330, 331, 332, 333, 334, 335, 336, 337, 338, 339, 340, 341, 342, 343, 344, 345, 346, 347, 348, 349, 350, 351, 352, 353, 354, 355, 356, 357, 358, 359, 360, 361, 362, 363, 364, 365, 366, 367, 368, 369, 370, 371, 372, 373, 374, 375, 376, 377, 378, 379, 380, 381, 382, 383, 384, 385, 386, 387, 388, 389, 390, 391, 392, 393, 394, 395, 396, 397, 398, 399, 400, 401, 402, 403, 404, 405, 406, 407, 408, 409, 410, 411, 412, 413, 414, 415, 416, 417, 418, 419, 420, 421, 422, 423, 424, 425, 426, 427, 428, 429, 430, 431, 432, 433, 434, 435, 436, 437, 438, 439, 440, 441, 442, 443, 444, 445, 446, 447, 448, 449, 450, 451, 452, 453, 454],
      "AcquisitionTime": ["182746.190000", "182747.680000", "182749.170000", "182750.660000", "182752.150000", "182753.640000", "182755.130000", "182756.620000", "182758.110000", "182759.600000", "182801.090000", "182802.580000", "182804.070000", "182805.560000", "182807.050000", "182808.540000", "182810.030000", "182811.520000", "182813.010000", "182814.500000", "182815.990000", "182817.480000", "182818.970000", "182820.460000", "182821.950000", "182823.440000", "182824.930000", "182826.420000", "182827.910000", "182829.400000", "182830.890000", "182832.380000", "182833.870000", "182835.360000", "182836.850000", "182838.340000", "182839.830000", "182841.320000", "182842.810000", "182844.300000", "182845.790000", "182847.280000", "182848.770000", "182850.260000", "182851.750000", "182853.240000", "182854.730000", "182856.220000", "182857.710000", "182859.200000", "182900.690000", "182902.180000", "182903.670000", "182905.160000", "182906.650000", "182908.140000", "182909.630000", "182911.120000", "182912.610000", "182914.100000", "182915.590000", "182917.080000", "182918.570000", "182920.060000", "182921.550000", "182923.040000", "182924.530000", "182926.020000", "182927.510000", "182929.000000", "182930.490000", "182931.980000", "182933.470000", "182934.960000", "182936.450000", "182937.940000", "182939.430000", "182940.920000", "182942.410000", "182943.900000", "182945.390000", "182946.880000", "182948.370000", "182949.860000", "182951.350000", "182952.840000", "182954.330000", "182955.820000", "182957.310000", "182958.800000", "183000.290000", "183001.780000", "183003.270000", "183004.760000", "183006.250000", "183007.740000", "183009.230000", "183010.720000", "183012.210000", "183013.700000", "183015.190000", "183016.680000", "183018.170000", "183019.660000", "183021.150000", "183022.640000", "183024.130000", "183025.620000", "183027.110000", "183028.600000", "183030.090000", "183031.580000", "183033.070000", "183034.560000", "183036.050000", "183037.540000", "183039.030000", "183040.520000", "183042.010000", "183043.500000", "183044.990000", "183046.480000", "183047.970000", "183049.460000", "183050.950000", "183052.440000", "183053.930000", "183055.420000", "183056.910000", "183058.400000", "183059.890000", "183101.380000", "183102.870000", "183104.360000", "183105.850000", "183107.340000", "183108.830000", "183110.320000", "183111.810000", "183113.300000", "183114.790000", "183116.280000", "183117.770000", "183119.260000", "183120.750000", "183122.240000", "183123.730000", "183125.220000", "183126.710000", "183128.200000", "183129.690000", "183131.180000", "183132.670000", "183134.160000", "183135.650000", "183137.140000", "183138.630000", "183140.120000", "183141.610000", "183143.100000", "183144.590000", "183146.080000", "183147.570000", "183149.060000", "183150.550000", "183152.040000", "183153.530000", "183155.020000", "183156.510000", "183158.000000", "183159.490000", "183200.980000", "183202.470000", "183203.960000", "183205.450000", "183206.940000", "183208.430000", "183209.920000", "183211.410000", "183212.900000", "183214.390000", "183215.880000", "183217.370000", "183218.860000", "183220.350000", "183221.840000", "183223.330000", "183224.820000", "183226.310000", "183227.800000", "183229.290000", "183230.780000", "183232.270000", "183233.760000", "183235.250000", "183236.740000", "183238.230000", "183239.720000", "183241.210000", "183242.700000", "183244.190000", "183245.680000", "183247.170000", "183248.660000", "183250.150000", "183251.640000", "183253.130000", "183254.620000", "183256.110000", "183257.600000", "183259.090000", "183300.580000", "183302.070000", "183303.560000", "183305.050000", "183306.540000", "183308.030000", "183309.520000", "183311.010000", "183312.500000", "183313.990000", "183315.480000", "183316.970000", "183318.460000", "183319.950000", "183321.440000", "183322.930000", "183324.420000", "183325.910000", "183327.400000", "183328.890000", "183330.380000", "183331.870000", "183333.360000", "183334.850000", "183336.340000", "183337.830000", "183339.320000", "183340.810000", "183342.300000", "183343.790000", "183345.280000", "183346.770000", "183348.260000", "183349.750000", "183351.240000", "183352.730000", "183354.220000", "183355.710000", "183357.200000", "183358.690000", "183400.180000", "183401.670000", "183403.160000", "183404.650000", "183406.140000", "183407.630000", "183409.120000", "183410.610000", "183412.100000", "183413.590000", "183415.080000", "183416.570000", "183418.060000", "183419.550000", "183421.040000", "183422.530000", "183424.020000", "183425.510000", "183427.000000", "183428.490000", "183429.980000", "183431.470000", "183432.960000", "183434.450000", "183435.940000", "183437.430000", "183438.920000", "183440.410000", "183441.900000", "183443.390000", "183444.880000", "183446.370000", "183447.860000", "183449.350000", "183450.840000", "183452.330000", "183453.820000", "183455.310000", "183456.800000", "183458.290000", "183459.780000", "183501.270000", "183502.760000", "183504.250000", "183505.740000", "183507.230000", "183508.720000", "183510.210000", "183511.700000", "183513.190000", "183514.680000", "183516.170000", "183517.660000", "183519.150000", "183520.640000", "183522.130000", "183523.620000", "183525.110000", "183526.600000", "183528.090000", "183529.580000", "183531.070000", "183532.560000", "183534.050000", "183535.540000", "183537.030000", "183538.520000", "183540.010000", "183541.500000", "183542.990000", "183544.480000", "183545.970000", "183547.460000", "183548.950000", "183550.440000", "183551.930000", "183553.420000", "183554.910000", "183556.400000", "183557.890000", "183559.380000", "183600.870000", "183602.360000", "183603.850000", "183605.340000", "183606.830000", "183608.320000", "183609.810000", "183611.300000", "183612.790000", "183614.280000", "183615.770000", "183617.260000", "183618.750000", "183620.240000", "183621.730000", "183623.220000", "183624.710000", "183626.200000", "183627.690000", "183629.180000", "183630.670000", "183632.160000", "183633.650000", "183635.140000", "183636.630000", "183638.120000", "183639.610000", "183641.100000", "183642.590000", "183644.080000", "183645.570000", "183647.060000", "183648.550000", "183650.040000", "183651.530000", "183653.020000", "183654.510000", "183656.000000", "183657.490000", "183658.980000", "183700.470000", "183701.960000", "183703.450000", "183704.940000", "183706.430000", "183707.920000", "183709.410000", "183710.900000", "183712.390000", "183713.880000", "183715.370000", "183716.860000", "183718.350000", "183719.840000", "183721.330000", "183722.820000", "183724.310000", "183725.800000", "183727.290000", "183728.780000", "183730.270000", "183731.760000", "183733.250000", "183734.740000", "183736.230000", "183737.720000", "183739.210000", "183740.700000", "183742.190000", "183743.680000", "183745.170000", "183746.660000", "183748.150000", "183749.640000", "183751.130000", "183752.620000", "183754.110000", "183755.600000", "183757.090000", "183758.580000", "183800.070000", "183801.560000", "183803.050000", "183804.540000", "183806.030000", "183807.520000", "183809.010000", "183810.500000", "183811.990000", "183813.480000", "183814.970000", "183816.460000", "183817.950000", "183819.440000", "183820.930000", "183822.420000", "183823.910000", "183825.400000", "183826.890000", "183828.380000", "183829.870000", "183831.360000", "183832.850000", "183834.340000", "183835.830000", "183837.320000", "183838.810000", "183840.300000", "183841.790000", "183843.280000", "183844.770000", "183846.260000", "183847.750000", "183849.240000", "183850.730000", "183852.220000", "183853.710000", "183855.200000", "183856.690000", "183858.180000", "183859.670000", "183901.160000"],
      "ContentTime": ["182908.958000", "182908.961000", "182908.965000", "182908.968000", "182908.971000", "182908.975000", "182908.978000", "182908.981000", "182908.985000", "182908.988000", "182908.991000", "182908.995000", "182908.998000", "182909.002000", "182909.005000", "182909.009000", "182909.012000", "182909.016000", "182909.019000", "182909.022000", "182909.025000", "182909.029000", "182909.032000", "182909.035000", "182909.039000", "182909.042000", "182909.045000", "182909.049000", "182928.916000", "182928.920000", "182928.923000", "182928.927000", "182928.930000", "182928.933000", "182928.936000", "182928.940000", "182928.943000", "182928.946000", "182928.950000", "182928.953000", "182928.956000", "182928.960000", "182928.963000", "182928.966000", "182928.971000", "182928.974000", "182928.978000", "182928.981000", "182948.916000", "182948.920000", "182948.923000", "182948.926000", "182948.930000", "182948.933000", "182948.936000", "182948.940000", "182948.943000", "182948.947000", "182948.950000", "182948.953000", "182948.957000", "182948.960000", "182948.963000", "182948.967000", "182948.970000", "182948.983000", "182948.987000", "182948.990000", "183008.916000", "183008.920000", "183008.923000", "183008.926000", "183008.930000", "183008.933000", "183008.937000", "183008.940000", "183008.943000", "183008.946000", "183008.950000", "183008.953000", "183008.956000", "183008.960000", "183008.963000", "183008.966000", "183008.969000", "183008.973000", "183008.976000", "183008.979000", "183028.916000", "183028.920000", "183028.923000", "183028.927000", "183028.930000", "183028.933000", "183028.937000", "183028.940000", "183028.943000", "183028.947000", "183028.950000", "183028.953000", "183028.971000", "183028.975000", "183028.978000", "183028.981000", "183028.985000", "183028.988000", "183028.991000", "183028.994000", "183108.915000", "183108.922000", "183108.925000", "183108.928000", "183108.932000", "183108.935000", "183108.938000", "183108.942000", "183108.945000", "183108.948000", "183108.951000", "183108.955000", "183108.958000", "183108.961000", "183108.965000", "183108.968000", "183108.971000", "183108.975000", "183108.978000", "183108.981000", "183108.984000", "183108.988000", "183108.991000", "183108.994000", "183108.998000", "183109.002000", "183109.005000", "183148.916000", "183148.920000", "183148.923000", "183148.927000", "183148.930000", "183148.934000", "183148.937000", "183148.940000", "183148.944000", "183148.947000", "183148.950000", "183148.954000", "183148.957000", "183148.960000", "183148.963000", "183148.967000", "183148.970000", "183148.973000", "183148.977000", "183148.980000", "183148.984000", "183148.987000", "183148.990000", "183148.994000", "183148.997000", "183149.000000", "183149.004000", "183228.916000", "183228.920000", "183228.923000", "183228.927000", "183228.930000", "183228.934000", "183228.937000", "183228.940000", "183228.944000", "183228.947000", "183228.950000", "183228.954000", "183228.957000", "183228.960000", "183228.964000", "183228.967000", "183228.970000", "183228.974000", "183228.977000", "183228.981000", "183228.984000", "183228.987000", "183228.990000", "183228.994000", "183228.997000", "183229.001000", "183229.005000", "183308.915000", "183308.919000", "183308.922000", "183308.926000", "183308.929000", "183308.932000", "183308.936000", "183308.939000", "183308.942000", "183308.946000", "183308.949000", "183308.972000", "183308.976000", "183308.979000", "183308.982000", "183308.986000", "183308.989000", "183308.992000", "183308.995000", "183309.000000", "183309.003000", "183309.007000", "183309.010000", "183309.014000", "183309.017000", "183309.020000", "183309.024000", "183348.915000", "183348.919000", "183348.923000", "183348.926000", "183348.929000", "183348.933000", "183348.936000", "183348.939000", "183348.943000", "183348.946000", "183348.949000", "183348.953000", "183348.956000", "183348.959000", "183348.963000", "183348.966000", "183348.969000", "183348.973000", "183348.976000", "183348.979000", "183348.983000", "183348.986000", "183348.989000", "183348.993000", "183348.996000", "183349.000000", "183349.004000", "183428.916000", "183428.920000", "183428.923000", "183428.927000", "183428.930000", "183428.933000", "183428.937000", "183428.940000", "183428.943000", "183428.947000", "183428.950000", "183428.954000", "183428.957000", "183428.960000", "183428.963000", "183428.967000", "183428.970000", "183428.974000", "183428.977000", "183428.980000", "183428.984000", "183428.987000", "183428.990000", "183428.994000", "183428.997000", "183429.001000", "183429.005000", "183508.916000", "183508.920000", "183508.924000", "183508.927000", "183508.930000", "183508.934000", "183508.937000", "183508.940000", "183508.944000", "183508.947000", "183508.951000", "183508.954000", "183508.957000", "183508.961000", "183508.964000", "183508.967000", "183508.971000", "183508.974000", "183508.978000", "183508.981000", "183508.984000", "183508.989000", "183508.992000", "183508.996000", "183509.000000", "183509.004000", "183548.915000", "183548.919000", "183548.923000", "183548.926000", "183548.929000", "183548.933000", "183548.936000", "183548.939000", "183548.943000", "183548.946000", "183548.950000", "183548.953000", "183548.956000", "183548.960000", "183548.963000", "183548.966000", "183548.970000", "183548.973000", "183548.977000", "183548.980000", "183548.983000", "183548.987000", "183548.990000", "183548.993000", "183548.997000", "183549.000000", "183549.003000", "183628.916000", "183628.920000", "183628.923000", "183628.927000", "183628.930000", "183628.933000", "183628.937000", "183628.940000", "183628.943000", "183628.947000", "183628.950000", "183628.954000", "183628.957000", "183628.960000", "183628.964000", "183628.967000", "183628.970000", "183628.974000", "183628.977000", "183628.981000", "183628.984000", "183628.987000", "183628.990000", "183628.994000", "183628.997000", "183629.001000", "183629.004000", "183708.917000", "183708.920000", "183708.924000", "183708.927000", "183708.931000", "183708.934000", "183708.937000", "183708.941000", "183708.944000", "183708.948000", "183708.951000", "183708.954000", "183708.957000", "183708.969000", "183708.972000", "183708.975000", "183708.979000", "183708.982000", "183708.986000", "183708.989000", "183708.992000", "183708.996000", "183709.000000", "183709.003000", "183709.007000", "183709.010000", "183709.014000", "183748.915000", "183748.919000", "183748.922000", "183748.926000", "183748.929000", "183748.933000", "183748.936000", "183748.939000", "183748.943000", "183748.946000", "183748.959000", "183748.962000", "183748.966000", "183748.969000", "183748.972000", "183748.976000", "183748.979000", "183748.983000", "183748.986000", "183748.989000", "183748.993000", "183748.996000", "183749.000000", "183749.004000", "183749.007000", "183749.010000", "183749.014000", "183828.915000", "183828.919000", "183828.923000", "183828.926000", "183828.929000", "183828.933000", "183828.937000", "183828.940000", "183828.943000", "183828.947000", "183828.950000", "183828.953000", "183828.957000", "183828.960000", "183828.963000", "183828.967000", "183828.970000", "183828.974000", "183828.977000", "183828.980000", "183828.984000", "183828.987000", "183828.990000", "183828.994000", "183828.997000", "183829.001000", "183829.005000", "183903.122000", "183903.125000", "183903.129000", "183903.138000", "183903.141000", "183903.144000", "183903.148000", "183903.151000", "183903.155000", "183903.158000", "183903.161000", "183903.165000", "183903.168000", "183903.171000", "183903.175000", "183903.178000", "183903.181000", "183903.185000", "183903.188000", "183903.191000", "183903.195000", "183903.198000", "183903.201000"],
