{
  "AcquisitionMatrixPE": 104,
  "AcquisitionNumber": 1,
  "AcquisitionTime": "18:14:13.550000",
  "BandwidthPerPixelPhaseEncode": 17.17,
  "BaseResolution": 104,
  "BodyPartExamined": "BRAIN",
  "CoilCombinationMethod": "Sum of Squares",
  "ConsistencyInfo": "N4_VE11C_LATEST_20160120",
  "ConversionSoftware": "dcm2niix",
  "ConversionSoftwareVersion": "v1.0.20211006",
  "DerivedVendorReportedEchoSpacing": 0.000560011,
  "DeviceSerialNumber": "167006",
  "DwellTime": 2.1e-06,
  "EchoTime": 0.037,
  "EchoTime1": 0.037,
  "EchoTime2": 0.001,
  "EchoTrainLength": 104,
  "EffectiveEchoSpacing": 0.000560011,
  "FlipAngle": 52,
  "HeudiconvVersion": "0.10.0",
  "ImageComments": "Unaliased MB4/PE3/LB",
  "ImageOrientationPatientDICOM": [0.999266, 0.0150386, 0.0352406, -0.00662747, 0.973731, -0.227606],
  "ImageOrientationText": "Tra>Cor(-13.1)>Sag(2.2)",
  "ImageType": [
    "ORIGINAL",
    "PRIMARY",
    "P",
    "MB",
    "ND",
    "MOSAIC",
    "PHASE"
],
  "ImagingFrequency": 123.259,
  "InPlanePhaseEncodingDirectionDICOM": "COL",
  "InstitutionAddress": "Chemin Queen-Mary 4565,Montreal,District,CA,H3W 1W5",
  "InstitutionName": "IUGM",
  "InstitutionalDepartmentName": "Department",
  "MRAcquisitionType": "2D",
  "MagneticFieldStrength": 3,
  "Manufacturer": "Siemens",
  "ManufacturersModelName": "Prisma_fit",
  "MatrixCoilMode": "SENSE",
  "Modality": "MR",
  "MultibandAccelerationFactor": 4,
  "PartialFourier": 1,
  "PatientPosition": "HFS",
  "PercentPhaseFOV": 100,
  "PercentSampling": 100,
  "PhaseEncodingDirection": "j",
  "PhaseEncodingSteps": 104,
  "PhaseResolution": 1,
  "PixelBandwidth": 2290,
  "ProcedureStepDescription": "games^mario",
  "ProtocolName": "func_task-mario_run-01",
  "PulseSequenceDetails": "%CustomerSeq%\\cmrr_mbep2d_bold",
  "ReceiveCoilActiveElements": "HC1-7;NC1,2",
  "ReceiveCoilName": "HeadNeck_64",
  "ReconMatrixPE": 104,
  "RepetitionTime": 1.49,
  "SAR": 0.0604855,
  "ScanOptions": "FS",
  "ScanningSequence": "EP",
  "SequenceName": "epfid2d1_104",
  "SequenceVariant": "SK\\SS",
  "SeriesDescription": "func_task-mario_run-01",
  "SeriesNumber": 11,
  "ShimSetting": [631, -7222, -8739, 748, 14, -40, 93, -6],
  "SliceThickness": 2,
  "SliceTiming": [0, 0.785, 0.0975, 0.8825, 0.1975, 0.98, 0.295, 1.0775, 0.3925, 1.1775, 0.49, 1.275, 0.5875, 1.3725, 0.6875, 0, 0.785, 0.0975, 0.8825, 0.1975, 0.98, 0.295, 1.0775, 0.3925, 1.1775, 0.49, 1.275, 0.5875, 1.3725, 0.6875, 0, 0.785, 0.0975, 0.8825, 0.1975, 0.98, 0.295, 1.0775, 0.3925, 1.1775, 0.49, 1.275, 0.5875, 1.3725, 0.6875, 0, 0.785, 0.0975, 0.8825, 0.1975, 0.98, 0.295, 1.0775, 0.3925, 1.1775, 0.49, 1.275, 0.5875, 1.3725, 0.6875],
  "SoftwareVersions": "syngo MR E11",
  "SpacingBetweenSlices": 2,
  "StationName": "MRC35049",
  "TaskName": "mario",
  "TotalReadoutTime": 0.0576811,
  "TxRefAmp": 264.758,
  "WipMemBlock": "1dd7b7d4-5c3a-4b65-8413-bcae5fef028a||Sequence: R016 ve11c/master r/e634e98; Dec 19 2017 11:00:25 by eja",
  "dcmmeta_affine": [
    [-1.998531460762024, -0.013254934921860695, 0.07547540217638016, 107.34358215332031],
    [-0.030077241361141205, 1.947461485862732, -0.45441076159477234, -74.17923736572266],
    [0.07048112899065018, 0.45521214604377747, 1.9462307691574097, -50.987918853759766],
    [0.0, 0.0, 0.0, 1.0]
],
  "dcmmeta_reorient_transform": [
    [0.0, -1.0, 0.0, 103.0],
    [1.0, 0.0, 0.0, 0.0],
    [0.0, 0.0, 1.0, 0.0],
    [0.0, 0.0, 0.0, 1.0]
],
  "dcmmeta_shape": [104, 104, 60, 491],
  "dcmmeta_slice_dim": 2,
  "dcmmeta_version": 0.6,
  "global": {
    "const": {
      "AcquisitionMatrix": [104, 0, 0, 104],
      "AngioFlag": "N",
      "BitsAllocated": 16,
      "BitsStored": 16,
      "BodyPartExamined": "BRAIN",
      "Columns": 832,
      "EchoNumbers": 1,
      "EchoTime": 37.0,
      "EchoTrainLength": 104,
      "FlipAngle": 52.0,
      "HighBit": 15,
      "ImageOrientationPatient": [0.99926570163141, 0.01503862092429, 0.035240565032, -0.0066274672567, 0.97373073827663, -0.2276060763974],
      "ImagePositionPatient": [-828.61895874413, -846.23338689972, 135.94102690376],
      "ImageType": [
        "ORIGINAL",
        "PRIMARY",
        "P",
        "MB",
        "ND",
        "MOSAIC"
],
      "ImagedNucleus": "1H",
      "ImagingFrequency": 123.25885,
      "InPlanePhaseEncodingDirection": "COL",
      "LargestImagePixelValue": 4095,
      "MRAcquisitionType": "2D",
      "MagneticFieldStrength": 3.0,
      "Manufacturer": "SIEMENS",
      "ManufacturerModelName": "Prisma_fit",
      "Modality": "MR",
      "NumberOfAverages": 1.0,
      "NumberOfPhaseEncodingSteps": 104,
      "PercentPhaseFieldOfView": 100.0,
      "PercentSampling": 100.0,
      "PerformedProcedureStepStartTime": "180333.074000",
      "PhotometricInterpretation": "MONOCHROME2",
      "PixelBandwidth": 2290.0,
      "PixelRepresentation": 0,
      "PixelSpacing": [2.0, 2.0],
      "ProtocolName": "func_task-mario_run-01",
      "RepetitionTime": 1490.0,
      "RescaleIntercept": -4096.0,
      "RescaleSlope": 2.0,
      "RescaleType": "US",
      "Rows": 832,
      "SAR": 0.06048545948839,
      "SamplesPerPixel": 1,
      "ScanOptions": "FS",
      "ScanningSequence": "EP",
      "SequenceName": "epfid2d1_104",
      "SequenceVariant": [
        "SK",
        "SS"
],
      "SeriesDescription": "func_task-mario_run-01",
      "SeriesNumber": 11,
      "SeriesTime": "181531.508000",
      "SliceLocation": -28.712304145739,
      "SliceThickness": 2.0,
      "SmallestImagePixelValue": 0,
      "SoftwareVersions": "syngo MR E11",
      "SpacingBetweenSlices": 1.9999999518915,
      "SpecificCharacterSet": "ISO_IR 100",
      "StudyID": "1",
      "StudyTime": "180332.937000",
      "TransmitCoilName": "Body",
      "VariableFlipAngleFlag": "N",
      "WindowCenterWidthExplanation": "Algo1",
      "dBdt": 0.0},
    "slices": {}
  },
  "time": {
    "samples": {
      "AcquisitionNumber": [1, 2, 3, 4, 5, 6, 7, 8, 9, 10, 11, 12, 13, 14, 15, 16, 17, 18, 19, 20, 21, 22, 23, 24, 25, 26, 27, 28, 29, 30, 31, 32, 33, 34, 35, 36, 37, 38, 39, 40, 41, 42, 43, 44, 45, 46, 47, 48, 49, 50, 51, 52, 53, 54, 55, 56, 57, 58, 59, 60, 61, 62, 63, 64, 65, 66, 67, 68, 69, 70, 71, 72, 73, 74, 75, 76, 77, 78, 79, 80, 81, 82, 83, 84, 85, 86, 87, 88, 89, 90, 91, 92, 93, 94, 95, 96, 97, 98, 99, 100, 101, 102, 103, 104, 105, 106, 107, 108, 109, 110, 111, 112, 113, 114, 115, 116, 117, 118, 119, 120, 121, 122, 123, 124, 125, 126, 127, 128, 129, 130, 131, 132, 133, 134, 135, 136, 137, 138, 139, 140, 141, 142, 143, 144, 145, 146, 147, 148, 149, 150, 151, 152, 153, 154, 155, 156, 157, 158, 159, 160, 161, 162, 163, 164, 165, 166, 167, 168, 169, 170, 171, 172, 173, 174, 175, 176, 177, 178, 179, 180, 181, 182, 183, 184, 185, 186, 187, 188, 189, 190, 191, 192, 193, 194, 195, 196, 197, 198, 199, 200, 201, 202, 203, 204, 205, 206, 207, 208, 209, 210, 211, 212, 213, 214, 215, 216, 217, 218, 219, 220, 221, 222, 223, 224, 225, 226, 227, 228, 229, 230, 231, 232, 233, 234, 235, 236, 237, 238, 239, 240, 241, 242, 243, 244, 245, 246, 247, 248, 249, 250, 251, 252, 253, 254, 255, 256, 257, 258, 259, 260, 261, 262, 263, 264, 265, 266, 267, 268, 269, 270, 271, 272, 273, 274, 275, 276, 277, 278, 279, 280, 281, 282, 283, 284, 285, 286, 287, 288, 289, 290, 291, 292, 293, 294, 295, 296, 297, 298, 299, 300, 301, 302, 303, 304, 305, 306, 307, 308, 309, 310, 311, 312, 313, 314, 315, 316, 317, 318, 319, 320, 321, 322, 323, 324, 325, 326, 327, 328, 329, 330, 331, 332, 333, 334, 335, 336, 337, 338, 339, 340, 341, 342, 343, 344, 345, 346, 347, 348, 349, 350, 351, 352, 353, 354, 355, 356, 357, 358, 359, 360, 361, 362, 363, 364, 365, 366, 367, 368, 369, 370, 371, 372, 373, 374, 375, 376, 377, 378, 379, 380, 381, 382, 383, 384, 385, 386, 387, 388, 389, 390, 391, 392, 393, 394, 395, 396, 397, 398, 399, 400, 401, 402, 403, 404, 405, 406, 407, 408, 409, 410, 411, 412, 413, 414, 415, 416, 417, 418, 419, 420, 421, 422, 423, 424, 425, 426, 427, 428, 429, 430, 431, 432, 433, 434, 435, 436, 437, 438, 439, 440, 441, 442, 443, 444, 445, 446, 447, 448, 449, 450, 451, 452, 453, 454, 455, 456, 457, 458, 459, 460, 461, 462, 463, 464, 465, 466, 467, 468, 469, 470, 471, 472, 473, 474, 475, 476, 477, 478, 479, 480, 481, 482, 483, 484, 485, 486, 487, 488, 489, 490, 491],
      "AcquisitionTime": ["181413.550000", "181415.040000", "181416.530000", "181418.020000", "181419.510000", "181421.000000", "181422.490000", "181423.980000", "181425.470000", "181426.960000", "181428.450000", "181429.940000", "181431.430000", "181432.920000", "181434.410000", "181435.900000", "181437.390000", "181438.880000", "181440.370000", "181441.860000", "181443.350000", "181444.840000", "181446.330000", "181447.820000", "181449.310000", "181450.800000", "181452.290000", "181453.780000", "181455.270000", "181456.760000", "181458.250000", "181459.740000", "181501.230000", "181502.720000", "181504.210000", "181505.700000", "181507.190000", "181508.680000", "181510.170000", "181511.660000", "181513.150000", "181514.640000", "181516.130000", "181517.620000", "181519.110000", "181520.600000", "181522.090000", "181523.580000", "181525.070000", "181526.560000", "181528.050000", "181529.540000", "181531.030000", "181532.520000", "181534.010000", "181535.500000", "181536.990000", "181538.480000", "181539.970000", "181541.460000", "181542.950000", "181544.440000", "181545.930000", "181547.420000", "181548.910000", "181550.400000", "181551.890000", "181553.380000", "181554.870000", "181556.360000", "181557.850000", "181559.340000", "181600.830000", "181602.320000", "181603.810000", "181605.300000", "181606.790000", "181608.280000", "181609.770000", "181611.260000", "181612.750000", "181614.240000", "181615.730000", "181617.220000", "181618.710000", "181620.200000", "181621.690000", "181623.180000", "181624.670000", "181626.160000", "181627.650000", "181629.140000", "181630.630000", "181632.120000", "181633.610000", "181635.100000", "181636.590000", "181638.080000", "181639.570000", "181641.060000", "181642.550000", "181644.040000", "181645.530000", "181647.020000", "181648.510000", "181650.000000", "181651.490000", "181652.980000", "181654.470000", "181655.960000", "181657.450000", "181658.940000", "181700.430000", "181701.920000", "181703.410000", "181704.900000", "181706.390000", "181707.880000", "181709.370000", "181710.860000", "181712.350000", "181713.840000", "181715.330000", "181716.820000", "181718.310000", "181719.800000", "181721.290000", "181722.780000", "181724.270000", "181725.760000", "181727.250000", "181728.740000", "181730.230000", "181731.720000", "181733.210000", "181734.700000", "181736.190000", "181737.680000", "181739.170000", "181740.660000", "181742.150000", "181743.640000", "181745.130000", "181746.620000", "181748.110000", "181749.600000", "181751.090000", "181752.580000", "181754.070000", "181755.560000", "181757.050000", "181758.540000", "181800.030000", "181801.520000", "181803.010000", "181804.500000", "181805.990000", "181807.480000", "181808.970000", "181810.460000", "181811.950000", "181813.440000", "181814.930000", "181816.420000", "181817.910000", "181819.400000", "181820.890000", "181822.380000", "181823.870000", "181825.360000", "181826.850000", "181828.340000", "181829.830000", "181831.320000", "181832.810000", "181834.300000", "181835.790000", "181837.280000", "181838.770000", "181840.260000", "181841.750000", "181843.240000", "181844.730000", "181846.220000", "181847.710000", "181849.200000", "181850.690000", "181852.180000", "181853.670000", "181855.160000", "181856.650000", "181858.140000", "181859.630000", "181901.120000", "181902.610000", "181904.100000", "181905.590000", "181907.080000", "181908.570000", "181910.060000", "181911.550000", "181913.040000", "181914.530000", "181916.020000", "181917.510000", "181919.000000", "181920.490000", "181921.980000", "181923.470000", "181924.960000", "181926.450000", "181927.940000", "181929.430000", "181930.920000", "181932.410000", "181933.900000", "181935.390000", "181936.880000", "181938.370000", "181939.860000", "181941.350000", "181942.840000", "181944.330000", "181945.820000", "181947.310000", "181948.800000", "181950.290000", "181951.780000", "181953.270000", "181954.760000", "181956.250000", "181957.740000", "181959.230000", "182000.720000", "182002.210000", "182003.700000", "182005.190000", "182006.680000", "182008.170000", "182009.660000", "182011.150000", "182012.640000", "182014.130000", "182015.620000", "182017.110000", "182018.600000", "182020.090000", "182021.580000", "182023.070000", "182024.560000", "182026.050000", "182027.540000", "182029.030000", "182030.520000", "182032.010000", "182033.500000", "182034.990000", "182036.480000", "182037.970000", "182039.460000", "182040.950000", "182042.440000", "182043.930000", "182045.420000", "182046.910000", "182048.400000", "182049.890000", "182051.380000", "182052.870000", "182054.360000", "182055.850000", "182057.340000", "182058.830000", "182100.320000", "182101.810000", "182103.300000", "182104.790000", "182106.280000", "182107.770000", "182109.260000", "182110.750000", "182112.240000", "182113.730000", "182115.220000", "182116.710000", "182118.200000", "182119.690000", "182121.180000", "182122.670000", "182124.160000", "182125.650000", "182127.140000", "182128.630000", "182130.120000", "182131.610000", "182133.100000", "182134.590000", "182136.080000", "182137.570000", "182139.060000", "182140.550000", "182142.040000", "182143.530000", "182145.020000", "182146.510000", "182148.000000", "182149.490000", "182150.980000", "182152.470000", "182153.960000", "182155.450000", "182156.940000", "182158.430000", "182159.920000", "182201.410000", "182202.900000", "182204.390000", "182205.880000", "182207.370000", "182208.860000", "182210.350000", "182211.840000", "182213.330000", "182214.820000", "182216.310000", "182217.800000", "182219.290000", "182220.780000", "182222.270000", "182223.760000", "182225.250000", "182226.740000", "182228.230000", "182229.720000", "182231.210000", "182232.700000", "182234.190000", "182235.680000", "182237.170000", "182238.660000", "182240.150000", "182241.640000", "182243.130000", "182244.620000", "182246.110000", "182247.600000", "182249.090000", "182250.580000", "182252.070000", "182253.560000", "182255.050000", "182256.540000", "182258.030000", "182259.520000", "182301.010000", "182302.500000", "182303.990000", "182305.480000", "182306.970000", "182308.460000", "182309.950000", "182311.440000", "182312.930000", "182314.420000", "182315.910000", "182317.400000", "182318.890000", "182320.380000", "182321.870000", "182323.360000", "182324.850000", "182326.340000", "182327.830000", "182329.320000", "182330.810000", "182332.300000", "182333.790000", "182335.280000", "182336.770000", "182338.260000", "182339.750000", "182341.240000", "182342.730000", "182344.220000", "182345.710000", "182347.200000", "182348.690000", "182350.180000", "182351.670000", "182353.160000", "182354.650000", "182356.140000", "182357.630000", "182359.120000", "182400.610000", "182402.100000", "182403.590000", "182405.080000", "182406.570000", "182408.060000", "182409.550000", "182411.040000", "182412.530000", "182414.020000", "182415.510000", "182417.000000", "182418.490000", "182419.980000", "182421.470000", "182422.960000", "182424.450000", "182425.940000", "182427.430000", "182428.920000", "182430.410000", "182431.900000", "182433.390000", "182434.880000", "182436.370000", "182437.860000", "182439.350000", "182440.840000", "182442.330000", "182443.820000", "182445.310000", "182446.800000", "182448.290000", "182449.780000", "182451.270000", "182452.760000", "182454.250000", "182455.740000", "182457.230000", "182458.720000", "182500.210000", "182501.700000", "182503.190000", "182504.680000", "182506.170000", "182507.660000", "182509.150000", "182510.640000", "182512.130000", "182513.620000", "182515.110000", "182516.600000", "182518.090000", "182519.580000", "182521.070000", "182522.560000", "182524.050000", "182525.540000", "182527.030000", "182528.520000", "182530.010000", "182531.500000", "182532.990000", "182534.480000", "182535.970000", "182537.460000", "182538.950000", "182540.440000", "182541.930000", "182543.420000", "182544.910000", "182546.400000", "182547.890000", "182549.380000", "182550.870000", "182552.360000", "182553.850000", "182555.340000", "182556.830000", "182558.320000", "182559.810000", "182601.300000", "182602.790000", "182604.280000", "182605.770000", "182607.260000", "182608.750000", "182610.240000", "182611.730000", "182613.220000", "182614.710000", "182616.200000", "182617.690000", "182619.180000", "182620.670000", "182622.160000", "182623.650000"],
      "ContentTime": ["181531.510000", "181531.513000", "181531.515000", "181531.517000", "181531.520000", "181531.523000", "181531.525000", "181531.528000", "181531.530000", "181531.533000", "181531.535000", "181531.538000", "181531.540000", "181531.543000", "181531.545000", "181531.550000", "181531.552000", "181531.555000", "181531.557000", "181531.559000", "181531.562000", "181531.565000", "181531.567000", "181611.564000", "181611.566000", "181611.569000", "181611.571000", "181611.574000", "181611.577000", "181611.579000", "181611.582000", "181611.584000", "181611.587000", "181611.589000", "181611.591000", "181611.594000", "181611.597000", "181611.599000", "181611.601000", "181611.604000", "181611.606000", "181611.609000", "181611.611000", "181611.614000", "181611.617000", "181611.619000", "181611.622000", "181611.624000", "181611.627000", "181611.629000", "181611.632000", "181611.634000", "181611.637000", "181611.639000", "181611.642000", "181611.644000", "181611.647000", "181611.649000", "181611.652000", "181611.656000", "181611.659000", "181611.661000", "181611.664000", "181631.453000", "181631.456000", "181631.459000", "181631.461000", "181631.464000", "181631.466000", "181631.469000", "181631.471000", "181631.474000", "181631.476000", "181631.488000", "181631.491000", "181631.493000", "181631.496000", "181631.498000", "181631.501000", "181631.504000", "181631.506000", "181631.508000", "181631.511000", "181651.458000", "181651.461000", "181651.463000", "181651.466000", "181651.468000", "181651.471000", "181651.473000", "181651.476000", "181651.478000", "181651.481000", "181651.483000", "181651.486000", "181651.488000", "181651.491000", "181651.493000", "181651.496000", "181651.498000", "181651.501000", "181651.503000", "181651.506000", "181731.495000", "181731.497000", "181731.500000", "181731.502000", "181731.505000", "181731.507000", "181731.510000", "181731.512000", "181731.515000", "181731.517000", "181731.520000", "181731.522000", "181731.530000", "181731.532000", "181731.536000", "181731.538000", "181731.541000", "181731.543000", "181731.546000", "181731.548000", "181731.551000", "181731.553000", "181731.556000", "181731.558000", "181731.561000", "181731.563000", "181731.566000", "181731.568000", "181731.571000", "181811.480000", "181811.483000", "181811.485000", "181811.488000", "181811.490000", "181811.493000", "181811.495000", "181811.498000", "181811.500000", "181811.503000", "181811.505000", "181811.508000", "181811.510000", "181811.513000", "181811.515000", "181811.518000", "181811.520000", "181811.523000", "181811.525000", "181811.528000", "181811.531000", "181811.533000", "181811.536000", "181811.538000", "181811.541000", "181811.543000", "181811.546000", "181851.499000", "181851.501000", "181851.504000", "181851.506000", "181851.509000", "181851.511000", "181851.514000", "181851.517000", "181851.519000", "181851.521000", "181851.524000", "181851.527000", "181851.529000", "181851.531000", "181851.534000", "181851.537000", "181851.539000", "181851.541000", "181851.544000", "181851.547000", "181851.549000", "181851.551000", "181851.554000", "181851.556000", "181851.559000", "181851.561000", "181931.483000", "181931.486000", "181931.489000", "181931.491000", "181931.494000", "181931.496000", "181931.499000", "181931.501000", "181931.504000", "181931.506000", "181931.509000", "181931.511000", "181931.514000", "181931.516000", "181931.520000", "181931.523000", "181931.525000", "181931.528000", "181931.530000", "181931.533000", "181931.535000", "181931.538000", "181931.540000", "181931.543000", "181931.545000", "181931.548000", "181931.550000", "182011.943000", "182011.945000", "182011.948000", "182011.950000", "182011.953000", "182011.955000", "182011.958000", "182011.960000", "182011.963000", "182011.965000", "182011.976000", "182011.979000", "182011.981000", "182011.984000", "182011.986000", "182011.989000", "182011.991000", "182011.994000", "182011.997000", "182012.000000", "182012.003000", "182012.005000", "182012.008000", "182012.010000", "182012.013000", "182012.015000", "182012.018000", "182051.477000", "182051.480000", "182051.482000", "182051.485000", "182051.487000", "182051.490000", "182051.492000", "182051.495000", "182051.497000", "182051.500000", "182051.502000", "182051.505000", "182051.507000", "182051.510000", "182051.512000", "182051.515000", "182051.518000", "182051.520000", "182051.522000", "182051.525000", "182051.528000", "182051.530000", "182051.533000", "182051.535000", "182051.538000", "182051.540000", "182051.543000", "182131.473000", "182131.476000", "182131.478000", "182131.481000", "182131.483000", "182131.486000", "182131.488000", "182131.491000", "182131.493000", "182131.496000", "182131.498000", "182131.501000", "182131.503000", "182131.506000", "182131.508000", "182131.511000", "182131.513000", "182131.516000", "182131.518000", "182131.521000", "182131.523000", "182131.526000", "182131.528000", "182131.531000", "182131.533000", "182131.536000", "182131.538000", "182151.424000", "182151.427000", "182151.430000", "182151.432000", "182151.435000", "182151.437000", "182151.440000", "182151.442000", "182151.445000", "182151.447000", "182151.450000", "182151.452000", "182151.455000", "182231.491000", "182231.494000", "182231.496000", "182231.499000", "182231.501000", "182231.504000", "182231.512000", "182231.515000", "182231.517000", "182231.520000", "182231.522000", "182231.525000", "182231.528000", "182231.530000", "182231.533000", "182231.535000", "182231.538000", "182231.540000", "182231.543000", "182231.545000", "182231.548000", "182231.550000", "182231.553000", "182231.555000", "182231.558000", "182231.560000", "182231.563000", "182311.487000", "182311.490000", "182311.492000", "182311.495000", "182311.497000", "182311.500000", "182311.503000", "182311.505000", "182311.507000", "182311.510000", "182311.512000", "182311.515000", "182311.517000", "182311.520000", "182311.523000", "182311.525000", "182311.527000", "182311.530000", "182311.533000", "182311.535000", "182311.538000", "182311.540000", "182311.543000", "182311.545000", "182311.548000", "182311.550000", "182311.553000", "182351.479000", "182351.482000", "182351.484000", "182351.487000", "182351.490000", "182351.492000", "182351.495000", "182351.497000", "182351.500000", "182351.502000", "182351.505000", "182351.507000", "182351.510000", "182351.512000", "182351.515000", "182351.517000", "182351.520000", "182351.522000", "182351.525000", "182351.527000", "182351.530000", "182351.533000", "182351.535000", "182351.538000", "182351.540000", "182351.543000", "182351.545000", "182431.487000", "182431.490000", "182431.493000", "182431.495000", "182431.498000", "182431.500000", "182431.503000", "182431.505000", "182431.508000", "182431.510000", "182431.513000", "182431.515000", "182431.518000", "182431.520000", "182431.523000", "182431.525000", "182431.528000", "182431.530000", "182431.533000", "182431.547000", "182431.549000", "182431.552000", "182431.555000", "182431.557000", "182431.559000", "182431.562000", "182431.565000", "182511.478000", "182511.481000", "182511.483000", "182511.486000", "182511.488000", "182511.497000", "182511.499000", "182511.502000", "182511.504000", "182511.507000", "182511.509000", "182511.512000", "182511.514000", "182511.517000", "182511.519000", "182511.522000", "182511.524000", "182511.527000", "182511.529000", "182511.532000", "182511.534000", "182511.537000", "182511.540000", "182511.542000", "182511.545000", "182511.547000", "182551.475000", "182551.478000", "182551.481000", "182551.483000", "182551.486000", "182551.488000", "182551.491000", "182551.493000", "182551.496000", "182551.498000", "182551.501000", "182551.503000", "182551.506000", "182551.508000", "182551.511000", "182551.513000", "182551.516000", "182551.518000", "182551.521000", "182551.523000", "182551.526000", "182551.529000", "182551.531000", "182551.534000", "182551.536000", "182551.539000", "182551.541000", "182627.218000", "182627.220000", "182627.223000", "182627.225000", "182627.228000", "182627.231000", "182627.233000", "182627.236000", "182627.238000", "182627.241000", "182627.243000", "182627.246000", "182627.248000", "182627.251000", "182627.253000", "182627.256000", "182627.258000", "182627.261000", "182627.264000", "182627.266000", "182627.268000", "182627.271000", "182627.274000", "182627.276000"],
