{
  "AcquisitionMatrixPE": 104,
  "AcquisitionNumber": 1,
  "AcquisitionTime": "18:14:13.550000",
  "BandwidthPerPixelPhaseEncode": 17.17,
  "BaseResolution": 104,
  "BodyPartExamined": "BRAIN",
  "CoilCombinationMethod": "Sum of Squares",
  "ConsistencyInfo": "N4_VE11C_LATEST_20160120",
  "ConversionSoftware": "dcm2niix",
  "ConversionSoftwareVersion": "v1.0.20211006",
  "DerivedVendorReportedEchoSpacing": 0.000560011,
  "DeviceSerialNumber": "167006",
  "DwellTime": 2.1e-06,
  "EchoTime": 0.037,
  "EchoTrainLength": 104,
  "EffectiveEchoSpacing": 0.000560011,
  "FlipAngle": 52,
  "HeudiconvVersion": "0.10.0",
  "ImageComments": "Unaliased MB4/PE3/LB",
  "ImageOrientationPatientDICOM": [0.999266, 0.0150386, 0.0352406, -0.00662747, 0.973731, -0.227606],
  "ImageOrientationText": "Tra>Cor(-13.1)>Sag(2.2)",
  "ImageType": [
    "ORIGINAL",
    "PRIMARY",
    "M",
    "MB",
    "ND",
    "MOSAIC"
],
  "ImagingFrequency": 123.259,
  "InPlanePhaseEncodingDirectionDICOM": "COL",
  "InstitutionAddress": "Chemin Queen-Mary 4565,Montreal,District,CA,H3W 1W5",
  "InstitutionName": "IUGM",
  "InstitutionalDepartmentName": "Department",
  "MRAcquisitionType": "2D",
  "MagneticFieldStrength": 3,
  "Manufacturer": "Siemens",
  "ManufacturersModelName": "Prisma_fit",
  "MatrixCoilMode": "SENSE",
  "Modality": "MR",
  "MultibandAccelerationFactor": 4,
  "PartialFourier": 1,
  "PatientPosition": "HFS",
  "PercentPhaseFOV": 100,
  "PercentSampling": 100,
  "PhaseEncodingDirection": "j",
  "PhaseEncodingSteps": 104,
  "PhaseResolution": 1,
  "PixelBandwidth": 2290,
  "ProcedureStepDescription": "games^mario",
  "ProtocolName": "func_task-mario_run-01",
  "PulseSequenceDetails": "%CustomerSeq%\\cmrr_mbep2d_bold",
  "ReceiveCoilActiveElements": "HC1-7;NC1,2",
  "ReceiveCoilName": "HeadNeck_64",
  "ReconMatrixPE": 104,
  "RepetitionTime": 1.49,
  "SAR": 0.0604855,
  "ScanOptions": "FS",
  "ScanningSequence": "EP",
  "SequenceName": "epfid2d1_104",
  "SequenceVariant": "SK\\SS",
  "SeriesDescription": "func_task-mario_run-01",
  "SeriesNumber": 10,
  "ShimSetting": [631, -7222, -8739, 748, 14, -40, 93, -6],
  "SliceThickness": 2,
  "SliceTiming": [0, 0.785, 0.0975, 0.8825, 0.1975, 0.98, 0.295, 1.0775, 0.3925, 1.1775, 0.49, 1.275, 0.5875, 1.3725, 0.6875, 0, 0.785, 0.0975, 0.8825, 0.1975, 0.98, 0.295, 1.0775, 0.3925, 1.1775, 0.49, 1.275, 0.5875, 1.3725, 0.6875, 0, 0.785, 0.0975, 0.8825, 0.1975, 0.98, 0.295, 1.0775, 0.3925, 1.1775, 0.49, 1.275, 0.5875, 1.3725, 0.6875, 0, 0.785, 0.0975, 0.8825, 0.1975, 0.98, 0.295, 1.0775, 0.3925, 1.1775, 0.49, 1.275, 0.5875, 1.3725, 0.6875],
  "SoftwareVersions": "syngo MR E11",
  "SpacingBetweenSlices": 2,
  "StationName": "MRC35049",
  "TaskName": "mario",
  "TotalReadoutTime": 0.0576811,
  "TxRefAmp": 264.758,
  "WipMemBlock": "1dd7b7d4-5c3a-4b65-8413-bcae5fef028a||Sequence: R016 ve11c/master r/e634e98; Dec 19 2017 11:00:25 by eja",
  "dcmmeta_affine": [
    [-1.998531460762024, -0.013254934921860695, 0.07547540217638016, 107.34358215332031],
    [-0.030077241361141205, 1.947461485862732, -0.45441076159477234, -74.17923736572266],
    [0.07048112899065018, 0.45521214604377747, 1.9462307691574097, -50.987918853759766],
    [0.0, 0.0, 0.0, 1.0]
],
  "dcmmeta_reorient_transform": [
    [0.0, -1.0, 0.0, 103.0],
    [1.0, 0.0, 0.0, 0.0],
    [0.0, 0.0, 1.0, 0.0],
    [0.0, 0.0, 0.0, 1.0]
],
  "dcmmeta_shape": [104, 104, 60, 491],
  "dcmmeta_slice_dim": 2,
  "dcmmeta_version": 0.6,
  "global": {
    "const": {
      "AcquisitionMatrix": [104, 0, 0, 104],
      "AngioFlag": "N",
      "BitsAllocated": 16,
      "BitsStored": 16,
      "BodyPartExamined": "BRAIN",
      "Columns": 832,
      "EchoNumbers": 1,
      "EchoTime": 37.0,
      "EchoTrainLength": 104,
      "FlipAngle": 52.0,
      "HighBit": 15,
      "ImageOrientationPatient": [0.99926570163141, 0.01503862092429, 0.035240565032, -0.0066274672567, 0.97373073827663, -0.2276060763974],
      "ImagePositionPatient": [-828.61895874413, -846.23338689972, 135.94102690376],
      "ImageType": [
        "ORIGINAL",
        "PRIMARY",
        "M",
        "MB",
        "ND",
        "MOSAIC"
],
      "ImagedNucleus": "1H",
      "ImagingFrequency": 123.25885,
      "InPlanePhaseEncodingDirection": "COL",
      "MRAcquisitionType": "2D",
      "MagneticFieldStrength": 3.0,
      "Manufacturer": "SIEMENS",
      "ManufacturerModelName": "Prisma_fit",
      "Modality": "MR",
      "NumberOfAverages": 1.0,
      "NumberOfPhaseEncodingSteps": 104,
      "PercentPhaseFieldOfView": 100.0,
      "PercentSampling": 100.0,
      "PerformedProcedureStepStartTime": "180333.074000",
      "PhotometricInterpretation": "MONOCHROME2",
      "PixelBandwidth": 2290.0,
      "PixelRepresentation": 0,
      "PixelSpacing": [2.0, 2.0],
      "ProtocolName": "func_task-mario_run-01",
      "RepetitionTime": 1490.0,
      "Rows": 832,
      "SAR": 0.06048545948839,
      "SamplesPerPixel": 1,
      "ScanOptions": "FS",
      "ScanningSequence": "EP",
      "SequenceName": "epfid2d1_104",
      "SequenceVariant": [
        "SK",
        "SS"
],
      "SeriesDescription": "func_task-mario_run-01",
      "SeriesNumber": 10,
      "SeriesTime": "181531.379000",
      "SliceLocation": -28.712304145739,
      "SliceThickness": 2.0,
      "SmallestImagePixelValue": 0,
      "SoftwareVersions": "syngo MR E11",
      "SpacingBetweenSlices": 1.9999999518915,
      "SpecificCharacterSet": "ISO_IR 100",
      "StudyID": "1",
      "StudyTime": "180332.937000",
      "TransmitCoilName": "Body",
      "VariableFlipAngleFlag": "N",
      "WindowCenterWidthExplanation": "Algo1",
      "dBdt": 0.0},
    "slices": {}
  },
  "time": {
    "samples": {
      "AcquisitionNumber": [1, 2, 3, 4, 5, 6, 7, 8, 9, 10, 11, 12, 13, 14, 15, 16, 17, 18, 19, 20, 21, 22, 23, 24, 25, 26, 27, 28, 29, 30, 31, 32, 33, 34, 35, 36, 37, 38, 39, 40, 41, 42, 43, 44, 45, 46, 47, 48, 49, 50, 51, 52, 53, 54, 55, 56, 57, 58, 59, 60, 61, 62, 63, 64, 65, 66, 67, 68, 69, 70, 71, 72, 73, 74, 75, 76, 77, 78, 79, 80, 81, 82, 83, 84, 85, 86, 87, 88, 89, 90, 91, 92, 93, 94, 95, 96, 97, 98, 99, 100, 101, 102, 103, 104, 105, 106, 107, 108, 109, 110, 111, 112, 113, 114, 115, 116, 117, 118, 119, 120, 121, 122, 123, 124, 125, 126, 127, 128, 129, 130, 131, 132, 133, 134, 135, 136, 137, 138, 139, 140, 141, 142, 143, 144, 145, 146, 147, 148, 149, 150, 151, 152, 153, 154, 155, 156, 157, 158, 159, 160, 161, 162, 163, 164, 165, 166, 167, 168, 169, 170, 171, 172, 173, 174, 175, 176, 177, 178, 179, 180, 181, 182, 183, 184, 185, 186, 187, 188, 189, 190, 191, 192, 193, 194, 195, 196, 197, 198, 199, 200, 201, 202, 203, 204, 205, 206, 207, 208, 209, 210, 211, 212, 213, 214, 215, 216, 217, 218, 219, 220, 221, 222, 223, 224, 225, 226, 227, 228, 229, 230, 231, 232, 233, 234, 235, 236, 237, 238, 239, 240, 241, 242, 243, 244, 245, 246, 247, 248, 249, 250, 251, 252, 253, 254, 255, 256, 257, 258, 259, 260, 261, 262, 263, 264, 265, 266, 267, 268, 269, 270, 271, 272, 273, 274, 275, 276, 277, 278, 279, 280, 281, 282, 283, 284, 285, 286, 287, 288, 289, 290, 291, 292, 293, 294, 295, 296, 297, 298, 299, 300, 301, 302, 303, 304, 305, 306, 307, 308, 309, 310, 311, 312, 313, 314, 315, 316, 317, 318, 319, 320, 321, 322, 323, 324, 325, 326, 327, 328, 329, 330, 331, 332, 333, 334, 335, 336, 337, 338, 339, 340, 341, 342, 343, 344, 345, 346, 347, 348, 349, 350, 351, 352, 353, 354, 355, 356, 357, 358, 359, 360, 361, 362, 363, 364, 365, 366, 367, 368, 369, 370, 371, 372, 373, 374, 375, 376, 377, 378, 379, 380, 381, 382, 383, 384, 385, 386, 387, 388, 389, 390, 391, 392, 393, 394, 395, 396, 397, 398, 399, 400, 401, 402, 403, 404, 405, 406, 407, 408, 409, 410, 411, 412, 413, 414, 415, 416, 417, 418, 419, 420, 421, 422, 423, 424, 425, 426, 427, 428, 429, 430, 431, 432, 433, 434, 435, 436, 437, 438, 439, 440, 441, 442, 443, 444, 445, 446, 447, 448, 449, 450, 451, 452, 453, 454, 455, 456, 457, 458, 459, 460, 461, 462, 463, 464, 465, 466, 467, 468, 469, 470, 471, 472, 473, 474, 475, 476, 477, 478, 479, 480, 481, 482, 483, 484, 485, 486, 487, 488, 489, 490, 491],
      "AcquisitionTime": ["181413.550000", "181415.040000", "181416.530000", "181418.020000", "181419.510000", "181421.000000", "181422.490000", "181423.980000", "181425.470000", "181426.960000", "181428.450000", "181429.940000", "181431.430000", "181432.920000", "181434.410000", "181435.900000", "181437.390000", "181438.880000", "181440.370000", "181441.860000", "181443.350000", "181444.840000", "181446.330000", "181447.820000", "181449.310000", "181450.800000", "181452.290000", "181453.780000", "181455.270000", "181456.760000", "181458.250000", "181459.740000", "181501.230000", "181502.720000", "181504.210000", "181505.700000", "181507.190000", "181508.680000", "181510.170000", "181511.660000", "181513.150000", "181514.640000", "181516.130000", "181517.620000", "181519.110000", "181520.600000", "181522.090000", "181523.580000", "181525.070000", "181526.560000", "181528.050000", "181529.540000", "181531.030000", "181532.520000", "181534.010000", "181535.500000", "181536.990000", "181538.480000", "181539.970000", "181541.460000", "181542.950000", "181544.440000", "181545.930000", "181547.420000", "181548.910000", "181550.400000", "181551.890000", "181553.380000", "181554.870000", "181556.360000", "181557.850000", "181559.340000", "181600.830000", "181602.320000", "181603.810000", "181605.300000", "181606.790000", "181608.280000", "181609.770000", "181611.260000", "181612.750000", "181614.240000", "181615.730000", "181617.220000", "181618.710000", "181620.200000", "181621.690000", "181623.180000", "181624.670000", "181626.160000", "181627.650000", "181629.140000", "181630.630000", "181632.120000", "181633.610000", "181635.100000", "181636.590000", "181638.080000", "181639.570000", "181641.060000", "181642.550000", "181644.040000", "181645.530000", "181647.020000", "181648.510000", "181650.000000", "181651.490000", "181652.980000", "181654.470000", "181655.960000", "181657.450000", "181658.940000", "181700.430000", "181701.920000", "181703.410000", "181704.900000", "181706.390000", "181707.880000", "181709.370000", "181710.860000", "181712.350000", "181713.840000", "181715.330000", "181716.820000", "181718.310000", "181719.800000", "181721.290000", "181722.780000", "181724.270000", "181725.760000", "181727.250000", "181728.740000", "181730.230000", "181731.720000", "181733.210000", "181734.700000", "181736.190000", "181737.680000", "181739.170000", "181740.660000", "181742.150000", "181743.640000", "181745.130000", "181746.620000", "181748.110000", "181749.600000", "181751.090000", "181752.580000", "181754.070000", "181755.560000", "181757.050000", "181758.540000", "181800.030000", "181801.520000", "181803.010000", "181804.500000", "181805.990000", "181807.480000", "181808.970000", "181810.460000", "181811.950000", "181813.440000", "181814.930000", "181816.420000", "181817.910000", "181819.400000", "181820.890000", "181822.380000", "181823.870000", "181825.360000", "181826.850000", "181828.340000", "181829.830000", "181831.320000", "181832.810000", "181834.300000", "181835.790000", "181837.280000", "181838.770000", "181840.260000", "181841.750000", "181843.240000", "181844.730000", "181846.220000", "181847.710000", "181849.200000", "181850.690000", "181852.180000", "181853.670000", "181855.160000", "181856.650000", "181858.140000", "181859.630000", "181901.120000", "181902.610000", "181904.100000", "181905.590000", "181907.080000", "181908.570000", "181910.060000", "181911.550000", "181913.040000", "181914.530000", "181916.020000", "181917.510000", "181919.000000", "181920.490000", "181921.980000", "181923.470000", "181924.960000", "181926.450000", "181927.940000", "181929.430000", "181930.920000", "181932.410000", "181933.900000", "181935.390000", "181936.880000", "181938.370000", "181939.860000", "181941.350000", "181942.840000", "181944.330000", "181945.820000", "181947.310000", "181948.800000", "181950.290000", "181951.780000", "181953.270000", "181954.760000", "181956.250000", "181957.740000", "181959.230000", "182000.720000", "182002.210000", "182003.700000", "182005.190000", "182006.680000", "182008.170000", "182009.660000", "182011.150000", "182012.640000", "182014.130000", "182015.620000", "182017.110000", "182018.600000", "182020.090000", "182021.580000", "182023.070000", "182024.560000", "182026.050000", "182027.540000", "182029.030000", "182030.520000", "182032.010000", "182033.500000", "182034.990000", "182036.480000", "182037.970000", "182039.460000", "182040.950000", "182042.440000", "182043.930000", "182045.420000", "182046.910000", "182048.400000", "182049.890000", "182051.380000", "182052.870000", "182054.360000", "182055.850000", "182057.340000", "182058.830000", "182100.320000", "182101.810000", "182103.300000", "182104.790000", "182106.280000", "182107.770000", "182109.260000", "182110.750000", "182112.240000", "182113.730000", "182115.220000", "182116.710000", "182118.200000", "182119.690000", "182121.180000", "182122.670000", "182124.160000", "182125.650000", "182127.140000", "182128.630000", "182130.120000", "182131.610000", "182133.100000", "182134.590000", "182136.080000", "182137.570000", "182139.060000", "182140.550000", "182142.040000", "182143.530000", "182145.020000", "182146.510000", "182148.000000", "182149.490000", "182150.980000", "182152.470000", "182153.960000", "182155.450000", "182156.940000", "182158.430000", "182159.920000", "182201.410000", "182202.900000", "182204.390000", "182205.880000", "182207.370000", "182208.860000", "182210.350000", "182211.840000", "182213.330000", "182214.820000", "182216.310000", "182217.800000", "182219.290000", "182220.780000", "182222.270000", "182223.760000", "182225.250000", "182226.740000", "182228.230000", "182229.720000", "182231.210000", "182232.700000", "182234.190000", "182235.680000", "182237.170000", "182238.660000", "182240.150000", "182241.640000", "182243.130000", "182244.620000", "182246.110000", "182247.600000", "182249.090000", "182250.580000", "182252.070000", "182253.560000", "182255.050000", "182256.540000", "182258.030000", "182259.520000", "182301.010000", "182302.500000", "182303.990000", "182305.480000", "182306.970000", "182308.460000", "182309.950000", "182311.440000", "182312.930000", "182314.420000", "182315.910000", "182317.400000", "182318.890000", "182320.380000", "182321.870000", "182323.360000", "182324.850000", "182326.340000", "182327.830000", "182329.320000", "182330.810000", "182332.300000", "182333.790000", "182335.280000", "182336.770000", "182338.260000", "182339.750000", "182341.240000", "182342.730000", "182344.220000", "182345.710000", "182347.200000", "182348.690000", "182350.180000", "182351.670000", "182353.160000", "182354.650000", "182356.140000", "182357.630000", "182359.120000", "182400.610000", "182402.100000", "182403.590000", "182405.080000", "182406.570000", "182408.060000", "182409.550000", "182411.040000", "182412.530000", "182414.020000", "182415.510000", "182417.000000", "182418.490000", "182419.980000", "182421.470000", "182422.960000", "182424.450000", "182425.940000", "182427.430000", "182428.920000", "182430.410000", "182431.900000", "182433.390000", "182434.880000", "182436.370000", "182437.860000", "182439.350000", "182440.840000", "182442.330000", "182443.820000", "182445.310000", "182446.800000", "182448.290000", "182449.780000", "182451.270000", "182452.760000", "182454.250000", "182455.740000", "182457.230000", "182458.720000", "182500.210000", "182501.700000", "182503.190000", "182504.680000", "182506.170000", "182507.660000", "182509.150000", "182510.640000", "182512.130000", "182513.620000", "182515.110000", "182516.600000", "182518.090000", "182519.580000", "182521.070000", "182522.560000", "182524.050000", "182525.540000", "182527.030000", "182528.520000", "182530.010000", "182531.500000", "182532.990000", "182534.480000", "182535.970000", "182537.460000", "182538.950000", "182540.440000", "182541.930000", "182543.420000", "182544.910000", "182546.400000", "182547.890000", "182549.380000", "182550.870000", "182552.360000", "182553.850000", "182555.340000", "182556.830000", "182558.320000", "182559.810000", "182601.300000", "182602.790000", "182604.280000", "182605.770000", "182607.260000", "182608.750000", "182610.240000", "182611.730000", "182613.220000", "182614.710000", "182616.200000", "182617.690000", "182619.180000", "182620.670000", "182622.160000", "182623.650000"],
      "ContentTime": ["181531.382000", "181531.386000", "181531.389000", "181531.393000", "181531.396000", "181531.399000", "181531.403000", "181531.406000", "181531.409000", "181531.413000", "181531.416000", "181531.419000", "181531.423000", "181531.426000", "181531.429000", "181531.433000", "181531.436000", "181531.445000", "181531.448000", "181531.451000", "181531.455000", "181531.458000", "181531.462000", "181611.345000", "181611.349000", "181611.366000", "181611.369000", "181611.380000", "181611.384000", "181611.387000", "181611.390000", "181611.394000", "181611.397000", "181611.400000", "181611.404000", "181611.407000", "181611.410000", "181611.414000", "181611.417000", "181611.420000", "181611.424000", "181611.428000", "181611.440000", "181611.444000", "181611.447000", "181611.450000", "181611.453000", "181611.457000", "181611.460000", "181611.464000", "181611.467000", "181611.470000", "181611.474000", "181611.477000", "181611.480000", "181611.484000", "181611.487000", "181611.490000", "181611.494000", "181611.497000", "181611.500000", "181611.504000", "181611.507000", "181631.345000", "181631.349000", "181631.352000", "181631.355000", "181631.359000", "181631.362000", "181631.366000", "181631.369000", "181631.372000", "181631.376000", "181631.379000", "181631.382000", "181631.386000", "181631.389000", "181631.392000", "181631.396000", "181631.399000", "181631.402000", "181631.406000", "181631.409000", "181651.345000", "181651.349000", "181651.352000", "181651.355000", "181651.359000", "181651.362000", "181651.365000", "181651.369000", "181651.372000", "181651.375000", "181651.379000", "181651.382000", "181651.385000", "181651.389000", "181651.392000", "181651.395000", "181651.399000", "181651.402000", "181651.405000", "181651.409000", "181731.345000", "181731.349000", "181731.352000", "181731.355000", "181731.359000", "181731.362000", "181731.366000", "181731.369000", "181731.372000", "181731.376000", "181731.379000", "181731.382000", "181731.386000", "181731.389000", "181731.392000", "181731.396000", "181731.399000", "181731.402000", "181731.406000", "181731.409000", "181731.413000", "181731.416000", "181731.419000", "181731.422000", "181731.426000", "181731.441000", "181731.444000", "181731.448000", "181731.451000", "181811.345000", "181811.349000", "181811.352000", "181811.356000", "181811.359000", "181811.362000", "181811.366000", "181811.369000", "181811.372000", "181811.376000", "181811.379000", "181811.382000", "181811.386000", "181811.389000", "181811.392000", "181811.396000", "181811.399000", "181811.402000", "181811.406000", "181811.409000", "181811.412000", "181811.416000", "181811.419000", "181811.422000", "181811.426000", "181811.429000", "181811.432000", "181851.345000", "181851.349000", "181851.353000", "181851.356000", "181851.360000", "181851.363000", "181851.366000", "181851.369000", "181851.373000", "181851.376000", "181851.380000", "181851.383000", "181851.386000", "181851.390000", "181851.393000", "181851.396000", "181851.400000", "181851.403000", "181851.406000", "181851.410000", "181851.413000", "181851.417000", "181851.420000", "181851.423000", "181851.427000", "181851.430000", "181931.345000", "181931.349000", "181931.352000", "181931.356000", "181931.359000", "181931.362000", "181931.366000", "181931.369000", "181931.373000", "181931.376000", "181931.379000", "181931.382000", "181931.386000", "181931.389000", "181931.392000", "181931.396000", "181931.399000", "181931.403000", "181931.406000", "181931.409000", "181931.413000", "181931.416000", "181931.419000", "181931.423000", "181931.426000", "181931.429000", "181931.433000", "182011.345000", "182011.349000", "182011.352000", "182011.356000", "182011.359000", "182011.362000", "182011.366000", "182011.369000", "182011.372000", "182011.376000", "182011.379000", "182011.382000", "182011.386000", "182011.389000", "182011.392000", "182011.404000", "182011.408000", "182011.411000", "182011.415000", "182011.418000", "182011.421000", "182011.424000", "182011.428000", "182011.431000", "182011.435000", "182011.438000", "182011.441000", "182051.345000", "182051.349000", "182051.352000", "182051.356000", "182051.359000", "182051.362000", "182051.366000", "182051.369000", "182051.372000", "182051.376000", "182051.379000", "182051.382000", "182051.386000", "182051.389000", "182051.392000", "182051.396000", "182051.399000", "182051.402000", "182051.406000", "182051.409000", "182051.412000", "182051.416000", "182051.419000", "182051.422000", "182051.426000", "182051.429000", "182051.432000", "182131.345000", "182131.349000", "182131.352000", "182131.356000", "182131.359000", "182131.362000", "182131.365000", "182131.369000", "182131.372000", "182131.376000", "182131.379000", "182131.383000", "182131.386000", "182131.389000", "182131.392000", "182131.396000", "182131.399000", "182131.402000", "182131.406000", "182131.409000", "182131.412000", "182131.416000", "182131.419000", "182131.423000", "182131.426000", "182131.429000", "182131.433000", "182151.345000", "182151.349000", "182151.352000", "182151.356000", "182151.359000", "182151.363000", "182151.366000", "182151.369000", "182151.373000", "182151.376000", "182151.379000", "182151.383000", "182151.386000", "182231.345000", "182231.349000", "182231.352000", "182231.356000", "182231.359000", "182231.363000", "182231.366000", "182231.369000", "182231.373000", "182231.377000", "182231.380000", "182231.383000", "182231.387000", "182231.390000", "182231.393000", "182231.409000", "182231.413000", "182231.416000", "182231.419000", "182231.423000", "182231.426000", "182231.429000", "182231.433000", "182231.436000", "182231.440000", "182231.443000", "182231.446000", "182311.345000", "182311.349000", "182311.353000", "182311.356000", "182311.359000", "182311.363000", "182311.366000", "182311.369000", "182311.373000", "182311.376000", "182311.379000", "182311.383000", "182311.386000", "182311.389000", "182311.393000", "182311.396000", "182311.399000", "182311.403000", "182311.406000", "182311.409000", "182311.413000", "182311.416000", "182311.420000", "182311.423000", "182311.426000", "182311.430000", "182311.433000", "182351.345000", "182351.349000", "182351.352000", "182351.356000", "182351.359000", "182351.363000", "182351.366000", "182351.369000", "182351.373000", "182351.376000", "182351.379000", "182351.383000", "182351.386000", "182351.389000", "182351.393000", "182351.396000", "182351.400000", "182351.403000", "182351.406000", "182351.410000", "182351.413000", "182351.416000", "182351.420000", "182351.423000", "182351.426000", "182351.430000", "182351.434000", "182431.346000", "182431.350000", "182431.353000", "182431.357000", "182431.360000", "182431.363000", "182431.367000", "182431.370000", "182431.374000", "182431.377000", "182431.380000", "182431.384000", "182431.387000", "182431.390000", "182431.394000", "182431.397000", "182431.400000", "182431.404000", "182431.407000", "182431.410000", "182431.414000", "182431.417000", "182431.421000", "182431.424000", "182431.427000", "182431.431000", "182431.434000", "182511.345000", "182511.349000", "182511.353000", "182511.356000", "182511.359000", "182511.363000", "182511.366000", "182511.370000", "182511.373000", "182511.376000", "182511.380000", "182511.383000", "182511.387000", "182511.390000", "182511.393000", "182511.397000", "182511.400000", "182511.403000", "182511.407000", "182511.410000", "182511.413000", "182511.417000", "182511.420000", "182511.423000", "182511.427000", "182511.430000", "182551.345000", "182551.349000", "182551.352000", "182551.356000", "182551.359000", "182551.362000", "182551.366000", "182551.369000", "182551.372000", "182551.376000", "182551.379000", "182551.382000", "182551.386000", "182551.389000", "182551.392000", "182551.396000", "182551.399000", "182551.402000", "182551.406000", "182551.409000", "182551.412000", "182551.416000", "182551.419000", "182551.422000", "182551.426000", "182551.429000", "182551.432000", "182627.077000", "182627.080000", "182627.084000", "182627.087000", "182627.090000", "182627.094000", "182627.097000", "182627.100000", "182627.104000", "182627.107000", "182627.111000", "182627.114000", "182627.117000", "182627.121000", "182627.124000", "182627.127000", "182627.130000", "182627.134000", "182627.137000", "182627.141000", "182627.144000", "182627.147000", "182627.151000", "182627.154000"],
