{
  "AcquisitionMatrixPE": 104,
  "AcquisitionNumber": 1,
  "AcquisitionTime": "16:34:26.895000",
  "BandwidthPerPixelPhaseEncode": 17.17,
  "BaseResolution": 104,
  "BodyPartExamined": "BRAIN",
  "CoilString": "HC1-7;NC1_2",
  "ConsistencyInfo": "N4_VE11C_LATEST_20160120",
  "ConversionSoftware": "dcm2niix",
  "ConversionSoftwareVersion": "v1.0.20190902",
  "DerivedVendorReportedEchoSpacing": 0.000560011,
  "DeviceSerialNumber": "167006",
  "DwellTime": 2.1e-06,
  "EchoTime": 0.037,
  "EchoTrainLength": 104,
  "EffectiveEchoSpacing": 0.000560011,
  "FlipAngle": 52,
  "HeudiconvVersion": "0.10.0",
  "ImageComments": "Unaliased_MB4_PE3_LB",
  "ImageOrientationPatientDICOM": [0.999787, -0.0201587, 0.00439073, 0.0204188, 0.93635, -0.350475],
  "ImageType": [
    "ORIGINAL",
    "PRIMARY",
    "P",
    "MB",
    "ND",
    "MOSAIC"
],
  "ImagingFrequency": 123.259,
  "InPlanePhaseEncodingDirectionDICOM": "COL",
  "InstitutionAddress": "Chemin_Queen-Mary_4565_Montreal_District_CA_H3W_1W5",
  "InstitutionName": "IUGM",
  "InstitutionalDepartmentName": "Department",
  "MRAcquisitionType": "2D",
  "MagneticFieldStrength": 3,
  "Manufacturer": "Siemens",
  "ManufacturersModelName": "Prisma_fit",
  "Modality": "MR",
  "MultibandAccelerationFactor": 4,
  "PartialFourier": 1,
  "PatientPosition": "HFS",
  "PercentPhaseFOV": 100,
  "PhaseEncodingDirection": "j",
  "PhaseEncodingSteps": 104,
  "PhaseResolution": 1,
  "PixelBandwidth": 2290,
  "ProcedureStepDescription": "games_mario",
  "ProtocolName": "func_task-mario_run-04",
  "PulseSequenceDetails": "%CustomerSeq%_cmrr_mbep2d_bold",
  "ReceiveCoilActiveElements": "HC1-7;NC1,2",
  "ReceiveCoilName": "HeadNeck_64",
  "ReconMatrixPE": 104,
  "RepetitionTime": 1.49,
  "SAR": 0.052825,
  "ScanOptions": "FS",
  "ScanningSequence": "EP",
  "SequenceName": "epfid2d1_104",
  "SequenceVariant": "SK_SS",
  "SeriesDescription": "func_task-mario_run-04",
  "SeriesNumber": 20,
  "ShimSetting": [621, -7249, -8847, 590, -6, -204, -97, -18],
  "SliceThickness": 2,
  "SliceTiming": [0, 0.7825, 0.0975, 0.88, 0.195, 0.98, 0.2925, 1.0775, 0.39, 1.175, 0.49, 1.2725, 0.5875, 1.37, 0.685, 0, 0.7825, 0.0975, 0.88, 0.195, 0.98, 0.2925, 1.0775, 0.39, 1.175, 0.49, 1.2725, 0.5875, 1.37, 0.685, 0, 0.7825, 0.0975, 0.88, 0.195, 0.98, 0.2925, 1.0775, 0.39, 1.175, 0.49, 1.2725, 0.5875, 1.37, 0.685, 0, 0.7825, 0.0975, 0.88, 0.195, 0.98, 0.2925, 1.0775, 0.39, 1.175, 0.49, 1.2725, 0.5875, 1.37, 0.685],
  "SoftwareVersions": "syngo_MR_E11",
  "SpacingBetweenSlices": 2,
  "StationName": "MRC35049",
  "TaskName": "mario",
  "TotalReadoutTime": 0.0576811,
  "TxRefAmp": 279.568,
  "WipMemBlock": "c818d896-4f55-4b7b-9fec-64f9c256d166||Sequence: R016 ve11c/master r/e634e98; Dec 19 2017 11:00:25 by eja",
  "dcmmeta_affine": [
    [-1.9995743036270142, 0.04083755612373352, -0.005907704588025808, 104.83895874023438],
    [0.04031740128993988, 1.87269926071167, -0.7009792327880859, -65.93555450439453],
    [0.008781461976468563, 0.7009491324424744, 1.8731238842010498, -71.12608337402344],
    [0.0, 0.0, 0.0, 1.0]
],
  "dcmmeta_reorient_transform": [
    [0.0, -1.0, 0.0, 103.0],
    [1.0, 0.0, 0.0, 0.0],
    [0.0, 0.0, 1.0, 0.0],
    [0.0, 0.0, 0.0, 1.0]
],
  "dcmmeta_shape": [104, 104, 60, 451],
  "dcmmeta_slice_dim": 2,
  "dcmmeta_version": 0.6,
  "global": {
    "const": {
      "AcquisitionMatrix": [104, 0, 0, 104],
      "AngioFlag": "N",
      "BitsAllocated": 16,
      "BitsStored": 16,
      "BodyPartExamined": "BRAIN",
      "Columns": 832,
      "EchoNumbers": 1,
      "EchoTime": 37.0,
      "EchoTrainLength": 104,
      "FlipAngle": 52.0,
      "HighBit": 15,
      "ImageOrientationPatient": [0.99978715149353, -0.0201587000714, 0.00439073113411, 0.02041877726197, 0.93634963864342, -0.3504745750371],
      "ImagePositionPatient": [-851.75514080335, -793.93947623309, 253.02071854602],
      "ImageType": [
        "ORIGINAL",
        "PRIMARY",
        "P",
        "MB",
        "ND",
        "MOSAIC"
],
      "ImagedNucleus": "1H",
      "ImagingFrequency": 123.258887,
      "InPlanePhaseEncodingDirection": "COL",
      "LargestImagePixelValue": 4095,
      "MRAcquisitionType": "2D",
      "MagneticFieldStrength": 3.0,
      "Manufacturer": "SIEMENS",
      "ManufacturerModelName": "Prisma_fit",
      "Modality": "MR",
      "NumberOfAverages": 1.0,
      "NumberOfPhaseEncodingSteps": 104,
      "PercentPhaseFieldOfView": 100.0,
      "PercentSampling": 100.0,
      "PerformedProcedureStepStartTime": "152737.161000",
      "PhotometricInterpretation": "MONOCHROME2",
      "PixelBandwidth": 2290.0,
      "PixelRepresentation": 0,
      "PixelSpacing": [2.0, 2.0],
      "ProtocolName": "func_task-mario_run-04",
      "RepetitionTime": 1490.0,
      "RescaleIntercept": -4096.0,
      "RescaleSlope": 2.0,
      "RescaleType": "US",
      "Rows": 832,
      "SAR": 0.05282495780944,
      "SamplesPerPixel": 1,
      "ScanOptions": "FS",
      "ScanningSequence": "EP",
      "SequenceName": "epfid2d1_104",
      "SequenceVariant": [
        "SK",
        "SS"
],
      "SeriesDescription": "func_task-mario_run-04",
      "SeriesNumber": 20,
      "SeriesTime": "163556.766000",
      "SliceLocation": -43.813933927777,
      "SliceThickness": 2.0,
      "SmallestImagePixelValue": 0,
      "SoftwareVersions": "syngo MR E11",
      "SpacingBetweenSlices": 1.9999999754422,
      "SpecificCharacterSet": "ISO_IR 100",
      "StudyID": "1",
      "StudyTime": "152737.092000",
      "TransmitCoilName": "Body",
      "VariableFlipAngleFlag": "N",
      "WindowCenterWidthExplanation": "Algo1",
      "dBdt": 0.0},
    "slices": {}
  },
  "time": {
    "samples": {
      "AcquisitionNumber": [1, 2, 3, 4, 5, 6, 7, 8, 9, 10, 11, 12, 13, 14, 15, 16, 17, 18, 19, 20, 21, 22, 23, 24, 25, 26, 27, 28, 29, 30, 31, 32, 33, 34, 35, 36, 37, 38, 39, 40, 41, 42, 43, 44, 45, 46, 47, 48, 49, 50, 51, 52, 53, 54, 55, 56, 57, 58, 59, 60, 61, 62, 63, 64, 65, 66, 67, 68, 69, 70, 71, 72, 73, 74, 75, 76, 77, 78, 79, 80, 81, 82, 83, 84, 85, 86, 87, 88, 89, 90, 91, 92, 93, 94, 95, 96, 97, 98, 99, 100, 101, 102, 103, 104, 105, 106, 107, 108, 109, 110, 111, 112, 113, 114, 115, 116, 117, 118, 119, 120, 121, 122, 123, 124, 125, 126, 127, 128, 129, 130, 131, 132, 133, 134, 135, 136, 137, 138, 139, 140, 141, 142, 143, 144, 145, 146, 147, 148, 149, 150, 151, 152, 153, 154, 155, 156, 157, 158, 159, 160, 161, 162, 163, 164, 165, 166, 167, 168, 169, 170, 171, 172, 173, 174, 175, 176, 177, 178, 179, 180, 181, 182, 183, 184, 185, 186, 187, 188, 189, 190, 191, 192, 193, 194, 195, 196, 197, 198, 199, 200, 201, 202, 203, 204, 205, 206, 207, 208, 209, 210, 211, 212, 213, 214, 215, 216, 217, 218, 219, 220, 221, 222, 223, 224, 225, 226, 227, 228, 229, 230, 231, 232, 233, 234, 235, 236, 237, 238, 239, 240, 241, 242, 243, 244, 245, 246, 247, 248, 249, 250, 251, 252, 253, 254, 255, 256, 257, 258, 259, 260, 261, 262, 263, 264, 265, 266, 267, 268, 269, 270, 271, 272, 273, 274, 275, 276, 277, 278, 279, 280, 281, 282, 283, 284, 285, 286, 287, 288, 289, 290, 291, 292, 293, 294, 295, 296, 297, 298, 299, 300, 301, 302, 303, 304, 305, 306, 307, 308, 309, 310, 311, 312, 313, 314, 315, 316, 317, 318, 319, 320, 321, 322, 323, 324, 325, 326, 327, 328, 329, 330, 331, 332, 333, 334, 335, 336, 337, 338, 339, 340, 341, 342, 343, 344, 345, 346, 347, 348, 349, 350, 351, 352, 353, 354, 355, 356, 357, 358, 359, 360, 361, 362, 363, 364, 365, 366, 367, 368, 369, 370, 371, 372, 373, 374, 375, 376, 377, 378, 379, 380, 381, 382, 383, 384, 385, 386, 387, 388, 389, 390, 391, 392, 393, 394, 395, 396, 397, 398, 399, 400, 401, 402, 403, 404, 405, 406, 407, 408, 409, 410, 411, 412, 413, 414, 415, 416, 417, 418, 419, 420, 421, 422, 423, 424, 425, 426, 427, 428, 429, 430, 431, 432, 433, 434, 435, 436, 437, 438, 439, 440, 441, 442, 443, 444, 445, 446, 447, 448, 449, 450, 451],
      "AcquisitionTime": ["163426.895000", "163428.385000", "163429.875000", "163431.365000", "163432.855000", "163434.345000", "163435.835000", "163437.325000", "163438.815000", "163440.305000", "163441.795000", "163443.285000", "163444.775000", "163446.265000", "163447.755000", "163449.245000", "163450.735000", "163452.225000", "163453.715000", "163455.205000", "163456.695000", "163458.185000", "163459.675000", "163501.165000", "163502.655000", "163504.145000", "163505.635000", "163507.125000", "163508.615000", "163510.105000", "163511.595000", "163513.085000", "163514.575000", "163516.065000", "163517.555000", "163519.045000", "163520.535000", "163522.025000", "163523.515000", "163525.005000", "163526.495000", "163527.985000", "163529.475000", "163530.965000", "163532.455000", "163533.945000", "163535.435000", "163536.925000", "163538.415000", "163539.905000", "163541.395000", "163542.885000", "163544.375000", "163545.865000", "163547.355000", "163548.845000", "163550.335000", "163551.825000", "163553.315000", "163554.805000", "163556.295000", "163557.785000", "163559.275000", "163600.765000", "163602.255000", "163603.745000", "163605.235000", "163606.725000", "163608.215000", "163609.705000", "163611.195000", "163612.685000", "163614.175000", "163615.665000", "163617.155000", "163618.645000", "163620.135000", "163621.625000", "163623.115000", "163624.605000", "163626.095000", "163627.585000", "163629.075000", "163630.565000", "163632.055000", "163633.545000", "163635.035000", "163636.525000", "163638.015000", "163639.505000", "163640.995000", "163642.485000", "163643.975000", "163645.465000", "163646.955000", "163648.445000", "163649.935000", "163651.425000", "163652.915000", "163654.405000", "163655.895000", "163657.385000", "163658.875000", "163700.365000", "163701.855000", "163703.345000", "163704.835000", "163706.325000", "163707.815000", "163709.305000", "163710.795000", "163712.285000", "163713.775000", "163715.265000", "163716.755000", "163718.245000", "163719.735000", "163721.225000", "163722.715000", "163724.205000", "163725.695000", "163727.185000", "163728.675000", "163730.165000", "163731.655000", "163733.145000", "163734.635000", "163736.125000", "163737.615000", "163739.105000", "163740.595000", "163742.085000", "163743.575000", "163745.065000", "163746.555000", "163748.045000", "163749.535000", "163751.025000", "163752.515000", "163754.005000", "163755.495000", "163756.985000", "163758.475000", "163759.965000", "163801.455000", "163802.945000", "163804.435000", "163805.925000", "163807.415000", "163808.905000", "163810.395000", "163811.885000", "163813.375000", "163814.865000", "163816.355000", "163817.845000", "163819.335000", "163820.825000", "163822.315000", "163823.805000", "163825.295000", "163826.785000", "163828.275000", "163829.765000", "163831.255000", "163832.745000", "163834.235000", "163835.725000", "163837.215000", "163838.705000", "163840.195000", "163841.685000", "163843.175000", "163844.665000", "163846.155000", "163847.645000", "163849.135000", "163850.625000", "163852.115000", "163853.605000", "163855.095000", "163856.585000", "163858.075000", "163859.565000", "163901.055000", "163902.545000", "163904.035000", "163905.525000", "163907.015000", "163908.505000", "163909.995000", "163911.485000", "163912.975000", "163914.465000", "163915.955000", "163917.445000", "163918.935000", "163920.425000", "163921.915000", "163923.405000", "163924.895000", "163926.385000", "163927.875000", "163929.365000", "163930.855000", "163932.345000", "163933.835000", "163935.325000", "163936.815000", "163938.305000", "163939.795000", "163941.285000", "163942.775000", "163944.265000", "163945.755000", "163947.245000", "163948.735000", "163950.225000", "163951.715000", "163953.205000", "163954.695000", "163956.185000", "163957.675000", "163959.165000", "164000.655000", "164002.145000", "164003.635000", "164005.125000", "164006.615000", "164008.105000", "164009.595000", "164011.085000", "164012.575000", "164014.065000", "164015.555000", "164017.045000", "164018.535000", "164020.025000", "164021.515000", "164023.005000", "164024.495000", "164025.985000", "164027.475000", "164028.965000", "164030.455000", "164031.945000", "164033.435000", "164034.925000", "164036.415000", "164037.905000", "164039.395000", "164040.885000", "164042.375000", "164043.865000", "164045.355000", "164046.845000", "164048.335000", "164049.825000", "164051.315000", "164052.805000", "164054.295000", "164055.785000", "164057.275000", "164058.765000", "164100.255000", "164101.745000", "164103.235000", "164104.725000", "164106.215000", "164107.705000", "164109.195000", "164110.685000", "164112.175000", "164113.665000", "164115.155000", "164116.645000", "164118.135000", "164119.625000", "164121.115000", "164122.605000", "164124.095000", "164125.585000", "164127.075000", "164128.565000", "164130.055000", "164131.545000", "164133.035000", "164134.525000", "164136.015000", "164137.505000", "164138.995000", "164140.485000", "164141.975000", "164143.465000", "164144.955000", "164146.445000", "164147.935000", "164149.425000", "164150.915000", "164152.405000", "164153.895000", "164155.385000", "164156.875000", "164158.365000", "164159.855000", "164201.345000", "164202.835000", "164204.325000", "164205.815000", "164207.305000", "164208.795000", "164210.285000", "164211.775000", "164213.265000", "164214.755000", "164216.245000", "164217.735000", "164219.225000", "164220.715000", "164222.205000", "164223.695000", "164225.185000", "164226.675000", "164228.165000", "164229.655000", "164231.145000", "164232.635000", "164234.125000", "164235.615000", "164237.105000", "164238.595000", "164240.085000", "164241.575000", "164243.065000", "164244.555000", "164246.045000", "164247.535000", "164249.025000", "164250.515000", "164252.005000", "164253.495000", "164254.985000", "164256.475000", "164257.965000", "164259.455000", "164300.945000", "164302.435000", "164303.925000", "164305.415000", "164306.905000", "164308.395000", "164309.885000", "164311.375000", "164312.865000", "164314.355000", "164315.845000", "164317.335000", "164318.825000", "164320.315000", "164321.805000", "164323.295000", "164324.785000", "164326.275000", "164327.765000", "164329.255000", "164330.745000", "164332.235000", "164333.725000", "164335.215000", "164336.705000", "164338.195000", "164339.685000", "164341.175000", "164342.665000", "164344.155000", "164345.645000", "164347.135000", "164348.625000", "164350.115000", "164351.605000", "164353.095000", "164354.585000", "164356.075000", "164357.565000", "164359.055000", "164400.545000", "164402.035000", "164403.525000", "164405.015000", "164406.505000", "164407.995000", "164409.485000", "164410.975000", "164412.465000", "164413.955000", "164415.445000", "164416.935000", "164418.425000", "164419.915000", "164421.405000", "164422.895000", "164424.385000", "164425.875000", "164427.365000", "164428.855000", "164430.345000", "164431.835000", "164433.325000", "164434.815000", "164436.305000", "164437.795000", "164439.285000", "164440.775000", "164442.265000", "164443.755000", "164445.245000", "164446.735000", "164448.225000", "164449.715000", "164451.205000", "164452.695000", "164454.185000", "164455.675000", "164457.165000", "164458.655000", "164500.145000", "164501.635000", "164503.125000", "164504.615000", "164506.105000", "164507.595000", "164509.085000", "164510.575000", "164512.065000", "164513.555000", "164515.045000", "164516.535000", "164518.025000", "164519.515000", "164521.005000", "164522.495000", "164523.985000", "164525.475000", "164526.965000", "164528.455000", "164529.945000", "164531.435000", "164532.925000", "164534.415000", "164535.905000", "164537.395000"],
      "ContentTime": ["163556.768000", "163556.771000", "163556.773000", "163556.776000", "163556.778000", "163556.781000", "163556.783000", "163556.786000", "163556.788000", "163556.790000", "163556.793000", "163556.802000", "163556.804000", "163556.807000", "163556.809000", "163556.812000", "163556.814000", "163556.817000", "163556.819000", "163556.822000", "163556.824000", "163556.827000", "163556.829000", "163556.832000", "163556.834000", "163556.836000", "163556.839000", "163556.842000", "163556.844000", "163556.853000", "163556.855000", "163556.858000", "163556.860000", "163556.863000", "163556.865000", "163556.868000", "163616.354000", "163616.357000", "163616.359000", "163616.362000", "163616.364000", "163616.367000", "163616.369000", "163616.372000", "163616.374000", "163616.377000", "163616.379000", "163616.382000", "163616.384000", "163616.387000", "163616.389000", "163616.392000", "163616.394000", "163616.397000", "163616.399000", "163616.401000", "163636.359000", "163636.361000", "163636.364000", "163636.366000", "163636.369000", "163636.371000", "163636.374000", "163636.376000", "163636.379000", "163636.381000", "163636.383000", "163636.386000", "163636.388000", "163636.391000", "163636.393000", "163636.396000", "163636.398000", "163636.401000", "163636.403000", "163636.406000", "163656.364000", "163656.367000", "163656.369000", "163656.371000", "163656.374000", "163656.376000", "163656.379000", "163656.381000", "163656.383000", "163656.386000", "163656.389000", "163656.391000", "163656.393000", "163656.396000", "163656.399000", "163656.401000", "163656.403000", "163656.406000", "163656.408000", "163656.411000", "163736.395000", "163736.397000", "163736.400000", "163736.402000", "163736.405000", "163736.407000", "163736.410000", "163736.412000", "163736.415000", "163736.417000", "163736.420000", "163736.422000", "163736.425000", "163736.432000", "163736.434000", "163736.437000", "163736.439000", "163736.442000", "163736.444000", "163736.447000", "163736.449000", "163736.452000", "163736.454000", "163736.457000", "163736.459000", "163736.461000", "163736.464000", "163736.467000", "163736.469000", "163736.471000", "163816.391000", "163816.394000", "163816.397000", "163816.399000", "163816.401000", "163816.404000", "163816.406000", "163816.409000", "163816.411000", "163816.414000", "163816.416000", "163816.419000", "163816.421000", "163816.424000", "163816.426000", "163816.429000", "163816.431000", "163816.434000", "163816.436000", "163816.438000", "163816.441000", "163816.443000", "163816.446000", "163816.448000", "163816.451000", "163816.453000", "163816.456000", "163856.399000", "163856.401000", "163856.404000", "163856.406000", "163856.409000", "163856.411000", "163856.414000", "163856.416000", "163856.419000", "163856.421000", "163856.424000", "163856.426000", "163856.429000", "163856.431000", "163856.434000", "163856.436000", "163856.439000", "163856.441000", "163856.444000", "163856.446000", "163856.449000", "163856.451000", "163856.454000", "163856.456000", "163856.459000", "163856.461000", "163856.464000", "163936.400000", "163936.403000", "163936.406000", "163936.408000", "163936.411000", "163936.413000", "163936.416000", "163936.418000", "163936.420000", "163936.423000", "163936.425000", "163936.428000", "163936.430000", "163936.433000", "163936.435000", "163936.438000", "163936.440000", "163936.442000", "163936.445000", "163936.448000", "163936.450000", "163936.452000", "163936.455000", "163936.457000", "163936.460000", "163936.462000", "163936.465000", "164016.391000", "164016.394000", "164016.396000", "164016.399000", "164016.401000", "164016.408000", "164016.411000", "164016.413000", "164016.416000", "164016.418000", "164016.421000", "164016.423000", "164016.426000", "164016.428000", "164016.431000", "164016.433000", "164016.436000", "164016.438000", "164016.441000", "164016.443000", "164016.446000", "164016.448000", "164016.451000", "164016.453000", "164016.455000", "164016.458000", "164016.460000", "164056.393000", "164056.396000", "164056.398000", "164056.406000", "164056.409000", "164056.411000", "164056.413000", "164056.416000", "164056.419000", "164056.421000", "164056.423000", "164056.426000", "164056.429000", "164056.431000", "164056.433000", "164056.436000", "164056.439000", "164056.441000", "164056.443000", "164056.446000", "164056.449000", "164056.451000", "164056.454000", "164056.456000", "164056.459000", "164056.461000", "164136.395000", "164136.397000", "164136.402000", "164136.405000", "164136.407000", "164136.410000", "164136.412000", "164136.415000", "164136.418000", "164136.420000", "164136.423000", "164136.425000", "164136.428000", "164136.430000", "164136.433000", "164136.435000", "164136.438000", "164136.440000", "164136.443000", "164136.445000", "164136.448000", "164136.450000", "164136.453000", "164136.455000", "164136.458000", "164136.460000", "164136.463000", "164216.379000", "164216.382000", "164216.384000", "164216.387000", "164216.398000", "164216.401000", "164216.403000", "164216.406000", "164216.408000", "164216.411000", "164216.413000", "164216.416000", "164216.419000", "164216.421000", "164216.423000", "164216.426000", "164216.429000", "164216.431000", "164216.434000", "164216.436000", "164216.439000", "164216.441000", "164216.443000", "164216.446000", "164216.449000", "164216.451000", "164216.453000", "164256.388000", "164256.391000", "164256.394000", "164256.396000", "164256.399000", "164256.401000", "164256.404000", "164256.406000", "164256.409000", "164256.411000", "164256.414000", "164256.416000", "164256.419000", "164256.421000", "164256.424000", "164256.426000", "164256.429000", "164256.431000", "164256.434000", "164256.437000", "164256.439000", "164256.442000", "164256.444000", "164256.447000", "164256.449000", "164256.452000", "164256.454000", "164336.385000", "164336.388000", "164336.390000", "164336.393000", "164336.395000", "164336.398000", "164336.400000", "164336.402000", "164336.405000", "164336.407000", "164336.410000", "164336.412000", "164336.415000", "164336.417000", "164336.420000", "164336.422000", "164336.425000", "164336.429000", "164336.432000", "164336.434000", "164336.437000", "164336.439000", "164336.442000", "164336.444000", "164336.447000", "164336.449000", "164336.452000", "164416.393000", "164416.396000", "164416.398000", "164416.401000", "164416.403000", "164416.406000", "164416.408000", "164416.411000", "164416.413000", "164416.416000", "164416.418000", "164416.421000", "164416.423000", "164416.426000", "164416.428000", "164416.431000", "164416.433000", "164416.436000", "164416.438000", "164416.441000", "164416.443000", "164416.445000", "164416.448000", "164416.450000", "164416.453000", "164416.455000", "164416.458000", "164456.395000", "164456.398000", "164456.401000", "164456.403000", "164456.412000", "164456.415000", "164456.417000", "164456.420000", "164456.422000", "164456.425000", "164456.427000", "164456.430000", "164456.432000", "164456.435000", "164456.437000", "164456.440000", "164456.442000", "164456.445000", "164456.447000", "164456.450000", "164456.453000", "164456.455000", "164456.457000", "164456.460000", "164456.463000", "164456.465000", "164456.467000", "164536.393000", "164536.396000", "164536.398000", "164536.401000", "164536.403000", "164536.406000", "164536.408000", "164536.411000", "164536.413000", "164536.416000", "164536.418000", "164536.421000", "164536.423000", "164536.426000", "164536.429000", "164536.431000", "164536.434000", "164536.436000", "164536.439000", "164536.441000", "164536.444000", "164536.447000", "164536.450000", "164536.452000", "164536.455000", "164536.457000", "164540.658000", "164540.661000", "164540.664000"],
