{
  "AcquisitionMatrixPE": 104,
  "AcquisitionNumber": 1,
  "AcquisitionTime": "16:10:19.387500",
  "BandwidthPerPixelPhaseEncode": 17.17,
  "BaseResolution": 104,
  "BodyPartExamined": "BRAIN",
  "CoilString": "HC1-7;NC1_2",
  "ConsistencyInfo": "N4_VE11C_LATEST_20160120",
  "ConversionSoftware": "dcm2niix",
  "ConversionSoftwareVersion": "v1.0.20190902",
  "DerivedVendorReportedEchoSpacing": 0.000560011,
  "DeviceSerialNumber": "167006",
  "DwellTime": 2.1e-06,
  "EchoTime": 0.037,
  "EchoTrainLength": 104,
  "EffectiveEchoSpacing": 0.000560011,
  "FlipAngle": 52,
  "HeudiconvVersion": "0.10.0",
  "ImageComments": "Unaliased_MB4_PE3_LB",
  "ImageOrientationPatientDICOM": [0.999787, -0.0201587, 0.00439073, 0.0204188, 0.93635, -0.350475],
  "ImageType": [
    "ORIGINAL",
    "PRIMARY",
    "P",
    "MB",
    "ND",
    "MOSAIC"
],
  "ImagingFrequency": 123.259,
  "InPlanePhaseEncodingDirectionDICOM": "COL",
  "InstitutionAddress": "Chemin_Queen-Mary_4565_Montreal_District_CA_H3W_1W5",
  "InstitutionName": "IUGM",
  "InstitutionalDepartmentName": "Department",
  "MRAcquisitionType": "2D",
  "MagneticFieldStrength": 3,
  "Manufacturer": "Siemens",
  "ManufacturersModelName": "Prisma_fit",
  "Modality": "MR",
  "MultibandAccelerationFactor": 4,
  "PartialFourier": 1,
  "PatientPosition": "HFS",
  "PercentPhaseFOV": 100,
  "PhaseEncodingDirection": "j",
  "PhaseEncodingSteps": 104,
  "PhaseResolution": 1,
  "PixelBandwidth": 2290,
  "ProcedureStepDescription": "games_mario",
  "ProtocolName": "func_task-mario_run-02",
  "PulseSequenceDetails": "%CustomerSeq%_cmrr_mbep2d_bold",
  "ReceiveCoilActiveElements": "HC1-7;NC1,2",
  "ReceiveCoilName": "HeadNeck_64",
  "ReconMatrixPE": 104,
  "RepetitionTime": 1.49,
  "SAR": 0.052825,
  "ScanOptions": "FS",
  "ScanningSequence": "EP",
  "SequenceName": "epfid2d1_104",
  "SequenceVariant": "SK_SS",
  "SeriesDescription": "func_task-mario_run-02",
  "SeriesNumber": 14,
  "ShimSetting": [621, -7249, -8847, 590, -6, -204, -97, -18],
  "SliceThickness": 2,
  "SliceTiming": [0, 0.785, 0.0975, 0.8825, 0.1975, 0.98, 0.295, 1.0775, 0.3925, 1.1775, 0.49, 1.275, 0.5875, 1.3725, 0.6875, 0, 0.785, 0.0975, 0.8825, 0.1975, 0.98, 0.295, 1.0775, 0.3925, 1.1775, 0.49, 1.275, 0.5875, 1.3725, 0.6875, 0, 0.785, 0.0975, 0.8825, 0.1975, 0.98, 0.295, 1.0775, 0.3925, 1.1775, 0.49, 1.275, 0.5875, 1.3725, 0.6875, 0, 0.785, 0.0975, 0.8825, 0.1975, 0.98, 0.295, 1.0775, 0.3925, 1.1775, 0.49, 1.275, 0.5875, 1.3725, 0.6875],
  "SoftwareVersions": "syngo_MR_E11",
  "SpacingBetweenSlices": 2,
  "StationName": "MRC35049",
  "TaskName": "mario",
  "TotalReadoutTime": 0.0576811,
  "TxRefAmp": 279.568,
  "WipMemBlock": "45ea37a9-b568-4e2c-a924-c9de5cea2f91||Sequence: R016 ve11c/master r/e634e98; Dec 19 2017 11:00:25 by eja",
  "dcmmeta_affine": [
    [-1.9995743036270142, 0.04083755612373352, -0.005907704588025808, 104.83895874023438],
    [0.04031740128993988, 1.87269926071167, -0.7009792327880859, -65.93555450439453],
    [0.008781461976468563, 0.7009491324424744, 1.8731238842010498, -71.12608337402344],
    [0.0, 0.0, 0.0, 1.0]
],
  "dcmmeta_reorient_transform": [
    [0.0, -1.0, 0.0, 103.0],
    [1.0, 0.0, 0.0, 0.0],
    [0.0, 0.0, 1.0, 0.0],
    [0.0, 0.0, 0.0, 1.0]
],
  "dcmmeta_shape": [104, 104, 60, 426],
  "dcmmeta_slice_dim": 2,
  "dcmmeta_version": 0.6,
  "global": {
    "const": {
      "AcquisitionMatrix": [104, 0, 0, 104],
      "AngioFlag": "N",
      "BitsAllocated": 16,
      "BitsStored": 16,
      "BodyPartExamined": "BRAIN",
      "Columns": 832,
      "EchoNumbers": 1,
      "EchoTime": 37.0,
      "EchoTrainLength": 104,
      "FlipAngle": 52.0,
      "HighBit": 15,
      "ImageOrientationPatient": [0.99978715149353, -0.0201587000714, 0.00439073113411, 0.02041877726197, 0.93634963864342, -0.3504745750371],
      "ImagePositionPatient": [-851.75514080335, -793.93947623309, 253.02071854602],
      "ImageType": [
        "ORIGINAL",
        "PRIMARY",
        "P",
        "MB",
        "ND",
        "MOSAIC"
],
      "ImagedNucleus": "1H",
      "ImagingFrequency": 123.258879,
      "InPlanePhaseEncodingDirection": "COL",
      "LargestImagePixelValue": 4095,
      "MRAcquisitionType": "2D",
      "MagneticFieldStrength": 3.0,
      "Manufacturer": "SIEMENS",
      "ManufacturerModelName": "Prisma_fit",
      "Modality": "MR",
      "NumberOfAverages": 1.0,
      "NumberOfPhaseEncodingSteps": 104,
      "PercentPhaseFieldOfView": 100.0,
      "PercentSampling": 100.0,
      "PerformedProcedureStepStartTime": "152737.161000",
      "PhotometricInterpretation": "MONOCHROME2",
      "PixelBandwidth": 2290.0,
      "PixelRepresentation": 0,
      "PixelSpacing": [2.0, 2.0],
      "ProtocolName": "func_task-mario_run-02",
      "RepetitionTime": 1490.0,
      "RescaleIntercept": -4096.0,
      "RescaleSlope": 2.0,
      "RescaleType": "US",
      "Rows": 832,
      "SAR": 0.05282495780944,
      "SamplesPerPixel": 1,
      "ScanOptions": "FS",
      "ScanningSequence": "EP",
      "SequenceName": "epfid2d1_104",
      "SequenceVariant": [
        "SK",
        "SS"
],
      "SeriesDescription": "func_task-mario_run-02",
      "SeriesNumber": 14,
      "SeriesTime": "161130.467000",
      "SliceLocation": -43.813933927777,
      "SliceThickness": 2.0,
      "SmallestImagePixelValue": 0,
      "SoftwareVersions": "syngo MR E11",
      "SpacingBetweenSlices": 1.9999999754422,
      "SpecificCharacterSet": "ISO_IR 100",
      "StudyID": "1",
      "StudyTime": "152737.092000",
      "TransmitCoilName": "Body",
      "VariableFlipAngleFlag": "N",
      "WindowCenterWidthExplanation": "Algo1",
      "dBdt": 0.0},
    "slices": {}
  },
  "time": {
    "samples": {
      "AcquisitionNumber": [1, 2, 3, 4, 5, 6, 7, 8, 9, 10, 11, 12, 13, 14, 15, 16, 17, 18, 19, 20, 21, 22, 23, 24, 25, 26, 27, 28, 29, 30, 31, 32, 33, 34, 35, 36, 37, 38, 39, 40, 41, 42, 43, 44, 45, 46, 47, 48, 49, 50, 51, 52, 53, 54, 55, 56, 57, 58, 59, 60, 61, 62, 63, 64, 65, 66, 67, 68, 69, 70, 71, 72, 73, 74, 75, 76, 77, 78, 79, 80, 81, 82, 83, 84, 85, 86, 87, 88, 89, 90, 91, 92, 93, 94, 95, 96, 97, 98, 99, 100, 101, 102, 103, 104, 105, 106, 107, 108, 109, 110, 111, 112, 113, 114, 115, 116, 117, 118, 119, 120, 121, 122, 123, 124, 125, 126, 127, 128, 129, 130, 131, 132, 133, 134, 135, 136, 137, 138, 139, 140, 141, 142, 143, 144, 145, 146, 147, 148, 149, 150, 151, 152, 153, 154, 155, 156, 157, 158, 159, 160, 161, 162, 163, 164, 165, 166, 167, 168, 169, 170, 171, 172, 173, 174, 175, 176, 177, 178, 179, 180, 181, 182, 183, 184, 185, 186, 187, 188, 189, 190, 191, 192, 193, 194, 195, 196, 197, 198, 199, 200, 201, 202, 203, 204, 205, 206, 207, 208, 209, 210, 211, 212, 213, 214, 215, 216, 217, 218, 219, 220, 221, 222, 223, 224, 225, 226, 227, 228, 229, 230, 231, 232, 233, 234, 235, 236, 237, 238, 239, 240, 241, 242, 243, 244, 245, 246, 247, 248, 249, 250, 251, 252, 253, 254, 255, 256, 257, 258, 259, 260, 261, 262, 263, 264, 265, 266, 267, 268, 269, 270, 271, 272, 273, 274, 275, 276, 277, 278, 279, 280, 281, 282, 283, 284, 285, 286, 287, 288, 289, 290, 291, 292, 293, 294, 295, 296, 297, 298, 299, 300, 301, 302, 303, 304, 305, 306, 307, 308, 309, 310, 311, 312, 313, 314, 315, 316, 317, 318, 319, 320, 321, 322, 323, 324, 325, 326, 327, 328, 329, 330, 331, 332, 333, 334, 335, 336, 337, 338, 339, 340, 341, 342, 343, 344, 345, 346, 347, 348, 349, 350, 351, 352, 353, 354, 355, 356, 357, 358, 359, 360, 361, 362, 363, 364, 365, 366, 367, 368, 369, 370, 371, 372, 373, 374, 375, 376, 377, 378, 379, 380, 381, 382, 383, 384, 385, 386, 387, 388, 389, 390, 391, 392, 393, 394, 395, 396, 397, 398, 399, 400, 401, 402, 403, 404, 405, 406, 407, 408, 409, 410, 411, 412, 413, 414, 415, 416, 417, 418, 419, 420, 421, 422, 423, 424, 425, 426],
      "AcquisitionTime": ["161019.387500", "161020.877500", "161022.367500", "161023.857500", "161025.347500", "161026.837500", "161028.327500", "161029.817500", "161031.307500", "161032.797500", "161034.287500", "161035.777500", "161037.267500", "161038.757500", "161040.247500", "161041.737500", "161043.227500", "161044.717500", "161046.207500", "161047.697500", "161049.187500", "161050.677500", "161052.167500", "161053.657500", "161055.147500", "161056.637500", "161058.127500", "161059.617500", "161101.107500", "161102.597500", "161104.087500", "161105.577500", "161107.067500", "161108.557500", "161110.047500", "161111.537500", "161113.027500", "161114.517500", "161116.007500", "161117.497500", "161118.987500", "161120.477500", "161121.967500", "161123.457500", "161124.947500", "161126.437500", "161127.927500", "161129.417500", "161130.907500", "161132.397500", "161133.887500", "161135.377500", "161136.867500", "161138.357500", "161139.847500", "161141.337500", "161142.827500", "161144.317500", "161145.807500", "161147.297500", "161148.787500", "161150.277500", "161151.767500", "161153.257500", "161154.747500", "161156.237500", "161157.727500", "161159.217500", "161200.707500", "161202.197500", "161203.687500", "161205.177500", "161206.667500", "161208.157500", "161209.647500", "161211.137500", "161212.627500", "161214.117500", "161215.607500", "161217.097500", "161218.587500", "161220.077500", "161221.567500", "161223.057500", "161224.547500", "161226.037500", "161227.527500", "161229.017500", "161230.507500", "161231.997500", "161233.487500", "161234.977500", "161236.467500", "161237.957500", "161239.447500", "161240.937500", "161242.427500", "161243.917500", "161245.407500", "161246.897500", "161248.387500", "161249.877500", "161251.367500", "161252.857500", "161254.347500", "161255.837500", "161257.327500", "161258.817500", "161300.307500", "161301.797500", "161303.287500", "161304.777500", "161306.267500", "161307.757500", "161309.247500", "161310.737500", "161312.227500", "161313.717500", "161315.207500", "161316.697500", "161318.187500", "161319.677500", "161321.167500", "161322.657500", "161324.147500", "161325.637500", "161327.127500", "161328.617500", "161330.107500", "161331.597500", "161333.087500", "161334.577500", "161336.067500", "161337.557500", "161339.047500", "161340.537500", "161342.027500", "161343.517500", "161345.007500", "161346.497500", "161347.987500", "161349.477500", "161350.967500", "161352.457500", "161353.947500", "161355.437500", "161356.927500", "161358.417500", "161359.907500", "161401.397500", "161402.887500", "161404.377500", "161405.867500", "161407.357500", "161408.847500", "161410.337500", "161411.827500", "161413.317500", "161414.807500", "161416.297500", "161417.787500", "161419.277500", "161420.767500", "161422.257500", "161423.747500", "161425.237500", "161426.727500", "161428.217500", "161429.707500", "161431.197500", "161432.687500", "161434.177500", "161435.667500", "161437.157500", "161438.647500", "161440.137500", "161441.627500", "161443.117500", "161444.607500", "161446.097500", "161447.587500", "161449.077500", "161450.567500", "161452.057500", "161453.547500", "161455.037500", "161456.527500", "161458.017500", "161459.507500", "161500.997500", "161502.487500", "161503.977500", "161505.467500", "161506.957500", "161508.447500", "161509.937500", "161511.427500", "161512.917500", "161514.407500", "161515.897500", "161517.387500", "161518.877500", "161520.367500", "161521.857500", "161523.347500", "161524.837500", "161526.327500", "161527.817500", "161529.307500", "161530.797500", "161532.287500", "161533.777500", "161535.267500", "161536.757500", "161538.247500", "161539.737500", "161541.227500", "161542.717500", "161544.207500", "161545.697500", "161547.187500", "161548.677500", "161550.167500", "161551.657500", "161553.147500", "161554.637500", "161556.127500", "161557.617500", "161559.107500", "161600.597500", "161602.087500", "161603.577500", "161605.067500", "161606.557500", "161608.047500", "161609.537500", "161611.027500", "161612.517500", "161614.007500", "161615.497500", "161616.987500", "161618.477500", "161619.967500", "161621.457500", "161622.947500", "161624.437500", "161625.927500", "161627.417500", "161628.907500", "161630.397500", "161631.887500", "161633.377500", "161634.867500", "161636.357500", "161637.847500", "161639.337500", "161640.827500", "161642.317500", "161643.807500", "161645.297500", "161646.787500", "161648.277500", "161649.767500", "161651.257500", "161652.747500", "161654.237500", "161655.727500", "161657.217500", "161658.707500", "161700.197500", "161701.687500", "161703.177500", "161704.667500", "161706.157500", "161707.647500", "161709.137500", "161710.627500", "161712.117500", "161713.607500", "161715.097500", "161716.587500", "161718.077500", "161719.567500", "161721.057500", "161722.547500", "161724.037500", "161725.527500", "161727.017500", "161728.507500", "161729.997500", "161731.487500", "161732.977500", "161734.467500", "161735.957500", "161737.447500", "161738.937500", "161740.427500", "161741.917500", "161743.407500", "161744.897500", "161746.387500", "161747.877500", "161749.367500", "161750.857500", "161752.347500", "161753.837500", "161755.327500", "161756.817500", "161758.307500", "161759.797500", "161801.287500", "161802.777500", "161804.267500", "161805.757500", "161807.247500", "161808.737500", "161810.227500", "161811.717500", "161813.207500", "161814.697500", "161816.187500", "161817.677500", "161819.167500", "161820.657500", "161822.147500", "161823.637500", "161825.127500", "161826.617500", "161828.107500", "161829.597500", "161831.087500", "161832.577500", "161834.067500", "161835.557500", "161837.047500", "161838.537500", "161840.027500", "161841.517500", "161843.007500", "161844.497500", "161845.987500", "161847.477500", "161848.967500", "161850.457500", "161851.947500", "161853.437500", "161854.927500", "161856.417500", "161857.907500", "161859.397500", "161900.887500", "161902.377500", "161903.867500", "161905.357500", "161906.847500", "161908.337500", "161909.827500", "161911.317500", "161912.807500", "161914.297500", "161915.787500", "161917.277500", "161918.767500", "161920.257500", "161921.747500", "161923.237500", "161924.727500", "161926.217500", "161927.707500", "161929.197500", "161930.687500", "161932.177500", "161933.667500", "161935.157500", "161936.647500", "161938.137500", "161939.627500", "161941.117500", "161942.607500", "161944.097500", "161945.587500", "161947.077500", "161948.567500", "161950.057500", "161951.547500", "161953.037500", "161954.527500", "161956.017500", "161957.507500", "161958.997500", "162000.487500", "162001.977500", "162003.467500", "162004.957500", "162006.447500", "162007.937500", "162009.427500", "162010.917500", "162012.407500", "162013.897500", "162015.387500", "162016.877500", "162018.367500", "162019.857500", "162021.347500", "162022.837500", "162024.327500", "162025.817500", "162027.307500", "162028.797500", "162030.287500", "162031.777500", "162033.267500", "162034.757500", "162036.247500", "162037.737500", "162039.227500", "162040.717500", "162042.207500", "162043.697500", "162045.187500", "162046.677500", "162048.167500", "162049.657500", "162051.147500", "162052.637500"],
      "ContentTime": ["161130.469000", "161130.472000", "161130.479000", "161130.481000", "161130.484000", "161130.486000", "161130.488000", "161130.491000", "161130.493000", "161130.496000", "161130.498000", "161130.501000", "161130.503000", "161130.505000", "161130.508000", "161150.455000", "161150.458000", "161150.460000", "161150.463000", "161150.465000", "161150.468000", "161150.470000", "161150.472000", "161150.475000", "161150.477000", "161150.480000", "161150.482000", "161150.485000", "161150.487000", "161150.489000", "161150.492000", "161150.494000", "161150.497000", "161150.499000", "161150.502000", "161210.454000", "161210.457000", "161210.459000", "161210.462000", "161210.464000", "161210.467000", "161210.469000", "161210.472000", "161210.474000", "161210.477000", "161210.480000", "161210.482000", "161210.485000", "161210.487000", "161210.490000", "161210.492000", "161210.495000", "161210.497000", "161210.499000", "161210.509000", "161230.459000", "161230.461000", "161230.464000", "161230.466000", "161230.469000", "161230.471000", "161230.474000", "161230.476000", "161230.479000", "161230.481000", "161230.483000", "161230.486000", "161230.488000", "161230.491000", "161230.493000", "161230.496000", "161230.498000", "161230.500000", "161230.503000", "161230.505000", "161250.435000", "161250.438000", "161250.440000", "161250.443000", "161250.445000", "161250.448000", "161250.450000", "161250.452000", "161250.455000", "161250.457000", "161250.460000", "161250.462000", "161250.465000", "161250.467000", "161250.469000", "161250.472000", "161250.474000", "161250.477000", "161250.479000", "161250.482000", "161250.484000", "161330.502000", "161330.505000", "161330.507000", "161330.510000", "161330.512000", "161330.514000", "161330.517000", "161330.519000", "161330.522000", "161330.524000", "161330.527000", "161330.529000", "161330.532000", "161330.534000", "161330.537000", "161330.539000", "161330.541000", "161330.544000", "161330.546000", "161330.549000", "161330.551000", "161330.554000", "161330.556000", "161330.559000", "161330.561000", "161330.564000", "161330.566000", "161330.569000", "161330.571000", "161330.574000", "161330.582000", "161410.474000", "161410.477000", "161410.479000", "161410.482000", "161410.484000", "161410.487000", "161410.489000", "161410.492000", "161410.494000", "161410.497000", "161410.499000", "161410.502000", "161410.504000", "161410.506000", "161410.509000", "161410.511000", "161410.514000", "161410.516000", "161410.519000", "161410.521000", "161410.524000", "161410.526000", "161410.529000", "161410.531000", "161410.534000", "161410.536000", "161410.538000", "161450.464000", "161450.467000", "161450.470000", "161450.472000", "161450.475000", "161450.477000", "161450.480000", "161450.482000", "161450.484000", "161450.487000", "161450.489000", "161450.492000", "161450.494000", "161450.497000", "161450.499000", "161450.502000", "161450.504000", "161450.507000", "161450.509000", "161450.511000", "161450.514000", "161450.516000", "161450.519000", "161450.521000", "161450.524000", "161450.526000", "161450.529000", "161530.484000", "161530.486000", "161530.489000", "161530.491000", "161530.494000", "161530.496000", "161530.499000", "161530.501000", "161530.503000", "161530.515000", "161530.517000", "161530.520000", "161530.522000", "161530.525000", "161530.527000", "161530.530000", "161530.532000", "161530.535000", "161530.537000", "161530.540000", "161530.542000", "161530.544000", "161530.547000", "161530.549000", "161530.552000", "161530.554000", "161530.557000", "161610.474000", "161610.477000", "161610.479000", "161610.482000", "161610.484000", "161610.487000", "161610.489000", "161610.492000", "161610.494000", "161610.497000", "161610.499000", "161610.502000", "161610.504000", "161610.507000", "161610.510000", "161610.512000", "161610.515000", "161610.517000", "161610.520000", "161610.522000", "161610.524000", "161610.527000", "161610.529000", "161610.532000", "161610.534000", "161610.537000", "161650.470000", "161650.473000", "161650.475000", "161650.478000", "161650.480000", "161650.483000", "161650.485000", "161650.488000", "161650.490000", "161650.493000", "161650.495000", "161650.498000", "161650.500000", "161650.503000", "161650.505000", "161650.508000", "161650.510000", "161650.513000", "161650.515000", "161650.518000", "161650.520000", "161650.523000", "161650.525000", "161650.527000", "161650.530000", "161650.532000", "161650.535000", "161730.466000", "161730.469000", "161730.471000", "161730.474000", "161730.476000", "161730.479000", "161730.481000", "161730.484000", "161730.486000", "161730.488000", "161730.491000", "161730.493000", "161730.496000", "161730.498000", "161730.501000", "161730.503000", "161730.506000", "161730.508000", "161730.511000", "161730.513000", "161730.516000", "161730.518000", "161730.521000", "161730.523000", "161730.525000", "161730.528000", "161730.530000", "161810.481000", "161810.483000", "161810.486000", "161810.488000", "161810.491000", "161810.493000", "161810.496000", "161810.498000", "161810.501000", "161810.503000", "161810.506000", "161810.508000", "161810.511000", "161810.513000", "161810.516000", "161810.518000", "161810.520000", "161810.523000", "161810.525000", "161810.528000", "161810.530000", "161810.533000", "161810.535000", "161810.538000", "161810.540000", "161810.543000", "161810.545000", "161850.489000", "161850.491000", "161850.494000", "161850.496000", "161850.499000", "161850.501000", "161850.504000", "161850.506000", "161850.509000", "161850.511000", "161850.514000", "161850.516000", "161850.519000", "161850.521000", "161850.524000", "161850.526000", "161850.528000", "161850.531000", "161850.533000", "161850.536000", "161850.538000", "161850.541000", "161850.543000", "161850.546000", "161850.548000", "161850.551000", "161850.553000", "161930.479000", "161930.482000", "161930.485000", "161930.487000", "161930.490000", "161930.492000", "161930.495000", "161930.497000", "161930.500000", "161930.502000", "161930.505000", "161930.507000", "161930.509000", "161930.512000", "161930.514000", "161930.517000", "161930.519000", "161930.522000", "161930.524000", "161930.527000", "161930.529000", "161930.532000", "161930.534000", "161930.537000", "161930.539000", "161930.542000", "161930.544000", "162010.464000", "162010.467000", "162010.470000", "162010.472000", "162010.475000", "162010.477000", "162010.480000", "162010.482000", "162010.484000", "162010.499000", "162010.502000", "162010.504000", "162010.506000", "162010.509000", "162010.511000", "162010.514000", "162010.516000", "162010.519000", "162010.521000", "162010.524000", "162010.526000", "162010.529000", "162010.531000", "162010.533000", "162010.536000", "162010.538000", "162050.473000", "162050.476000", "162050.479000", "162050.481000", "162050.484000", "162050.487000", "162050.489000", "162050.492000", "162050.494000", "162050.497000", "162050.499000", "162050.502000", "162050.504000", "162050.507000", "162050.509000", "162050.512000", "162050.514000", "162050.516000", "162050.519000", "162050.521000", "162050.524000", "162050.526000", "162050.529000", "162050.531000", "162050.534000", "162050.536000", "162050.539000", "162055.849000", "162055.852000", "162055.854000", "162055.856000"],
      "InstanceCreationTime": ["161130.469000", "161130.472000", "161130.479000", "161130.481000", "161130.484000", "161130.486000", "161130.488000", "161130.491000", "161130.493000", "161130.496000", "161130.498000", "161130.501000", "161130.503000", "161130.505000", "161130.508000", "161150.455000", "161150.458000", "161150.460000", "161150.463000", "161150.465000", "161150.468000", "161150.470000", "161150.472000", "161150.475000", "161150.477000", "161150.480000", "161150.482000", "161150.485000", "161150.487000", "161150.489000", "161150.492000", "161150.494000", "161150.497000", "161150.499000", "161150.502000", "161210.454000", "161210.457000", "161210.459000", "161210.462000", "161210.464000", "161210.467000", "161210.469000", "161210.472000", "161210.474000", "161210.477000", "161210.480000", "161210.482000", "161210.485000", "161210.487000", "161210.490000", "161210.492000", "161210.495000", "161210.497000", "161210.499000", "161210.509000", "161230.459000", "161230.461000", "161230.464000", "161230.466000", "161230.469000", "161230.471000", "161230.474000", "161230.476000", "161230.479000", "161230.481000", "161230.483000", "161230.486000", "161230.488000", "161230.491000", "161230.493000", "161230.496000", "161230.498000", "161230.500000", "161230.503000", "161230.505000", "161250.435000", "161250.438000", "161250.440000", "161250.443000", "161250.445000", "161250.448000", "161250.450000", "161250.452000", "161250.455000", "161250.457000", "161250.460000", "161250.462000", "161250.465000", "161250.467000", "161250.469000", "161250.472000", "161250.474000", "161250.477000", "161250.479000", "161250.482000", "161250.484000", "161330.502000", "161330.505000", "161330.507000", "161330.510000", "161330.512000", "161330.514000", "161330.517000", "161330.519000", "161330.522000", "161330.524000", "161330.527000", "161330.529000", "161330.532000", "161330.534000", "161330.537000", "161330.539000", "161330.541000", "161330.544000", "161330.546000", "161330.549000", "161330.551000", "161330.554000", "161330.556000", "161330.559000", "161330.561000", "161330.564000", "161330.566000", "161330.569000", "161330.571000", "161330.574000", "161330.582000", "161410.474000", "161410.477000", "161410.479000", "161410.482000", "161410.484000", "161410.487000", "161410.489000", "161410.492000", "161410.494000", "161410.497000", "161410.499000", "161410.502000", "161410.504000", "161410.506000", "161410.509000", "161410.511000", "161410.514000", "161410.516000", "161410.519000", "161410.521000", "161410.524000", "161410.526000", "161410.529000", "161410.531000", "161410.534000", "161410.536000", "161410.538000", "161450.464000", "161450.467000", "161450.470000", "161450.472000", "161450.475000", "161450.477000", "161450.480000", "161450.482000", "161450.484000", "161450.487000", "161450.489000", "161450.492000", "161450.494000", "161450.497000", "161450.499000", "161450.502000", "161450.504000", "161450.507000", "161450.509000", "161450.511000", "161450.514000", "161450.516000", "161450.519000", "161450.521000", "161450.524000", "161450.526000", "161450.529000", "161530.484000", "161530.486000", "161530.489000", "161530.491000", "161530.494000", "161530.496000", "161530.499000", "161530.501000", "161530.503000", "161530.515000", "161530.517000", "161530.520000", "161530.522000", "161530.525000", "161530.527000", "161530.530000", "161530.532000", "161530.535000", "161530.537000", "161530.540000", "161530.542000", "161530.544000", "161530.547000", "161530.549000", "161530.552000", "161530.554000", "161530.557000", "161610.474000", "161610.477000", "161610.479000", "161610.482000", "161610.484000", "161610.487000", "161610.489000", "161610.492000", "161610.494000", "161610.497000", "161610.499000", "161610.502000", "161610.504000", "161610.507000", "161610.510000", "161610.512000", "161610.515000", "161610.517000", "161610.520000", "161610.522000", "161610.524000", "161610.527000", "161610.529000", "161610.532000", "161610.534000", "161610.537000", "161650.470000", "161650.473000", "161650.475000", "161650.478000", "161650.480000", "161650.483000", "161650.485000", "161650.488000", "161650.490000", "161650.493000", "161650.495000", "161650.498000", "161650.500000", "161650.503000", "161650.505000", "161650.508000", "161650.510000", "161650.513000", "161650.515000", "161650.518000", "161650.520000", "161650.523000", "161650.525000", "161650.527000", "161650.530000", "161650.532000", "161650.535000", "161730.466000", "161730.469000", "161730.471000", "161730.474000", "161730.476000", "161730.479000", "161730.481000", "161730.484000", "161730.486000", "161730.488000", "161730.491000", "161730.493000", "161730.496000", "161730.498000", "161730.501000", "161730.503000", "161730.506000", "161730.508000", "161730.511000", "161730.513000", "161730.516000", "161730.518000", "161730.521000", "161730.523000", "161730.525000", "161730.528000", "161730.530000", "161810.481000", "161810.483000", "161810.486000", "161810.488000", "161810.491000", "161810.493000", "161810.496000", "161810.498000", "161810.501000", "161810.503000", "161810.506000", "161810.508000", "161810.511000", "161810.513000", "161810.516000", "161810.518000", "161810.520000", "161810.523000", "161810.525000", "161810.528000", "161810.530000", "161810.533000", "161810.535000", "161810.538000", "161810.540000", "161810.543000", "161810.545000", "161850.489000", "161850.491000", "161850.494000", "161850.496000", "161850.499000", "161850.501000", "161850.504000", "161850.506000", "161850.509000", "161850.511000", "161850.514000", "161850.516000", "161850.519000", "161850.521000", "161850.524000", "161850.526000", "161850.528000", "161850.531000", "161850.533000", "161850.536000", "161850.538000", "161850.541000", "161850.543000", "161850.546000", "161850.548000", "161850.551000", "161850.553000", "161930.479000", "161930.482000", "161930.485000", "161930.487000", "161930.490000", "161930.492000", "161930.495000", "161930.497000", "161930.500000", "161930.502000", "161930.505000", "161930.507000", "161930.509000", "161930.512000", "161930.514000", "161930.517000", "161930.519000", "161930.522000", "161930.524000", "161930.527000", "161930.529000", "161930.532000", "161930.534000", "161930.537000", "161930.539000", "161930.542000", "161930.544000", "162010.464000", "162010.467000", "162010.470000", "162010.472000", "162010.475000", "162010.477000", "162010.480000", "162010.482000", "162010.484000", "162010.499000", "162010.502000", "162010.504000", "162010.506000", "162010.509000", "162010.511000", "162010.514000", "162010.516000", "162010.519000", "162010.521000", "162010.524000", "162010.526000", "162010.529000", "162010.531000", "162010.533000", "162010.536000", "162010.538000", "162050.473000", "162050.476000", "162050.479000", "162050.481000", "162050.484000", "162050.487000", "162050.489000", "162050.492000", "162050.494000", "162050.497000", "162050.499000", "162050.502000", "162050.504000", "162050.507000", "162050.509000", "162050.512000", "162050.514000", "162050.516000", "162050.519000", "162050.521000", "162050.524000", "162050.526000", "162050.529000", "162050.531000", "162050.534000", "162050.536000", "162050.539000", "162055.849000", "162055.852000", "162055.854000", "162055.856000"],
