{
  "AcquisitionMatrixPE": 104,
  "AcquisitionNumber": 1,
  "AcquisitionTime": "16:22:17.805000",
  "BandwidthPerPixelPhaseEncode": 17.17,
  "BaseResolution": 104,
  "BodyPartExamined": "BRAIN",
  "CoilString": "HC1-7;NC1_2",
  "ConsistencyInfo": "N4_VE11C_LATEST_20160120",
  "ConversionSoftware": "dcm2niix",
  "ConversionSoftwareVersion": "v1.0.20190902",
  "DerivedVendorReportedEchoSpacing": 0.000560011,
  "DeviceSerialNumber": "167006",
  "DwellTime": 2.1e-06,
  "EchoTime": 0.037,
  "EchoTrainLength": 104,
  "EffectiveEchoSpacing": 0.000560011,
  "FlipAngle": 52,
  "HeudiconvVersion": "0.10.0",
  "ImageComments": "Unaliased_MB4_PE3_LB",
  "ImageOrientationPatientDICOM": [0.999787, -0.0201587, 0.00439073, 0.0204188, 0.93635, -0.350475],
  "ImageType": [
    "ORIGINAL",
    "PRIMARY",
    "M",
    "MB",
    "ND",
    "MOSAIC"
],
  "ImagingFrequency": 123.259,
  "InPlanePhaseEncodingDirectionDICOM": "COL",
  "InstitutionAddress": "Chemin_Queen-Mary_4565_Montreal_District_CA_H3W_1W5",
  "InstitutionName": "IUGM",
  "InstitutionalDepartmentName": "Department",
  "MRAcquisitionType": "2D",
  "MagneticFieldStrength": 3,
  "Manufacturer": "Siemens",
  "ManufacturersModelName": "Prisma_fit",
  "Modality": "MR",
  "MultibandAccelerationFactor": 4,
  "PartialFourier": 1,
  "PatientPosition": "HFS",
  "PercentPhaseFOV": 100,
  "PhaseEncodingDirection": "j",
  "PhaseEncodingSteps": 104,
  "PhaseResolution": 1,
  "PixelBandwidth": 2290,
  "ProcedureStepDescription": "games_mario",
  "ProtocolName": "func_task-mario_run-03",
  "PulseSequenceDetails": "%CustomerSeq%_cmrr_mbep2d_bold",
  "ReceiveCoilActiveElements": "HC1-7;NC1,2",
  "ReceiveCoilName": "HeadNeck_64",
  "ReconMatrixPE": 104,
  "RepetitionTime": 1.49,
  "SAR": 0.052825,
  "ScanOptions": "FS",
  "ScanningSequence": "EP",
  "SequenceName": "epfid2d1_104",
  "SequenceVariant": "SK_SS",
  "SeriesDescription": "func_task-mario_run-03",
  "SeriesNumber": 16,
  "ShimSetting": [621, -7249, -8847, 590, -6, -204, -97, -18],
  "SliceThickness": 2,
  "SliceTiming": [0, 0.785, 0.0975, 0.8825, 0.195, 0.98, 0.295, 1.0775, 0.3925, 1.175, 0.49, 1.275, 0.5875, 1.3725, 0.685, 0, 0.785, 0.0975, 0.8825, 0.195, 0.98, 0.295, 1.0775, 0.3925, 1.175, 0.49, 1.275, 0.5875, 1.3725, 0.685, 0, 0.785, 0.0975, 0.8825, 0.195, 0.98, 0.295, 1.0775, 0.3925, 1.175, 0.49, 1.275, 0.5875, 1.3725, 0.685, 0, 0.785, 0.0975, 0.8825, 0.195, 0.98, 0.295, 1.0775, 0.3925, 1.175, 0.49, 1.275, 0.5875, 1.3725, 0.685],
  "SoftwareVersions": "syngo_MR_E11",
  "SpacingBetweenSlices": 2,
  "StationName": "MRC35049",
  "TaskName": "mario",
  "TotalReadoutTime": 0.0576811,
  "TxRefAmp": 279.568,
  "WipMemBlock": "3b1ce979-9f08-4d37-a107-65dcac32616e||Sequence: R016 ve11c/master r/e634e98; Dec 19 2017 11:00:25 by eja",
  "dcmmeta_affine": [
    [-1.9995743036270142, 0.04083755612373352, -0.005907704588025808, 104.83895874023438],
    [0.04031740128993988, 1.87269926071167, -0.7009792327880859, -65.93555450439453],
    [0.008781461976468563, 0.7009491324424744, 1.8731238842010498, -71.12608337402344],
    [0.0, 0.0, 0.0, 1.0]
],
  "dcmmeta_reorient_transform": [
    [0.0, -1.0, 0.0, 103.0],
    [1.0, 0.0, 0.0, 0.0],
    [0.0, 0.0, 1.0, 0.0],
    [0.0, 0.0, 0.0, 1.0]
],
  "dcmmeta_shape": [104, 104, 60, 432],
  "dcmmeta_slice_dim": 2,
  "dcmmeta_version": 0.6,
  "global": {
    "const": {
      "AcquisitionMatrix": [104, 0, 0, 104],
      "AngioFlag": "N",
      "BitsAllocated": 16,
      "BitsStored": 16,
      "BodyPartExamined": "BRAIN",
      "Columns": 832,
      "EchoNumbers": 1,
      "EchoTime": 37.0,
      "EchoTrainLength": 104,
      "FlipAngle": 52.0,
      "HighBit": 15,
      "ImageOrientationPatient": [0.99978715149353, -0.0201587000714, 0.00439073113411, 0.02041877726197, 0.93634963864342, -0.3504745750371],
      "ImagePositionPatient": [-851.75514080335, -793.93947623309, 253.02071854602],
      "ImageType": [
        "ORIGINAL",
        "PRIMARY",
        "M",
        "MB",
        "ND",
        "MOSAIC"
],
      "ImagedNucleus": "1H",
      "ImagingFrequency": 123.258883,
      "InPlanePhaseEncodingDirection": "COL",
      "MRAcquisitionType": "2D",
      "MagneticFieldStrength": 3.0,
      "Manufacturer": "SIEMENS",
      "ManufacturerModelName": "Prisma_fit",
      "Modality": "MR",
      "NumberOfAverages": 1.0,
      "NumberOfPhaseEncodingSteps": 104,
      "PercentPhaseFieldOfView": 100.0,
      "PercentSampling": 100.0,
      "PerformedProcedureStepStartTime": "152737.161000",
      "PhotometricInterpretation": "MONOCHROME2",
      "PixelBandwidth": 2290.0,
      "PixelRepresentation": 0,
      "PixelSpacing": [2.0, 2.0],
      "ProtocolName": "func_task-mario_run-03",
      "RepetitionTime": 1490.0,
      "Rows": 832,
      "SAR": 0.05282495780944,
      "SamplesPerPixel": 1,
      "ScanOptions": "FS",
      "ScanningSequence": "EP",
      "SequenceName": "epfid2d1_104",
      "SequenceVariant": [
        "SK",
        "SS"
],
      "SeriesDescription": "func_task-mario_run-03",
      "SeriesNumber": 16,
      "SeriesTime": "162338.524000",
      "SliceLocation": -43.813933927777,
      "SliceThickness": 2.0,
      "SmallestImagePixelValue": 0,
      "SoftwareVersions": "syngo MR E11",
      "SpacingBetweenSlices": 1.9999999754422,
      "SpecificCharacterSet": "ISO_IR 100",
      "StudyID": "1",
      "StudyTime": "152737.092000",
      "TransmitCoilName": "Body",
      "VariableFlipAngleFlag": "N",
      "WindowCenterWidthExplanation": "Algo1",
      "dBdt": 0.0},
    "slices": {}
  },
  "time": {
    "samples": {
      "AcquisitionNumber": [1, 2, 3, 4, 5, 6, 7, 8, 9, 10, 11, 12, 13, 14, 15, 16, 17, 18, 19, 20, 21, 22, 23, 24, 25, 26, 27, 28, 29, 30, 31, 32, 33, 34, 35, 36, 37, 38, 39, 40, 41, 42, 43, 44, 45, 46, 47, 48, 49, 50, 51, 52, 53, 54, 55, 56, 57, 58, 59, 60, 61, 62, 63, 64, 65, 66, 67, 68, 69, 70, 71, 72, 73, 74, 75, 76, 77, 78, 79, 80, 81, 82, 83, 84, 85, 86, 87, 88, 89, 90, 91, 92, 93, 94, 95, 96, 97, 98, 99, 100, 101, 102, 103, 104, 105, 106, 107, 108, 109, 110, 111, 112, 113, 114, 115, 116, 117, 118, 119, 120, 121, 122, 123, 124, 125, 126, 127, 128, 129, 130, 131, 132, 133, 134, 135, 136, 137, 138, 139, 140, 141, 142, 143, 144, 145, 146, 147, 148, 149, 150, 151, 152, 153, 154, 155, 156, 157, 158, 159, 160, 161, 162, 163, 164, 165, 166, 167, 168, 169, 170, 171, 172, 173, 174, 175, 176, 177, 178, 179, 180, 181, 182, 183, 184, 185, 186, 187, 188, 189, 190, 191, 192, 193, 194, 195, 196, 197, 198, 199, 200, 201, 202, 203, 204, 205, 206, 207, 208, 209, 210, 211, 212, 213, 214, 215, 216, 217, 218, 219, 220, 221, 222, 223, 224, 225, 226, 227, 228, 229, 230, 231, 232, 233, 234, 235, 236, 237, 238, 239, 240, 241, 242, 243, 244, 245, 246, 247, 248, 249, 250, 251, 252, 253, 254, 255, 256, 257, 258, 259, 260, 261, 262, 263, 264, 265, 266, 267, 268, 269, 270, 271, 272, 273, 274, 275, 276, 277, 278, 279, 280, 281, 282, 283, 284, 285, 286, 287, 288, 289, 290, 291, 292, 293, 294, 295, 296, 297, 298, 299, 300, 301, 302, 303, 304, 305, 306, 307, 308, 309, 310, 311, 312, 313, 314, 315, 316, 317, 318, 319, 320, 321, 322, 323, 324, 325, 326, 327, 328, 329, 330, 331, 332, 333, 334, 335, 336, 337, 338, 339, 340, 341, 342, 343, 344, 345, 346, 347, 348, 349, 350, 351, 352, 353, 354, 355, 356, 357, 358, 359, 360, 361, 362, 363, 364, 365, 366, 367, 368, 369, 370, 371, 372, 373, 374, 375, 376, 377, 378, 379, 380, 381, 382, 383, 384, 385, 386, 387, 388, 389, 390, 391, 392, 393, 394, 395, 396, 397, 398, 399, 400, 401, 402, 403, 404, 405, 406, 407, 408, 409, 410, 411, 412, 413, 414, 415, 416, 417, 418, 419, 420, 421, 422, 423, 424, 425, 426, 427, 428, 429, 430, 431, 432],
      "AcquisitionTime": ["162217.805000", "162219.295000", "162220.785000", "162222.275000", "162223.765000", "162225.255000", "162226.745000", "162228.235000", "162229.725000", "162231.215000", "162232.705000", "162234.195000", "162235.685000", "162237.175000", "162238.665000", "162240.155000", "162241.645000", "162243.135000", "162244.625000", "162246.115000", "162247.605000", "162249.095000", "162250.585000", "162252.075000", "162253.565000", "162255.055000", "162256.545000", "162258.035000", "162259.525000", "162301.015000", "162302.505000", "162303.995000", "162305.485000", "162306.975000", "162308.465000", "162309.955000", "162311.445000", "162312.935000", "162314.425000", "162315.915000", "162317.405000", "162318.895000", "162320.385000", "162321.875000", "162323.365000", "162324.855000", "162326.345000", "162327.835000", "162329.325000", "162330.815000", "162332.305000", "162333.795000", "162335.285000", "162336.775000", "162338.265000", "162339.755000", "162341.245000", "162342.735000", "162344.225000", "162345.715000", "162347.205000", "162348.695000", "162350.185000", "162351.675000", "162353.165000", "162354.655000", "162356.145000", "162357.635000", "162359.125000", "162400.615000", "162402.105000", "162403.595000", "162405.085000", "162406.575000", "162408.065000", "162409.555000", "162411.045000", "162412.535000", "162414.025000", "162415.515000", "162417.005000", "162418.495000", "162419.985000", "162421.475000", "162422.965000", "162424.455000", "162425.945000", "162427.435000", "162428.925000", "162430.415000", "162431.905000", "162433.395000", "162434.885000", "162436.375000", "162437.865000", "162439.355000", "162440.845000", "162442.335000", "162443.825000", "162445.315000", "162446.805000", "162448.295000", "162449.785000", "162451.275000", "162452.765000", "162454.255000", "162455.745000", "162457.235000", "162458.725000", "162500.215000", "162501.705000", "162503.195000", "162504.685000", "162506.175000", "162507.665000", "162509.155000", "162510.645000", "162512.135000", "162513.625000", "162515.115000", "162516.605000", "162518.095000", "162519.585000", "162521.075000", "162522.565000", "162524.055000", "162525.545000", "162527.035000", "162528.525000", "162530.015000", "162531.505000", "162532.995000", "162534.485000", "162535.975000", "162537.465000", "162538.955000", "162540.445000", "162541.935000", "162543.425000", "162544.915000", "162546.405000", "162547.895000", "162549.385000", "162550.875000", "162552.365000", "162553.855000", "162555.345000", "162556.835000", "162558.325000", "162559.815000", "162601.305000", "162602.795000", "162604.285000", "162605.775000", "162607.265000", "162608.755000", "162610.245000", "162611.735000", "162613.225000", "162614.715000", "162616.205000", "162617.695000", "162619.185000", "162620.675000", "162622.165000", "162623.655000", "162625.145000", "162626.635000", "162628.125000", "162629.615000", "162631.105000", "162632.595000", "162634.085000", "162635.575000", "162637.065000", "162638.555000", "162640.045000", "162641.535000", "162643.025000", "162644.515000", "162646.005000", "162647.495000", "162648.985000", "162650.475000", "162651.965000", "162653.455000", "162654.945000", "162656.435000", "162657.925000", "162659.415000", "162700.905000", "162702.395000", "162703.885000", "162705.375000", "162706.865000", "162708.355000", "162709.845000", "162711.335000", "162712.825000", "162714.315000", "162715.805000", "162717.295000", "162718.785000", "162720.275000", "162721.765000", "162723.255000", "162724.745000", "162726.235000", "162727.725000", "162729.215000", "162730.705000", "162732.195000", "162733.685000", "162735.175000", "162736.665000", "162738.155000", "162739.645000", "162741.135000", "162742.625000", "162744.115000", "162745.605000", "162747.095000", "162748.585000", "162750.075000", "162751.565000", "162753.055000", "162754.545000", "162756.035000", "162757.525000", "162759.015000", "162800.505000", "162801.995000", "162803.485000", "162804.975000", "162806.465000", "162807.955000", "162809.445000", "162810.935000", "162812.425000", "162813.915000", "162815.405000", "162816.895000", "162818.385000", "162819.875000", "162821.365000", "162822.855000", "162824.345000", "162825.835000", "162827.325000", "162828.815000", "162830.305000", "162831.795000", "162833.285000", "162834.775000", "162836.265000", "162837.755000", "162839.245000", "162840.735000", "162842.225000", "162843.715000", "162845.205000", "162846.695000", "162848.185000", "162849.675000", "162851.165000", "162852.655000", "162854.145000", "162855.635000", "162857.125000", "162858.615000", "162900.105000", "162901.595000", "162903.085000", "162904.575000", "162906.065000", "162907.555000", "162909.045000", "162910.535000", "162912.025000", "162913.515000", "162915.005000", "162916.495000", "162917.985000", "162919.475000", "162920.965000", "162922.455000", "162923.945000", "162925.435000", "162926.925000", "162928.415000", "162929.905000", "162931.395000", "162932.885000", "162934.375000", "162935.865000", "162937.355000", "162938.845000", "162940.335000", "162941.825000", "162943.315000", "162944.805000", "162946.295000", "162947.785000", "162949.275000", "162950.765000", "162952.255000", "162953.745000", "162955.235000", "162956.725000", "162958.215000", "162959.705000", "163001.195000", "163002.685000", "163004.175000", "163005.665000", "163007.155000", "163008.645000", "163010.135000", "163011.625000", "163013.115000", "163014.605000", "163016.095000", "163017.585000", "163019.075000", "163020.565000", "163022.055000", "163023.545000", "163025.035000", "163026.525000", "163028.015000", "163029.505000", "163030.995000", "163032.485000", "163033.975000", "163035.465000", "163036.955000", "163038.445000", "163039.935000", "163041.425000", "163042.915000", "163044.405000", "163045.895000", "163047.385000", "163048.875000", "163050.365000", "163051.855000", "163053.345000", "163054.835000", "163056.325000", "163057.815000", "163059.305000", "163100.795000", "163102.285000", "163103.775000", "163105.265000", "163106.755000", "163108.245000", "163109.735000", "163111.225000", "163112.715000", "163114.205000", "163115.695000", "163117.185000", "163118.675000", "163120.165000", "163121.655000", "163123.145000", "163124.635000", "163126.125000", "163127.615000", "163129.105000", "163130.595000", "163132.085000", "163133.575000", "163135.065000", "163136.555000", "163138.045000", "163139.535000", "163141.025000", "163142.515000", "163144.005000", "163145.495000", "163146.985000", "163148.475000", "163149.965000", "163151.455000", "163152.945000", "163154.435000", "163155.925000", "163157.415000", "163158.905000", "163200.395000", "163201.885000", "163203.375000", "163204.865000", "163206.355000", "163207.845000", "163209.335000", "163210.825000", "163212.315000", "163213.805000", "163215.295000", "163216.785000", "163218.275000", "163219.765000", "163221.255000", "163222.745000", "163224.235000", "163225.725000", "163227.215000", "163228.705000", "163230.195000", "163231.685000", "163233.175000", "163234.665000", "163236.155000", "163237.645000", "163239.135000", "163240.625000", "163242.115000", "163243.605000", "163245.095000", "163246.585000", "163248.075000", "163249.565000", "163251.055000", "163252.545000", "163254.035000", "163255.525000", "163257.015000", "163258.505000", "163259.995000"],
      "ContentTime": ["162338.528000", "162338.536000", "162338.539000", "162338.542000", "162338.546000", "162338.549000", "162338.553000", "162338.556000", "162338.559000", "162338.563000", "162338.566000", "162338.569000", "162338.572000", "162338.576000", "162338.579000", "162338.582000", "162338.592000", "162338.595000", "162338.598000", "162338.602000", "162338.605000", "162338.608000", "162338.611000", "162338.615000", "162338.618000", "162338.621000", "162338.625000", "162338.628000", "162358.496000", "162358.500000", "162358.503000", "162358.506000", "162358.509000", "162358.513000", "162358.516000", "162358.519000", "162358.522000", "162358.525000", "162358.529000", "162358.532000", "162358.535000", "162358.538000", "162358.542000", "162358.545000", "162358.548000", "162358.551000", "162358.554000", "162358.558000", "162418.497000", "162418.501000", "162418.504000", "162418.507000", "162418.511000", "162418.514000", "162418.517000", "162418.520000", "162418.524000", "162418.527000", "162418.530000", "162418.533000", "162418.550000", "162418.553000", "162418.556000", "162418.565000", "162418.568000", "162418.571000", "162418.575000", "162418.578000", "162438.497000", "162438.501000", "162438.504000", "162438.507000", "162438.510000", "162438.514000", "162438.517000", "162438.524000", "162438.527000", "162438.530000", "162438.533000", "162438.537000", "162438.540000", "162438.543000", "162438.546000", "162438.550000", "162438.553000", "162438.556000", "162438.560000", "162438.563000", "162518.496000", "162518.500000", "162518.503000", "162518.506000", "162518.510000", "162518.513000", "162518.516000", "162518.519000", "162518.523000", "162518.533000", "162518.536000", "162518.539000", "162518.543000", "162518.546000", "162518.549000", "162518.553000", "162518.556000", "162518.559000", "162518.562000", "162518.566000", "162518.569000", "162518.572000", "162518.575000", "162518.579000", "162518.582000", "162518.585000", "162518.588000", "162518.592000", "162518.595000", "162518.598000", "162518.601000", "162518.605000", "162558.496000", "162558.500000", "162558.503000", "162558.507000", "162558.510000", "162558.513000", "162558.516000", "162558.520000", "162558.523000", "162558.526000", "162558.529000", "162558.533000", "162558.536000", "162558.539000", "162558.542000", "162558.546000", "162558.549000", "162558.552000", "162558.556000", "162558.559000", "162558.562000", "162558.565000", "162558.569000", "162558.572000", "162558.575000", "162558.578000", "162558.582000", "162638.497000", "162638.501000", "162638.504000", "162638.508000", "162638.511000", "162638.514000", "162638.526000", "162638.529000", "162638.533000", "162638.536000", "162638.539000", "162638.542000", "162638.546000", "162638.549000", "162638.552000", "162638.556000", "162638.559000", "162638.562000", "162638.565000", "162638.569000", "162638.572000", "162638.575000", "162638.578000", "162638.582000", "162638.585000", "162638.588000", "162638.591000", "162718.496000", "162718.500000", "162718.503000", "162718.506000", "162718.509000", "162718.513000", "162718.516000", "162718.519000", "162718.522000", "162718.526000", "162718.529000", "162718.532000", "162718.536000", "162718.539000", "162718.542000", "162718.546000", "162718.549000", "162718.552000", "162718.555000", "162718.559000", "162718.562000", "162718.565000", "162718.569000", "162718.572000", "162718.575000", "162718.578000", "162718.582000", "162758.496000", "162758.500000", "162758.503000", "162758.506000", "162758.510000", "162758.513000", "162758.516000", "162758.519000", "162758.523000", "162758.526000", "162758.529000", "162758.532000", "162758.536000", "162758.539000", "162758.543000", "162758.546000", "162758.549000", "162758.553000", "162758.556000", "162758.559000", "162758.562000", "162758.566000", "162758.569000", "162758.572000", "162758.576000", "162758.579000", "162758.582000", "162838.496000", "162838.500000", "162838.503000", "162838.506000", "162838.510000", "162838.513000", "162838.516000", "162838.519000", "162838.523000", "162838.526000", "162838.529000", "162838.532000", "162838.536000", "162838.539000", "162838.542000", "162838.545000", "162838.549000", "162838.552000", "162838.555000", "162838.558000", "162838.562000", "162838.565000", "162838.568000", "162838.572000", "162838.575000", "162838.578000", "162838.581000", "162918.497000", "162918.501000", "162918.504000", "162918.509000", "162918.513000", "162918.516000", "162918.520000", "162918.523000", "162918.526000", "162918.530000", "162918.533000", "162918.536000", "162918.540000", "162918.543000", "162918.546000", "162918.549000", "162918.552000", "162918.556000", "162918.559000", "162918.563000", "162918.566000", "162918.569000", "162918.572000", "162918.576000", "162918.579000", "162918.582000", "162958.496000", "162958.500000", "162958.503000", "162958.507000", "162958.510000", "162958.514000", "162958.517000", "162958.520000", "162958.523000", "162958.527000", "162958.530000", "162958.533000", "162958.537000", "162958.540000", "162958.543000", "162958.547000", "162958.550000", "162958.553000", "162958.556000", "162958.560000", "162958.563000", "162958.566000", "162958.570000", "162958.573000", "162958.576000", "162958.579000", "162958.583000", "163038.496000", "163038.500000", "163038.503000", "163038.507000", "163038.510000", "163038.513000", "163038.517000", "163038.520000", "163038.523000", "163038.526000", "163038.530000", "163038.533000", "163038.536000", "163038.540000", "163038.543000", "163038.546000", "163038.550000", "163038.553000", "163038.556000", "163038.560000", "163038.563000", "163038.566000", "163038.570000", "163038.573000", "163038.576000", "163038.579000", "163038.582000", "163118.497000", "163118.501000", "163118.504000", "163118.508000", "163118.511000", "163118.515000", "163118.518000", "163118.521000", "163118.524000", "163118.528000", "163118.531000", "163118.534000", "163118.551000", "163118.555000", "163118.558000", "163118.562000", "163118.565000", "163118.568000", "163118.571000", "163118.575000", "163118.578000", "163118.581000", "163118.585000", "163118.588000", "163118.591000", "163118.594000", "163118.598000", "163158.496000", "163158.500000", "163158.503000", "163158.514000", "163158.518000", "163158.521000", "163158.524000", "163158.528000", "163158.531000", "163158.534000", "163158.539000", "163158.543000", "163158.546000", "163158.549000", "163158.553000", "163158.556000", "163158.559000", "163158.563000", "163158.566000", "163158.569000", "163158.573000", "163158.576000", "163158.579000", "163158.582000", "163158.585000", "163158.589000", "163158.592000", "163238.496000", "163238.500000", "163238.503000", "163238.507000", "163238.510000", "163238.514000", "163238.517000", "163238.520000", "163238.523000", "163238.527000", "163238.530000", "163238.533000", "163238.537000", "163238.540000", "163238.543000", "163238.547000", "163238.550000", "163238.553000", "163238.557000", "163238.560000", "163238.563000", "163238.567000", "163238.570000", "163238.573000", "163238.576000", "163238.580000", "163238.583000", "163302.428000", "163302.432000", "163302.435000", "163302.439000", "163302.442000", "163302.445000", "163302.449000", "163302.452000", "163302.455000", "163302.459000", "163302.462000", "163302.465000", "163302.469000", "163302.472000", "163302.475000", "163302.479000"],
      "InstanceCreationTime": ["162338.528000", "162338.536000", "162338.539000", "162338.542000", "162338.546000", "162338.549000", "162338.553000", "162338.556000", "162338.559000", "162338.563000", "162338.566000", "162338.569000", "162338.572000", "162338.576000", "162338.579000", "162338.582000", "162338.592000", "162338.595000", "162338.598000", "162338.602000", "162338.605000", "162338.608000", "162338.611000", "162338.615000", "162338.618000", "162338.621000", "162338.625000", "162338.628000", "162358.496000", "162358.500000", "162358.503000", "162358.506000", "162358.509000", "162358.513000", "162358.516000", "162358.519000", "162358.522000", "162358.525000", "162358.529000", "162358.532000", "162358.535000", "162358.538000", "162358.542000", "162358.545000", "162358.548000", "162358.551000", "162358.554000", "162358.558000", "162418.497000", "162418.501000", "162418.504000", "162418.507000", "162418.511000", "162418.514000", "162418.517000", "162418.520000", "162418.524000", "162418.527000", "162418.530000", "162418.533000", "162418.550000", "162418.553000", "162418.556000", "162418.565000", "162418.568000", "162418.571000", "162418.575000", "162418.578000", "162438.497000", "162438.501000", "162438.504000", "162438.507000", "162438.510000", "162438.514000", "162438.517000", "162438.524000", "162438.527000", "162438.530000", "162438.533000", "162438.537000", "162438.540000", "162438.543000", "162438.546000", "162438.550000", "162438.553000", "162438.556000", "162438.560000", "162438.563000", "162518.496000", "162518.500000", "162518.503000", "162518.506000", "162518.510000", "162518.513000", "162518.516000", "162518.519000", "162518.523000", "162518.533000", "162518.536000", "162518.539000", "162518.543000", "162518.546000", "162518.549000", "162518.553000", "162518.556000", "162518.559000", "162518.562000", "162518.566000", "162518.569000", "162518.572000", "162518.575000", "162518.579000", "162518.582000", "162518.585000", "162518.588000", "162518.592000", "162518.595000", "162518.598000", "162518.601000", "162518.605000", "162558.496000", "162558.500000", "162558.503000", "162558.507000", "162558.510000", "162558.513000", "162558.516000", "162558.520000", "162558.523000", "162558.526000", "162558.529000", "162558.533000", "162558.536000", "162558.539000", "162558.542000", "162558.546000", "162558.549000", "162558.552000", "162558.556000", "162558.559000", "162558.562000", "162558.565000", "162558.569000", "162558.572000", "162558.575000", "162558.578000", "162558.582000", "162638.497000", "162638.501000", "162638.504000", "162638.508000", "162638.511000", "162638.514000", "162638.526000", "162638.529000", "162638.533000", "162638.536000", "162638.539000", "162638.542000", "162638.546000", "162638.549000", "162638.552000", "162638.556000", "162638.559000", "162638.562000", "162638.565000", "162638.569000", "162638.572000", "162638.575000", "162638.578000", "162638.582000", "162638.585000", "162638.588000", "162638.591000", "162718.496000", "162718.500000", "162718.503000", "162718.506000", "162718.509000", "162718.513000", "162718.516000", "162718.519000", "162718.522000", "162718.526000", "162718.529000", "162718.532000", "162718.536000", "162718.539000", "162718.542000", "162718.546000", "162718.549000", "162718.552000", "162718.555000", "162718.559000", "162718.562000", "162718.565000", "162718.569000", "162718.572000", "162718.575000", "162718.578000", "162718.582000", "162758.496000", "162758.500000", "162758.503000", "162758.506000", "162758.510000", "162758.513000", "162758.516000", "162758.519000", "162758.523000", "162758.526000", "162758.529000", "162758.532000", "162758.536000", "162758.539000", "162758.543000", "162758.546000", "162758.549000", "162758.553000", "162758.556000", "162758.559000", "162758.562000", "162758.566000", "162758.569000", "162758.572000", "162758.576000", "162758.579000", "162758.582000", "162838.496000", "162838.500000", "162838.503000", "162838.506000", "162838.510000", "162838.513000", "162838.516000", "162838.519000", "162838.523000", "162838.526000", "162838.529000", "162838.532000", "162838.536000", "162838.539000", "162838.542000", "162838.545000", "162838.549000", "162838.552000", "162838.555000", "162838.558000", "162838.562000", "162838.565000", "162838.568000", "162838.572000", "162838.575000", "162838.578000", "162838.581000", "162918.497000", "162918.501000", "162918.504000", "162918.509000", "162918.513000", "162918.516000", "162918.520000", "162918.523000", "162918.526000", "162918.530000", "162918.533000", "162918.536000", "162918.540000", "162918.543000", "162918.546000", "162918.549000", "162918.552000", "162918.556000", "162918.559000", "162918.563000", "162918.566000", "162918.569000", "162918.572000", "162918.576000", "162918.579000", "162918.582000", "162958.496000", "162958.500000", "162958.503000", "162958.507000", "162958.510000", "162958.514000", "162958.517000", "162958.520000", "162958.523000", "162958.527000", "162958.530000", "162958.533000", "162958.537000", "162958.540000", "162958.543000", "162958.547000", "162958.550000", "162958.553000", "162958.556000", "162958.560000", "162958.563000", "162958.566000", "162958.570000", "162958.573000", "162958.576000", "162958.579000", "162958.583000", "163038.496000", "163038.500000", "163038.503000", "163038.507000", "163038.510000", "163038.513000", "163038.517000", "163038.520000", "163038.523000", "163038.526000", "163038.530000", "163038.533000", "163038.536000", "163038.540000", "163038.543000", "163038.546000", "163038.550000", "163038.553000", "163038.556000", "163038.560000", "163038.563000", "163038.566000", "163038.570000", "163038.573000", "163038.576000", "163038.579000", "163038.582000", "163118.497000", "163118.501000", "163118.504000", "163118.508000", "163118.511000", "163118.515000", "163118.518000", "163118.521000", "163118.524000", "163118.528000", "163118.531000", "163118.534000", "163118.551000", "163118.555000", "163118.558000", "163118.562000", "163118.565000", "163118.568000", "163118.571000", "163118.575000", "163118.578000", "163118.581000", "163118.585000", "163118.588000", "163118.591000", "163118.594000", "163118.598000", "163158.496000", "163158.500000", "163158.503000", "163158.514000", "163158.518000", "163158.521000", "163158.524000", "163158.528000", "163158.531000", "163158.534000", "163158.539000", "163158.543000", "163158.546000", "163158.549000", "163158.553000", "163158.556000", "163158.559000", "163158.563000", "163158.566000", "163158.569000", "163158.573000", "163158.576000", "163158.579000", "163158.582000", "163158.585000", "163158.589000", "163158.592000", "163238.496000", "163238.500000", "163238.503000", "163238.507000", "163238.510000", "163238.514000", "163238.517000", "163238.520000", "163238.523000", "163238.527000", "163238.530000", "163238.533000", "163238.537000", "163238.540000", "163238.543000", "163238.547000", "163238.550000", "163238.553000", "163238.557000", "163238.560000", "163238.563000", "163238.567000", "163238.570000", "163238.573000", "163238.576000", "163238.580000", "163238.583000", "163302.428000", "163302.432000", "163302.435000", "163302.439000", "163302.442000", "163302.445000", "163302.449000", "163302.452000", "163302.455000", "163302.459000", "163302.462000", "163302.465000", "163302.469000", "163302.472000", "163302.475000", "163302.479000"],
