{
  "AcquisitionMatrixPE": 104,
  "AcquisitionNumber": 1,
  "AcquisitionTime": "16:22:17.805000",
  "BandwidthPerPixelPhaseEncode": 17.17,
  "BaseResolution": 104,
  "BodyPartExamined": "BRAIN",
  "CoilString": "HC1-7;NC1_2",
  "ConsistencyInfo": "N4_VE11C_LATEST_20160120",
  "ConversionSoftware": "dcm2niix",
  "ConversionSoftwareVersion": "v1.0.20190902",
  "DerivedVendorReportedEchoSpacing": 0.000560011,
  "DeviceSerialNumber": "167006",
  "DwellTime": 2.1e-06,
  "EchoTime": 0.037,
  "EchoTrainLength": 104,
  "EffectiveEchoSpacing": 0.000560011,
  "FlipAngle": 52,
  "HeudiconvVersion": "0.10.0",
  "ImageComments": "Unaliased_MB4_PE3_LB",
  "ImageOrientationPatientDICOM": [0.999787, -0.0201587, 0.00439073, 0.0204188, 0.93635, -0.350475],
  "ImageType": [
    "ORIGINAL",
    "PRIMARY",
    "P",
    "MB",
    "ND",
    "MOSAIC"
],
  "ImagingFrequency": 123.259,
  "InPlanePhaseEncodingDirectionDICOM": "COL",
  "InstitutionAddress": "Chemin_Queen-Mary_4565_Montreal_District_CA_H3W_1W5",
  "InstitutionName": "IUGM",
  "InstitutionalDepartmentName": "Department",
  "MRAcquisitionType": "2D",
  "MagneticFieldStrength": 3,
  "Manufacturer": "Siemens",
  "ManufacturersModelName": "Prisma_fit",
  "Modality": "MR",
  "MultibandAccelerationFactor": 4,
  "PartialFourier": 1,
  "PatientPosition": "HFS",
  "PercentPhaseFOV": 100,
  "PhaseEncodingDirection": "j",
  "PhaseEncodingSteps": 104,
  "PhaseResolution": 1,
  "PixelBandwidth": 2290,
  "ProcedureStepDescription": "games_mario",
  "ProtocolName": "func_task-mario_run-03",
  "PulseSequenceDetails": "%CustomerSeq%_cmrr_mbep2d_bold",
  "ReceiveCoilActiveElements": "HC1-7;NC1,2",
  "ReceiveCoilName": "HeadNeck_64",
  "ReconMatrixPE": 104,
  "RepetitionTime": 1.49,
  "SAR": 0.052825,
  "ScanOptions": "FS",
  "ScanningSequence": "EP",
  "SequenceName": "epfid2d1_104",
  "SequenceVariant": "SK_SS",
  "SeriesDescription": "func_task-mario_run-03",
  "SeriesNumber": 17,
  "ShimSetting": [621, -7249, -8847, 590, -6, -204, -97, -18],
  "SliceThickness": 2,
  "SliceTiming": [0, 0.785, 0.0975, 0.8825, 0.195, 0.98, 0.295, 1.0775, 0.3925, 1.175, 0.49, 1.275, 0.5875, 1.3725, 0.685, 0, 0.785, 0.0975, 0.8825, 0.195, 0.98, 0.295, 1.0775, 0.3925, 1.175, 0.49, 1.275, 0.5875, 1.3725, 0.685, 0, 0.785, 0.0975, 0.8825, 0.195, 0.98, 0.295, 1.0775, 0.3925, 1.175, 0.49, 1.275, 0.5875, 1.3725, 0.685, 0, 0.785, 0.0975, 0.8825, 0.195, 0.98, 0.295, 1.0775, 0.3925, 1.175, 0.49, 1.275, 0.5875, 1.3725, 0.685],
  "SoftwareVersions": "syngo_MR_E11",
  "SpacingBetweenSlices": 2,
  "StationName": "MRC35049",
  "TaskName": "mario",
  "TotalReadoutTime": 0.0576811,
  "TxRefAmp": 279.568,
  "WipMemBlock": "3b1ce979-9f08-4d37-a107-65dcac32616e||Sequence: R016 ve11c/master r/e634e98; Dec 19 2017 11:00:25 by eja",
  "dcmmeta_affine": [
    [-1.9995743036270142, 0.04083755612373352, -0.005907704588025808, 104.83895874023438],
    [0.04031740128993988, 1.87269926071167, -0.7009792327880859, -65.93555450439453],
    [0.008781461976468563, 0.7009491324424744, 1.8731238842010498, -71.12608337402344],
    [0.0, 0.0, 0.0, 1.0]
],
  "dcmmeta_reorient_transform": [
    [0.0, -1.0, 0.0, 103.0],
    [1.0, 0.0, 0.0, 0.0],
    [0.0, 0.0, 1.0, 0.0],
    [0.0, 0.0, 0.0, 1.0]
],
  "dcmmeta_shape": [104, 104, 60, 432],
  "dcmmeta_slice_dim": 2,
  "dcmmeta_version": 0.6,
  "global": {
    "const": {
      "AcquisitionMatrix": [104, 0, 0, 104],
      "AngioFlag": "N",
      "BitsAllocated": 16,
      "BitsStored": 16,
      "BodyPartExamined": "BRAIN",
      "Columns": 832,
      "EchoNumbers": 1,
      "EchoTime": 37.0,
      "EchoTrainLength": 104,
      "FlipAngle": 52.0,
      "HighBit": 15,
      "ImageOrientationPatient": [0.99978715149353, -0.0201587000714, 0.00439073113411, 0.02041877726197, 0.93634963864342, -0.3504745750371],
      "ImagePositionPatient": [-851.75514080335, -793.93947623309, 253.02071854602],
      "ImageType": [
        "ORIGINAL",
        "PRIMARY",
        "P",
        "MB",
        "ND",
        "MOSAIC"
],
      "ImagedNucleus": "1H",
      "ImagingFrequency": 123.258883,
      "InPlanePhaseEncodingDirection": "COL",
      "LargestImagePixelValue": 4095,
      "MRAcquisitionType": "2D",
      "MagneticFieldStrength": 3.0,
      "Manufacturer": "SIEMENS",
      "ManufacturerModelName": "Prisma_fit",
      "Modality": "MR",
      "NumberOfAverages": 1.0,
      "NumberOfPhaseEncodingSteps": 104,
      "PercentPhaseFieldOfView": 100.0,
      "PercentSampling": 100.0,
      "PerformedProcedureStepStartTime": "152737.161000",
      "PhotometricInterpretation": "MONOCHROME2",
      "PixelBandwidth": 2290.0,
      "PixelRepresentation": 0,
      "PixelSpacing": [2.0, 2.0],
      "ProtocolName": "func_task-mario_run-03",
      "RepetitionTime": 1490.0,
      "RescaleIntercept": -4096.0,
      "RescaleSlope": 2.0,
      "RescaleType": "US",
      "Rows": 832,
      "SAR": 0.05282495780944,
      "SamplesPerPixel": 1,
      "ScanOptions": "FS",
      "ScanningSequence": "EP",
      "SequenceName": "epfid2d1_104",
      "SequenceVariant": [
        "SK",
        "SS"
],
      "SeriesDescription": "func_task-mario_run-03",
      "SeriesNumber": 17,
      "SeriesTime": "162339.003000",
      "SliceLocation": -43.813933927777,
      "SliceThickness": 2.0,
      "SmallestImagePixelValue": 0,
      "SoftwareVersions": "syngo MR E11",
      "SpacingBetweenSlices": 1.9999999754422,
      "SpecificCharacterSet": "ISO_IR 100",
      "StudyID": "1",
      "StudyTime": "152737.092000",
      "TransmitCoilName": "Body",
      "VariableFlipAngleFlag": "N",
      "WindowCenterWidthExplanation": "Algo1",
      "dBdt": 0.0},
    "slices": {}
  },
  "time": {
    "samples": {
      "AcquisitionNumber": [1, 2, 3, 4, 5, 6, 7, 8, 9, 10, 11, 12, 13, 14, 15, 16, 17, 18, 19, 20, 21, 22, 23, 24, 25, 26, 27, 28, 29, 30, 31, 32, 33, 34, 35, 36, 37, 38, 39, 40, 41, 42, 43, 44, 45, 46, 47, 48, 49, 50, 51, 52, 53, 54, 55, 56, 57, 58, 59, 60, 61, 62, 63, 64, 65, 66, 67, 68, 69, 70, 71, 72, 73, 74, 75, 76, 77, 78, 79, 80, 81, 82, 83, 84, 85, 86, 87, 88, 89, 90, 91, 92, 93, 94, 95, 96, 97, 98, 99, 100, 101, 102, 103, 104, 105, 106, 107, 108, 109, 110, 111, 112, 113, 114, 115, 116, 117, 118, 119, 120, 121, 122, 123, 124, 125, 126, 127, 128, 129, 130, 131, 132, 133, 134, 135, 136, 137, 138, 139, 140, 141, 142, 143, 144, 145, 146, 147, 148, 149, 150, 151, 152, 153, 154, 155, 156, 157, 158, 159, 160, 161, 162, 163, 164, 165, 166, 167, 168, 169, 170, 171, 172, 173, 174, 175, 176, 177, 178, 179, 180, 181, 182, 183, 184, 185, 186, 187, 188, 189, 190, 191, 192, 193, 194, 195, 196, 197, 198, 199, 200, 201, 202, 203, 204, 205, 206, 207, 208, 209, 210, 211, 212, 213, 214, 215, 216, 217, 218, 219, 220, 221, 222, 223, 224, 225, 226, 227, 228, 229, 230, 231, 232, 233, 234, 235, 236, 237, 238, 239, 240, 241, 242, 243, 244, 245, 246, 247, 248, 249, 250, 251, 252, 253, 254, 255, 256, 257, 258, 259, 260, 261, 262, 263, 264, 265, 266, 267, 268, 269, 270, 271, 272, 273, 274, 275, 276, 277, 278, 279, 280, 281, 282, 283, 284, 285, 286, 287, 288, 289, 290, 291, 292, 293, 294, 295, 296, 297, 298, 299, 300, 301, 302, 303, 304, 305, 306, 307, 308, 309, 310, 311, 312, 313, 314, 315, 316, 317, 318, 319, 320, 321, 322, 323, 324, 325, 326, 327, 328, 329, 330, 331, 332, 333, 334, 335, 336, 337, 338, 339, 340, 341, 342, 343, 344, 345, 346, 347, 348, 349, 350, 351, 352, 353, 354, 355, 356, 357, 358, 359, 360, 361, 362, 363, 364, 365, 366, 367, 368, 369, 370, 371, 372, 373, 374, 375, 376, 377, 378, 379, 380, 381, 382, 383, 384, 385, 386, 387, 388, 389, 390, 391, 392, 393, 394, 395, 396, 397, 398, 399, 400, 401, 402, 403, 404, 405, 406, 407, 408, 409, 410, 411, 412, 413, 414, 415, 416, 417, 418, 419, 420, 421, 422, 423, 424, 425, 426, 427, 428, 429, 430, 431, 432],
      "AcquisitionTime": ["162217.805000", "162219.295000", "162220.785000", "162222.275000", "162223.765000", "162225.255000", "162226.745000", "162228.235000", "162229.725000", "162231.215000", "162232.705000", "162234.195000", "162235.685000", "162237.175000", "162238.665000", "162240.155000", "162241.645000", "162243.135000", "162244.625000", "162246.115000", "162247.605000", "162249.095000", "162250.585000", "162252.075000", "162253.565000", "162255.055000", "162256.545000", "162258.035000", "162259.525000", "162301.015000", "162302.505000", "162303.995000", "162305.485000", "162306.975000", "162308.465000", "162309.955000", "162311.445000", "162312.935000", "162314.425000", "162315.915000", "162317.405000", "162318.895000", "162320.385000", "162321.875000", "162323.365000", "162324.855000", "162326.345000", "162327.835000", "162329.325000", "162330.815000", "162332.305000", "162333.795000", "162335.285000", "162336.775000", "162338.265000", "162339.755000", "162341.245000", "162342.735000", "162344.225000", "162345.715000", "162347.205000", "162348.695000", "162350.185000", "162351.675000", "162353.165000", "162354.655000", "162356.145000", "162357.635000", "162359.125000", "162400.615000", "162402.105000", "162403.595000", "162405.085000", "162406.575000", "162408.065000", "162409.555000", "162411.045000", "162412.535000", "162414.025000", "162415.515000", "162417.005000", "162418.495000", "162419.985000", "162421.475000", "162422.965000", "162424.455000", "162425.945000", "162427.435000", "162428.925000", "162430.415000", "162431.905000", "162433.395000", "162434.885000", "162436.375000", "162437.865000", "162439.355000", "162440.845000", "162442.335000", "162443.825000", "162445.315000", "162446.805000", "162448.295000", "162449.785000", "162451.275000", "162452.765000", "162454.255000", "162455.745000", "162457.235000", "162458.725000", "162500.215000", "162501.705000", "162503.195000", "162504.685000", "162506.175000", "162507.665000", "162509.155000", "162510.645000", "162512.135000", "162513.625000", "162515.115000", "162516.605000", "162518.095000", "162519.585000", "162521.075000", "162522.565000", "162524.055000", "162525.545000", "162527.035000", "162528.525000", "162530.015000", "162531.505000", "162532.995000", "162534.485000", "162535.975000", "162537.465000", "162538.955000", "162540.445000", "162541.935000", "162543.425000", "162544.915000", "162546.405000", "162547.895000", "162549.385000", "162550.875000", "162552.365000", "162553.855000", "162555.345000", "162556.835000", "162558.325000", "162559.815000", "162601.305000", "162602.795000", "162604.285000", "162605.775000", "162607.265000", "162608.755000", "162610.245000", "162611.735000", "162613.225000", "162614.715000", "162616.205000", "162617.695000", "162619.185000", "162620.675000", "162622.165000", "162623.655000", "162625.145000", "162626.635000", "162628.125000", "162629.615000", "162631.105000", "162632.595000", "162634.085000", "162635.575000", "162637.065000", "162638.555000", "162640.045000", "162641.535000", "162643.025000", "162644.515000", "162646.005000", "162647.495000", "162648.985000", "162650.475000", "162651.965000", "162653.455000", "162654.945000", "162656.435000", "162657.925000", "162659.415000", "162700.905000", "162702.395000", "162703.885000", "162705.375000", "162706.865000", "162708.355000", "162709.845000", "162711.335000", "162712.825000", "162714.315000", "162715.805000", "162717.295000", "162718.785000", "162720.275000", "162721.765000", "162723.255000", "162724.745000", "162726.235000", "162727.725000", "162729.215000", "162730.705000", "162732.195000", "162733.685000", "162735.175000", "162736.665000", "162738.155000", "162739.645000", "162741.135000", "162742.625000", "162744.115000", "162745.605000", "162747.095000", "162748.585000", "162750.075000", "162751.565000", "162753.055000", "162754.545000", "162756.035000", "162757.525000", "162759.015000", "162800.505000", "162801.995000", "162803.485000", "162804.975000", "162806.465000", "162807.955000", "162809.445000", "162810.935000", "162812.425000", "162813.915000", "162815.405000", "162816.895000", "162818.385000", "162819.875000", "162821.365000", "162822.855000", "162824.345000", "162825.835000", "162827.325000", "162828.815000", "162830.305000", "162831.795000", "162833.285000", "162834.775000", "162836.265000", "162837.755000", "162839.245000", "162840.735000", "162842.225000", "162843.715000", "162845.205000", "162846.695000", "162848.185000", "162849.675000", "162851.165000", "162852.655000", "162854.145000", "162855.635000", "162857.125000", "162858.615000", "162900.105000", "162901.595000", "162903.085000", "162904.575000", "162906.065000", "162907.555000", "162909.045000", "162910.535000", "162912.025000", "162913.515000", "162915.005000", "162916.495000", "162917.985000", "162919.475000", "162920.965000", "162922.455000", "162923.945000", "162925.435000", "162926.925000", "162928.415000", "162929.905000", "162931.395000", "162932.885000", "162934.375000", "162935.865000", "162937.355000", "162938.845000", "162940.335000", "162941.825000", "162943.315000", "162944.805000", "162946.295000", "162947.785000", "162949.275000", "162950.765000", "162952.255000", "162953.745000", "162955.235000", "162956.725000", "162958.215000", "162959.705000", "163001.195000", "163002.685000", "163004.175000", "163005.665000", "163007.155000", "163008.645000", "163010.135000", "163011.625000", "163013.115000", "163014.605000", "163016.095000", "163017.585000", "163019.075000", "163020.565000", "163022.055000", "163023.545000", "163025.035000", "163026.525000", "163028.015000", "163029.505000", "163030.995000", "163032.485000", "163033.975000", "163035.465000", "163036.955000", "163038.445000", "163039.935000", "163041.425000", "163042.915000", "163044.405000", "163045.895000", "163047.385000", "163048.875000", "163050.365000", "163051.855000", "163053.345000", "163054.835000", "163056.325000", "163057.815000", "163059.305000", "163100.795000", "163102.285000", "163103.775000", "163105.265000", "163106.755000", "163108.245000", "163109.735000", "163111.225000", "163112.715000", "163114.205000", "163115.695000", "163117.185000", "163118.675000", "163120.165000", "163121.655000", "163123.145000", "163124.635000", "163126.125000", "163127.615000", "163129.105000", "163130.595000", "163132.085000", "163133.575000", "163135.065000", "163136.555000", "163138.045000", "163139.535000", "163141.025000", "163142.515000", "163144.005000", "163145.495000", "163146.985000", "163148.475000", "163149.965000", "163151.455000", "163152.945000", "163154.435000", "163155.925000", "163157.415000", "163158.905000", "163200.395000", "163201.885000", "163203.375000", "163204.865000", "163206.355000", "163207.845000", "163209.335000", "163210.825000", "163212.315000", "163213.805000", "163215.295000", "163216.785000", "163218.275000", "163219.765000", "163221.255000", "163222.745000", "163224.235000", "163225.725000", "163227.215000", "163228.705000", "163230.195000", "163231.685000", "163233.175000", "163234.665000", "163236.155000", "163237.645000", "163239.135000", "163240.625000", "163242.115000", "163243.605000", "163245.095000", "163246.585000", "163248.075000", "163249.565000", "163251.055000", "163252.545000", "163254.035000", "163255.525000", "163257.015000", "163258.505000", "163259.995000"],
      "ContentTime": ["162339.005000", "162339.008000", "162339.010000", "162339.013000", "162339.015000", "162339.018000", "162339.020000", "162339.023000", "162339.025000", "162339.028000", "162339.030000", "162339.033000", "162339.035000", "162339.038000", "162339.040000", "162339.043000", "162339.045000", "162339.048000", "162339.050000", "162339.052000", "162339.055000", "162339.057000", "162339.060000", "162339.062000", "162339.065000", "162339.067000", "162339.070000", "162339.072000", "162358.601000", "162358.604000", "162358.607000", "162358.609000", "162358.611000", "162358.614000", "162358.616000", "162358.619000", "162358.621000", "162358.624000", "162358.626000", "162358.628000", "162358.631000", "162358.633000", "162358.636000", "162358.638000", "162358.641000", "162358.643000", "162358.645000", "162358.648000", "162418.613000", "162418.615000", "162418.618000", "162418.620000", "162418.623000", "162418.625000", "162418.628000", "162418.630000", "162418.633000", "162418.635000", "162418.637000", "162418.640000", "162418.642000", "162418.645000", "162418.647000", "162418.650000", "162418.652000", "162418.655000", "162418.657000", "162418.660000", "162438.623000", "162438.626000", "162438.628000", "162438.638000", "162438.640000", "162438.643000", "162438.645000", "162438.648000", "162438.650000", "162438.653000", "162438.655000", "162438.658000", "162438.660000", "162438.663000", "162438.665000", "162438.668000", "162438.670000", "162438.673000", "162438.675000", "162438.677000", "162518.666000", "162518.669000", "162518.671000", "162518.673000", "162518.676000", "162518.678000", "162518.681000", "162518.683000", "162518.686000", "162518.688000", "162518.691000", "162518.693000", "162518.695000", "162518.698000", "162518.700000", "162518.703000", "162518.705000", "162518.708000", "162518.710000", "162518.713000", "162518.715000", "162518.718000", "162518.720000", "162518.723000", "162518.725000", "162518.728000", "162518.730000", "162518.733000", "162518.735000", "162518.737000", "162518.740000", "162518.742000", "162558.639000", "162558.641000", "162558.644000", "162558.646000", "162558.649000", "162558.651000", "162558.654000", "162558.656000", "162558.659000", "162558.661000", "162558.663000", "162558.666000", "162558.668000", "162558.671000", "162558.673000", "162558.676000", "162558.678000", "162558.681000", "162558.683000", "162558.686000", "162558.688000", "162558.690000", "162558.693000", "162558.695000", "162558.698000", "162558.700000", "162558.703000", "162638.645000", "162638.648000", "162638.650000", "162638.653000", "162638.655000", "162638.658000", "162638.660000", "162638.663000", "162638.665000", "162638.668000", "162638.670000", "162638.672000", "162638.675000", "162638.677000", "162638.680000", "162638.682000", "162638.685000", "162638.687000", "162638.690000", "162638.692000", "162638.695000", "162638.697000", "162638.700000", "162638.702000", "162638.705000", "162638.707000", "162638.710000", "162718.626000", "162718.629000", "162718.631000", "162718.634000", "162718.636000", "162718.639000", "162718.641000", "162718.643000", "162718.646000", "162718.648000", "162718.651000", "162718.653000", "162718.656000", "162718.658000", "162718.661000", "162718.663000", "162718.666000", "162718.668000", "162718.670000", "162718.673000", "162718.675000", "162718.678000", "162718.680000", "162718.683000", "162718.685000", "162718.688000", "162718.690000", "162758.628000", "162758.631000", "162758.633000", "162758.636000", "162758.638000", "162758.641000", "162758.643000", "162758.646000", "162758.648000", "162758.651000", "162758.654000", "162758.656000", "162758.659000", "162758.661000", "162758.664000", "162758.666000", "162758.669000", "162758.671000", "162758.674000", "162758.676000", "162758.678000", "162758.681000", "162758.684000", "162758.686000", "162758.688000", "162758.691000", "162758.694000", "162838.640000", "162838.643000", "162838.645000", "162838.648000", "162838.650000", "162838.653000", "162838.655000", "162838.665000", "162838.667000", "162838.670000", "162838.672000", "162838.675000", "162838.677000", "162838.680000", "162838.682000", "162838.685000", "162838.687000", "162838.690000", "162838.692000", "162838.695000", "162838.697000", "162838.699000", "162838.702000", "162838.704000", "162838.707000", "162838.709000", "162838.712000", "162918.631000", "162918.634000", "162918.637000", "162918.639000", "162918.642000", "162918.644000", "162918.646000", "162918.649000", "162918.651000", "162918.654000", "162918.656000", "162918.659000", "162918.661000", "162918.664000", "162918.666000", "162918.669000", "162918.671000", "162918.674000", "162918.676000", "162918.679000", "162918.681000", "162918.684000", "162918.686000", "162918.688000", "162918.691000", "162918.693000", "162958.622000", "162958.625000", "162958.627000", "162958.630000", "162958.632000", "162958.635000", "162958.637000", "162958.640000", "162958.642000", "162958.645000", "162958.647000", "162958.650000", "162958.652000", "162958.655000", "162958.657000", "162958.660000", "162958.662000", "162958.665000", "162958.668000", "162958.670000", "162958.673000", "162958.675000", "162958.678000", "162958.680000", "162958.683000", "162958.685000", "162958.688000", "163038.624000", "163038.627000", "163038.629000", "163038.639000", "163038.642000", "163038.644000", "163038.647000", "163038.649000", "163038.652000", "163038.654000", "163038.657000", "163038.659000", "163038.661000", "163038.664000", "163038.666000", "163038.669000", "163038.676000", "163038.679000", "163038.681000", "163038.684000", "163038.686000", "163038.689000", "163038.691000", "163038.694000", "163038.696000", "163038.699000", "163038.701000", "163118.645000", "163118.648000", "163118.650000", "163118.653000", "163118.655000", "163118.658000", "163118.660000", "163118.663000", "163118.665000", "163118.668000", "163118.670000", "163118.673000", "163118.675000", "163118.678000", "163118.680000", "163118.683000", "163118.685000", "163118.687000", "163118.690000", "163118.692000", "163118.695000", "163118.697000", "163118.700000", "163118.702000", "163118.705000", "163118.707000", "163118.710000", "163158.641000", "163158.644000", "163158.646000", "163158.649000", "163158.651000", "163158.654000", "163158.656000", "163158.659000", "163158.661000", "163158.664000", "163158.666000", "163158.669000", "163158.671000", "163158.674000", "163158.676000", "163158.679000", "163158.681000", "163158.684000", "163158.686000", "163158.689000", "163158.691000", "163158.694000", "163158.696000", "163158.699000", "163158.701000", "163158.704000", "163158.706000", "163238.633000", "163238.635000", "163238.638000", "163238.640000", "163238.643000", "163238.645000", "163238.648000", "163238.650000", "163238.653000", "163238.655000", "163238.658000", "163238.660000", "163238.663000", "163238.665000", "163238.668000", "163238.671000", "163238.673000", "163238.675000", "163238.678000", "163238.681000", "163238.683000", "163238.685000", "163238.688000", "163238.691000", "163238.693000", "163238.696000", "163238.698000", "163302.516000", "163302.519000", "163302.521000", "163302.524000", "163302.526000", "163302.529000", "163302.531000", "163302.534000", "163302.537000", "163302.539000", "163302.541000", "163302.544000", "163302.547000", "163302.549000", "163302.552000", "163302.554000"],
      "InstanceCreationTime": ["162339.005000", "162339.008000", "162339.010000", "162339.013000", "162339.015000", "162339.018000", "162339.020000", "162339.023000", "162339.025000", "162339.028000", "162339.030000", "162339.033000", "162339.035000", "162339.038000", "162339.040000", "162339.043000", "162339.045000", "162339.048000", "162339.050000", "162339.052000", "162339.055000", "162339.057000", "162339.060000", "162339.062000", "162339.065000", "162339.067000", "162339.070000", "162339.072000", "162358.601000", "162358.604000", "162358.607000", "162358.609000", "162358.611000", "162358.614000", "162358.616000", "162358.619000", "162358.621000", "162358.624000", "162358.626000", "162358.628000", "162358.631000", "162358.633000", "162358.636000", "162358.638000", "162358.641000", "162358.643000", "162358.645000", "162358.648000", "162418.613000", "162418.615000", "162418.618000", "162418.620000", "162418.623000", "162418.625000", "162418.628000", "162418.630000", "162418.633000", "162418.635000", "162418.637000", "162418.640000", "162418.642000", "162418.645000", "162418.647000", "162418.650000", "162418.652000", "162418.655000", "162418.657000", "162418.660000", "162438.623000", "162438.626000", "162438.628000", "162438.638000", "162438.640000", "162438.643000", "162438.645000", "162438.648000", "162438.650000", "162438.653000", "162438.655000", "162438.658000", "162438.660000", "162438.663000", "162438.665000", "162438.668000", "162438.670000", "162438.673000", "162438.675000", "162438.677000", "162518.666000", "162518.669000", "162518.671000", "162518.673000", "162518.676000", "162518.678000", "162518.681000", "162518.683000", "162518.686000", "162518.688000", "162518.691000", "162518.693000", "162518.695000", "162518.698000", "162518.700000", "162518.703000", "162518.705000", "162518.708000", "162518.710000", "162518.713000", "162518.715000", "162518.718000", "162518.720000", "162518.723000", "162518.725000", "162518.728000", "162518.730000", "162518.733000", "162518.735000", "162518.737000", "162518.740000", "162518.742000", "162558.639000", "162558.641000", "162558.644000", "162558.646000", "162558.649000", "162558.651000", "162558.654000", "162558.656000", "162558.659000", "162558.661000", "162558.663000", "162558.666000", "162558.668000", "162558.671000", "162558.673000", "162558.676000", "162558.678000", "162558.681000", "162558.683000", "162558.686000", "162558.688000", "162558.690000", "162558.693000", "162558.695000", "162558.698000", "162558.700000", "162558.703000", "162638.645000", "162638.648000", "162638.650000", "162638.653000", "162638.655000", "162638.658000", "162638.660000", "162638.663000", "162638.665000", "162638.668000", "162638.670000", "162638.672000", "162638.675000", "162638.677000", "162638.680000", "162638.682000", "162638.685000", "162638.687000", "162638.690000", "162638.692000", "162638.695000", "162638.697000", "162638.700000", "162638.702000", "162638.705000", "162638.707000", "162638.710000", "162718.626000", "162718.629000", "162718.631000", "162718.634000", "162718.636000", "162718.639000", "162718.641000", "162718.643000", "162718.646000", "162718.648000", "162718.651000", "162718.653000", "162718.656000", "162718.658000", "162718.661000", "162718.663000", "162718.666000", "162718.668000", "162718.670000", "162718.673000", "162718.675000", "162718.678000", "162718.680000", "162718.683000", "162718.685000", "162718.688000", "162718.690000", "162758.628000", "162758.631000", "162758.633000", "162758.636000", "162758.638000", "162758.641000", "162758.643000", "162758.646000", "162758.648000", "162758.651000", "162758.654000", "162758.656000", "162758.659000", "162758.661000", "162758.664000", "162758.666000", "162758.669000", "162758.671000", "162758.674000", "162758.676000", "162758.678000", "162758.681000", "162758.684000", "162758.686000", "162758.688000", "162758.691000", "162758.694000", "162838.640000", "162838.643000", "162838.645000", "162838.648000", "162838.650000", "162838.653000", "162838.655000", "162838.665000", "162838.667000", "162838.670000", "162838.672000", "162838.675000", "162838.677000", "162838.680000", "162838.682000", "162838.685000", "162838.687000", "162838.690000", "162838.692000", "162838.695000", "162838.697000", "162838.699000", "162838.702000", "162838.704000", "162838.707000", "162838.709000", "162838.712000", "162918.631000", "162918.634000", "162918.637000", "162918.639000", "162918.642000", "162918.644000", "162918.646000", "162918.649000", "162918.651000", "162918.654000", "162918.656000", "162918.659000", "162918.661000", "162918.664000", "162918.666000", "162918.669000", "162918.671000", "162918.674000", "162918.676000", "162918.679000", "162918.681000", "162918.684000", "162918.686000", "162918.688000", "162918.691000", "162918.693000", "162958.622000", "162958.625000", "162958.627000", "162958.630000", "162958.632000", "162958.635000", "162958.637000", "162958.640000", "162958.642000", "162958.645000", "162958.647000", "162958.650000", "162958.652000", "162958.655000", "162958.657000", "162958.660000", "162958.662000", "162958.665000", "162958.668000", "162958.670000", "162958.673000", "162958.675000", "162958.678000", "162958.680000", "162958.683000", "162958.685000", "162958.688000", "163038.624000", "163038.627000", "163038.629000", "163038.639000", "163038.642000", "163038.644000", "163038.647000", "163038.649000", "163038.652000", "163038.654000", "163038.657000", "163038.659000", "163038.661000", "163038.664000", "163038.666000", "163038.669000", "163038.676000", "163038.679000", "163038.681000", "163038.684000", "163038.686000", "163038.689000", "163038.691000", "163038.694000", "163038.696000", "163038.699000", "163038.701000", "163118.645000", "163118.648000", "163118.650000", "163118.653000", "163118.655000", "163118.658000", "163118.660000", "163118.663000", "163118.665000", "163118.668000", "163118.670000", "163118.673000", "163118.675000", "163118.678000", "163118.680000", "163118.683000", "163118.685000", "163118.687000", "163118.690000", "163118.692000", "163118.695000", "163118.697000", "163118.700000", "163118.702000", "163118.705000", "163118.707000", "163118.710000", "163158.641000", "163158.644000", "163158.646000", "163158.649000", "163158.651000", "163158.654000", "163158.656000", "163158.659000", "163158.661000", "163158.664000", "163158.666000", "163158.669000", "163158.671000", "163158.674000", "163158.676000", "163158.679000", "163158.681000", "163158.684000", "163158.686000", "163158.689000", "163158.691000", "163158.694000", "163158.696000", "163158.699000", "163158.701000", "163158.704000", "163158.706000", "163238.633000", "163238.635000", "163238.638000", "163238.640000", "163238.643000", "163238.645000", "163238.648000", "163238.650000", "163238.653000", "163238.655000", "163238.658000", "163238.660000", "163238.663000", "163238.665000", "163238.668000", "163238.671000", "163238.673000", "163238.675000", "163238.678000", "163238.681000", "163238.683000", "163238.685000", "163238.688000", "163238.691000", "163238.693000", "163238.696000", "163238.698000", "163302.516000", "163302.519000", "163302.521000", "163302.524000", "163302.526000", "163302.529000", "163302.531000", "163302.534000", "163302.537000", "163302.539000", "163302.541000", "163302.544000", "163302.547000", "163302.549000", "163302.552000", "163302.554000"],
