{
  "AcquisitionMatrixPE": 104,
  "AcquisitionNumber": 1,
  "AcquisitionTime": "11:03:49.322500",
  "BandwidthPerPixelPhaseEncode": 17.17,
  "BaseResolution": 104,
  "BodyPartExamined": "BRAIN",
  "CoilCombinationMethod": "Sum of Squares",
  "ConsistencyInfo": "N4_VE11C_LATEST_20160120",
  "ConversionSoftware": "dcm2niix",
  "ConversionSoftwareVersion": "v1.0.20211006",
  "DerivedVendorReportedEchoSpacing": 0.000560011,
  "DeviceSerialNumber": "167006",
  "DwellTime": 2.1e-06,
  "EchoTime": 0.037,
  "EchoTime1": 0.037,
  "EchoTime2": 0.001,
  "EchoTrainLength": 104,
  "EffectiveEchoSpacing": 0.000560011,
  "FlipAngle": 52,
  "HeudiconvVersion": "0.10.0",
  "ImageComments": "Unaliased MB4/PE3/LB",
  "ImageOrientationPatientDICOM": [0.999264, 0.00551842, 0.0379577, 0.015, 0.854567, -0.519124],
  "ImageOrientationText": "Tra>Cor(-31.3)>Sag(2.0)",
  "ImageType": [
    "ORIGINAL",
    "PRIMARY",
    "P",
    "MB",
    "ND",
    "MOSAIC",
    "PHASE"
],
  "ImagingFrequency": 123.259,
  "InPlanePhaseEncodingDirectionDICOM": "COL",
  "InstitutionAddress": "Chemin Queen-Mary 4565,Montreal,District,CA,H3W 1W5",
  "InstitutionName": "IUGM",
  "InstitutionalDepartmentName": "Department",
  "MRAcquisitionType": "2D",
  "MagneticFieldStrength": 3,
  "Manufacturer": "Siemens",
  "ManufacturersModelName": "Prisma_fit",
  "MatrixCoilMode": "SENSE",
  "Modality": "MR",
  "MultibandAccelerationFactor": 4,
  "PartialFourier": 1,
  "PatientPosition": "HFS",
  "PercentPhaseFOV": 100,
  "PercentSampling": 100,
  "PhaseEncodingDirection": "j",
  "PhaseEncodingSteps": 104,
  "PhaseResolution": 1,
  "PixelBandwidth": 2290,
  "ProcedureStepDescription": "games^mario",
  "ProtocolName": "func_task-mario_run-02",
  "PulseSequenceDetails": "%CustomerSeq%\\cmrr_mbep2d_bold",
  "ReceiveCoilActiveElements": "HC1-7;NC1,2",
  "ReceiveCoilName": "HeadNeck_64",
  "ReconMatrixPE": 104,
  "RepetitionTime": 1.49,
  "SAR": 0.0495539,
  "ScanOptions": "FS",
  "ScanningSequence": "EP",
  "SequenceName": "epfid2d1_104",
  "SequenceVariant": "SK\\SS",
  "SeriesDescription": "func_task-mario_run-02",
  "SeriesNumber": 14,
  "ShimSetting": [625, -7181, -8866, 257, 4, -161, -20, 28],
  "SliceThickness": 2,
  "SliceTiming": [0, 0.7825, 0.0975, 0.8825, 0.195, 0.98, 0.295, 1.0775, 0.3925, 1.175, 0.49, 1.2725, 0.5875, 1.3725, 0.685, 0, 0.7825, 0.0975, 0.8825, 0.195, 0.98, 0.295, 1.0775, 0.3925, 1.175, 0.49, 1.2725, 0.5875, 1.3725, 0.685, 0, 0.7825, 0.0975, 0.8825, 0.195, 0.98, 0.295, 1.0775, 0.3925, 1.175, 0.49, 1.2725, 0.5875, 1.3725, 0.685, 0, 0.7825, 0.0975, 0.8825, 0.195, 0.98, 0.295, 1.0775, 0.3925, 1.175, 0.49, 1.2725, 0.5875, 1.3725, 0.685],
  "SoftwareVersions": "syngo MR E11",
  "SpacingBetweenSlices": 2,
  "StationName": "MRC35049",
  "TaskName": "mario",
  "TotalReadoutTime": 0.0576811,
  "TxRefAmp": 275.526,
  "WipMemBlock": "f361a1f7-c994-4049-9362-b9bcb64a8c5f||Sequence: R016 ve11c/master r/e634e98; Dec 19 2017 11:00:25 by eja",
  "dcmmeta_affine": [
    [-1.998528242111206, 0.029999906197190285, 0.0706043466925621, 103.72774505615234],
    [-0.011036845855414867, 1.7091342210769653, -1.0386232137680054, -49.71467590332031],
    [0.07591545581817627, 1.0382485389709473, 1.7077109813690186, -95.24323272705078],
    [0.0, 0.0, 0.0, 1.0]
],
  "dcmmeta_reorient_transform": [
    [0.0, -1.0, 0.0, 103.0],
    [1.0, 0.0, 0.0, 0.0],
    [0.0, 0.0, 1.0, 0.0],
    [0.0, 0.0, 0.0, 1.0]
],
  "dcmmeta_shape": [104, 104, 60, 429],
  "dcmmeta_slice_dim": 2,
  "dcmmeta_version": 0.6,
  "global": {
    "const": {
      "AcquisitionMatrix": [104, 0, 0, 104],
      "AngioFlag": "N",
      "BitsAllocated": 16,
      "BitsStored": 16,
      "BodyPartExamined": "BRAIN",
      "Columns": 832,
      "EchoNumbers": 1,
      "EchoTime": 37.0,
      "EchoTrainLength": 104,
      "FlipAngle": 52.0,
      "HighBit": 15,
      "ImageOrientationPatient": [0.9992641082129, 0.00551842282787, 0.03795772710491, 0.01499995315823, 0.85456713460177, -0.5191242759338],
      "ImagePositionPatient": [-845.20197287594, -752.46843826754, 361.98561318129],
      "ImageType": [
        "ORIGINAL",
        "PRIMARY",
        "P",
        "MB",
        "ND",
        "MOSAIC"
],
      "ImagedNucleus": "1H",
      "ImagingFrequency": 123.258851,
      "InPlanePhaseEncodingDirection": "COL",
      "LargestImagePixelValue": 4095,
      "MRAcquisitionType": "2D",
      "MagneticFieldStrength": 3.0,
      "Manufacturer": "SIEMENS",
      "ManufacturerModelName": "Prisma_fit",
      "Modality": "MR",
      "NumberOfAverages": 1.0,
      "NumberOfPhaseEncodingSteps": 104,
      "PercentPhaseFieldOfView": 100.0,
      "PercentSampling": 100.0,
      "PerformedProcedureStepStartTime": "103157.008000",
      "PhotometricInterpretation": "MONOCHROME2",
      "PixelBandwidth": 2290.0,
      "PixelRepresentation": 0,
      "PixelSpacing": [2.0, 2.0],
      "ProtocolName": "func_task-mario_run-02",
      "RepetitionTime": 1490.0,
      "RescaleIntercept": -4096.0,
      "RescaleSlope": 2.0,
      "RescaleType": "US",
      "Rows": 832,
      "SAR": 0.04955392899328,
      "SamplesPerPixel": 1,
      "ScanOptions": "FS",
      "ScanningSequence": "EP",
      "SequenceName": "epfid2d1_104",
      "SequenceVariant": [
        "SK",
        "SS"
],
      "SeriesDescription": "func_task-mario_run-02",
      "SeriesNumber": 14,
      "SeriesTime": "110455.217000",
      "SliceLocation": -51.844734735173,
      "SliceThickness": 2.0,
      "SmallestImagePixelValue": 0,
      "SoftwareVersions": "syngo MR E11",
      "SpacingBetweenSlices": 2.0000000306953,
      "SpecificCharacterSet": "ISO_IR 100",
      "StudyID": "1",
      "StudyTime": "103156.930000",
      "TransmitCoilName": "Body",
      "VariableFlipAngleFlag": "N",
      "WindowCenterWidthExplanation": "Algo1",
      "dBdt": 0.0},
    "slices": {}
  },
  "time": {
    "samples": {
      "AcquisitionNumber": [1, 2, 3, 4, 5, 6, 7, 8, 9, 10, 11, 12, 13, 14, 15, 16, 17, 18, 19, 20, 21, 22, 23, 24, 25, 26, 27, 28, 29, 30, 31, 32, 33, 34, 35, 36, 37, 38, 39, 40, 41, 42, 43, 44, 45, 46, 47, 48, 49, 50, 51, 52, 53, 54, 55, 56, 57, 58, 59, 60, 61, 62, 63, 64, 65, 66, 67, 68, 69, 70, 71, 72, 73, 74, 75, 76, 77, 78, 79, 80, 81, 82, 83, 84, 85, 86, 87, 88, 89, 90, 91, 92, 93, 94, 95, 96, 97, 98, 99, 100, 101, 102, 103, 104, 105, 106, 107, 108, 109, 110, 111, 112, 113, 114, 115, 116, 117, 118, 119, 120, 121, 122, 123, 124, 125, 126, 127, 128, 129, 130, 131, 132, 133, 134, 135, 136, 137, 138, 139, 140, 141, 142, 143, 144, 145, 146, 147, 148, 149, 150, 151, 152, 153, 154, 155, 156, 157, 158, 159, 160, 161, 162, 163, 164, 165, 166, 167, 168, 169, 170, 171, 172, 173, 174, 175, 176, 177, 178, 179, 180, 181, 182, 183, 184, 185, 186, 187, 188, 189, 190, 191, 192, 193, 194, 195, 196, 197, 198, 199, 200, 201, 202, 203, 204, 205, 206, 207, 208, 209, 210, 211, 212, 213, 214, 215, 216, 217, 218, 219, 220, 221, 222, 223, 224, 225, 226, 227, 228, 229, 230, 231, 232, 233, 234, 235, 236, 237, 238, 239, 240, 241, 242, 243, 244, 245, 246, 247, 248, 249, 250, 251, 252, 253, 254, 255, 256, 257, 258, 259, 260, 261, 262, 263, 264, 265, 266, 267, 268, 269, 270, 271, 272, 273, 274, 275, 276, 277, 278, 279, 280, 281, 282, 283, 284, 285, 286, 287, 288, 289, 290, 291, 292, 293, 294, 295, 296, 297, 298, 299, 300, 301, 302, 303, 304, 305, 306, 307, 308, 309, 310, 311, 312, 313, 314, 315, 316, 317, 318, 319, 320, 321, 322, 323, 324, 325, 326, 327, 328, 329, 330, 331, 332, 333, 334, 335, 336, 337, 338, 339, 340, 341, 342, 343, 344, 345, 346, 347, 348, 349, 350, 351, 352, 353, 354, 355, 356, 357, 358, 359, 360, 361, 362, 363, 364, 365, 366, 367, 368, 369, 370, 371, 372, 373, 374, 375, 376, 377, 378, 379, 380, 381, 382, 383, 384, 385, 386, 387, 388, 389, 390, 391, 392, 393, 394, 395, 396, 397, 398, 399, 400, 401, 402, 403, 404, 405, 406, 407, 408, 409, 410, 411, 412, 413, 414, 415, 416, 417, 418, 419, 420, 421, 422, 423, 424, 425, 426, 427, 428, 429],
      "AcquisitionTime": ["110349.322500", "110350.812500", "110352.302500", "110353.792500", "110355.282500", "110356.772500", "110358.262500", "110359.752500", "110401.242500", "110402.732500", "110404.222500", "110405.712500", "110407.202500", "110408.692500", "110410.182500", "110411.672500", "110413.162500", "110414.652500", "110416.142500", "110417.632500", "110419.122500", "110420.612500", "110422.102500", "110423.592500", "110425.082500", "110426.572500", "110428.062500", "110429.552500", "110431.042500", "110432.532500", "110434.022500", "110435.512500", "110437.002500", "110438.492500", "110439.982500", "110441.472500", "110442.962500", "110444.452500", "110445.942500", "110447.432500", "110448.922500", "110450.412500", "110451.902500", "110453.392500", "110454.882500", "110456.372500", "110457.862500", "110459.352500", "110500.842500", "110502.332500", "110503.822500", "110505.312500", "110506.802500", "110508.292500", "110509.782500", "110511.272500", "110512.762500", "110514.252500", "110515.742500", "110517.232500", "110518.722500", "110520.212500", "110521.702500", "110523.192500", "110524.682500", "110526.172500", "110527.662500", "110529.152500", "110530.642500", "110532.132500", "110533.622500", "110535.112500", "110536.602500", "110538.092500", "110539.582500", "110541.072500", "110542.562500", "110544.052500", "110545.542500", "110547.032500", "110548.522500", "110550.012500", "110551.502500", "110552.992500", "110554.482500", "110555.972500", "110557.462500", "110558.952500", "110600.442500", "110601.932500", "110603.422500", "110604.912500", "110606.402500", "110607.892500", "110609.382500", "110610.872500", "110612.362500", "110613.852500", "110615.342500", "110616.832500", "110618.322500", "110619.812500", "110621.302500", "110622.792500", "110624.282500", "110625.772500", "110627.262500", "110628.752500", "110630.242500", "110631.732500", "110633.222500", "110634.712500", "110636.202500", "110637.692500", "110639.182500", "110640.672500", "110642.162500", "110643.652500", "110645.142500", "110646.632500", "110648.122500", "110649.612500", "110651.102500", "110652.592500", "110654.082500", "110655.572500", "110657.062500", "110658.552500", "110700.042500", "110701.532500", "110703.022500", "110704.512500", "110706.002500", "110707.492500", "110708.982500", "110710.472500", "110711.962500", "110713.452500", "110714.942500", "110716.432500", "110717.922500", "110719.412500", "110720.902500", "110722.392500", "110723.882500", "110725.372500", "110726.862500", "110728.352500", "110729.842500", "110731.332500", "110732.822500", "110734.312500", "110735.802500", "110737.292500", "110738.782500", "110740.272500", "110741.762500", "110743.252500", "110744.742500", "110746.232500", "110747.722500", "110749.212500", "110750.702500", "110752.192500", "110753.682500", "110755.172500", "110756.662500", "110758.152500", "110759.642500", "110801.132500", "110802.622500", "110804.112500", "110805.602500", "110807.092500", "110808.582500", "110810.072500", "110811.562500", "110813.052500", "110814.542500", "110816.032500", "110817.522500", "110819.012500", "110820.502500", "110821.992500", "110823.482500", "110824.972500", "110826.462500", "110827.952500", "110829.442500", "110830.932500", "110832.422500", "110833.912500", "110835.402500", "110836.892500", "110838.382500", "110839.872500", "110841.362500", "110842.852500", "110844.342500", "110845.832500", "110847.322500", "110848.812500", "110850.302500", "110851.792500", "110853.282500", "110854.772500", "110856.262500", "110857.752500", "110859.242500", "110900.732500", "110902.222500", "110903.712500", "110905.202500", "110906.692500", "110908.182500", "110909.672500", "110911.162500", "110912.652500", "110914.142500", "110915.632500", "110917.122500", "110918.612500", "110920.102500", "110921.592500", "110923.082500", "110924.572500", "110926.062500", "110927.552500", "110929.042500", "110930.532500", "110932.022500", "110933.512500", "110935.002500", "110936.492500", "110937.982500", "110939.472500", "110940.962500", "110942.452500", "110943.942500", "110945.432500", "110946.922500", "110948.412500", "110949.902500", "110951.392500", "110952.882500", "110954.372500", "110955.862500", "110957.352500", "110958.842500", "111000.332500", "111001.822500", "111003.312500", "111004.802500", "111006.292500", "111007.782500", "111009.272500", "111010.762500", "111012.252500", "111013.742500", "111015.232500", "111016.722500", "111018.212500", "111019.702500", "111021.192500", "111022.682500", "111024.172500", "111025.662500", "111027.152500", "111028.642500", "111030.132500", "111031.622500", "111033.112500", "111034.602500", "111036.092500", "111037.582500", "111039.072500", "111040.562500", "111042.052500", "111043.542500", "111045.032500", "111046.522500", "111048.012500", "111049.502500", "111050.992500", "111052.482500", "111053.972500", "111055.462500", "111056.952500", "111058.442500", "111059.932500", "111101.422500", "111102.912500", "111104.402500", "111105.892500", "111107.382500", "111108.872500", "111110.362500", "111111.852500", "111113.342500", "111114.832500", "111116.322500", "111117.812500", "111119.302500", "111120.792500", "111122.282500", "111123.772500", "111125.262500", "111126.752500", "111128.242500", "111129.732500", "111131.222500", "111132.712500", "111134.202500", "111135.692500", "111137.182500", "111138.672500", "111140.162500", "111141.652500", "111143.142500", "111144.632500", "111146.122500", "111147.612500", "111149.102500", "111150.592500", "111152.082500", "111153.572500", "111155.062500", "111156.552500", "111158.042500", "111159.532500", "111201.022500", "111202.512500", "111204.002500", "111205.492500", "111206.982500", "111208.472500", "111209.962500", "111211.452500", "111212.942500", "111214.432500", "111215.922500", "111217.412500", "111218.902500", "111220.392500", "111221.882500", "111223.372500", "111224.862500", "111226.352500", "111227.842500", "111229.332500", "111230.822500", "111232.312500", "111233.802500", "111235.292500", "111236.782500", "111238.272500", "111239.762500", "111241.252500", "111242.742500", "111244.232500", "111245.722500", "111247.212500", "111248.702500", "111250.192500", "111251.682500", "111253.172500", "111254.662500", "111256.152500", "111257.642500", "111259.132500", "111300.622500", "111302.112500", "111303.602500", "111305.092500", "111306.582500", "111308.072500", "111309.562500", "111311.052500", "111312.542500", "111314.032500", "111315.522500", "111317.012500", "111318.502500", "111319.992500", "111321.482500", "111322.972500", "111324.462500", "111325.952500", "111327.442500", "111328.932500", "111330.422500", "111331.912500", "111333.402500", "111334.892500", "111336.382500", "111337.872500", "111339.362500", "111340.852500", "111342.342500", "111343.832500", "111345.322500", "111346.812500", "111348.302500", "111349.792500", "111351.282500", "111352.772500", "111354.262500", "111355.752500", "111357.242500", "111358.732500", "111400.222500", "111401.712500", "111403.202500", "111404.692500", "111406.182500", "111407.672500", "111409.162500", "111410.652500", "111412.142500", "111413.632500", "111415.122500", "111416.612500", "111418.102500", "111419.592500", "111421.082500", "111422.572500", "111424.062500", "111425.552500", "111427.042500"],
      "ContentTime": ["110455.219000", "110455.222000", "110455.225000", "110455.227000", "110455.230000", "110455.232000", "110455.235000", "110455.237000", "110455.240000", "110455.242000", "110455.245000", "110515.206000", "110515.208000", "110515.211000", "110515.213000", "110515.216000", "110515.218000", "110515.221000", "110515.223000", "110515.226000", "110515.228000", "110515.231000", "110515.233000", "110515.236000", "110515.238000", "110515.241000", "110515.244000", "110515.246000", "110515.248000", "110515.251000", "110515.254000", "110535.222000", "110535.224000", "110535.227000", "110535.237000", "110535.240000", "110535.242000", "110535.244000", "110535.247000", "110535.250000", "110535.252000", "110535.254000", "110535.257000", "110535.260000", "110535.262000", "110535.264000", "110535.267000", "110535.270000", "110535.272000", "110535.275000", "110535.277000", "110555.199000", "110555.202000", "110555.204000", "110555.207000", "110555.209000", "110555.212000", "110555.214000", "110555.217000", "110555.219000", "110555.222000", "110555.224000", "110555.227000", "110555.229000", "110555.232000", "110555.235000", "110555.237000", "110555.239000", "110555.242000", "110555.244000", "110555.247000", "110555.249000", "110615.204000", "110615.206000", "110615.209000", "110615.211000", "110615.214000", "110615.217000", "110615.219000", "110615.222000", "110615.224000", "110615.227000", "110615.229000", "110615.232000", "110615.234000", "110615.237000", "110615.239000", "110615.242000", "110615.244000", "110615.247000", "110615.249000", "110615.252000", "110655.263000", "110655.266000", "110655.269000", "110655.271000", "110655.274000", "110655.276000", "110655.279000", "110655.281000", "110655.284000", "110655.286000", "110655.289000", "110655.291000", "110655.294000", "110655.296000", "110655.299000", "110655.301000", "110655.304000", "110655.306000", "110655.308000", "110655.311000", "110655.313000", "110655.316000", "110655.318000", "110655.321000", "110655.323000", "110655.326000", "110655.328000", "110655.331000", "110655.333000", "110655.336000", "110655.338000", "110655.341000", "110735.242000", "110735.245000", "110735.247000", "110735.250000", "110735.252000", "110735.255000", "110735.257000", "110735.260000", "110735.262000", "110735.265000", "110735.267000", "110735.270000", "110735.272000", "110735.275000", "110735.277000", "110735.280000", "110735.282000", "110735.285000", "110735.287000", "110735.290000", "110735.292000", "110735.295000", "110735.297000", "110735.299000", "110735.302000", "110735.304000", "110735.307000", "110815.251000", "110815.254000", "110815.256000", "110815.259000", "110815.261000", "110815.264000", "110815.266000", "110815.269000", "110815.271000", "110815.274000", "110815.276000", "110815.278000", "110815.281000", "110815.283000", "110815.286000", "110815.288000", "110815.291000", "110815.293000", "110815.296000", "110815.298000", "110815.301000", "110815.303000", "110815.306000", "110815.308000", "110815.311000", "110815.313000", "110855.235000", "110855.238000", "110855.241000", "110855.243000", "110855.246000", "110855.248000", "110855.251000", "110855.253000", "110855.256000", "110855.258000", "110855.261000", "110855.263000", "110855.266000", "110855.268000", "110855.271000", "110855.273000", "110855.276000", "110855.278000", "110855.281000", "110855.283000", "110855.286000", "110855.288000", "110855.290000", "110855.293000", "110855.295000", "110855.298000", "110855.300000", "110935.260000", "110935.263000", "110935.265000", "110935.268000", "110935.270000", "110935.273000", "110935.275000", "110935.278000", "110935.280000", "110935.283000", "110935.285000", "110935.288000", "110935.290000", "110935.293000", "110935.295000", "110935.298000", "110935.300000", "110935.303000", "110935.308000", "110935.310000", "110935.313000", "110935.315000", "110935.318000", "110935.320000", "110935.323000", "110935.325000", "110935.328000", "111015.251000", "111015.253000", "111015.256000", "111015.258000", "111015.261000", "111015.264000", "111015.266000", "111015.269000", "111015.271000", "111015.274000", "111015.276000", "111015.279000", "111015.282000", "111015.284000", "111015.287000", "111015.289000", "111015.292000", "111015.294000", "111015.297000", "111015.299000", "111015.302000", "111015.310000", "111015.312000", "111015.315000", "111015.317000", "111015.320000", "111015.322000", "111055.237000", "111055.240000", "111055.242000", "111055.245000", "111055.247000", "111055.250000", "111055.252000", "111055.255000", "111055.257000", "111055.260000", "111055.262000", "111055.265000", "111055.267000", "111055.270000", "111055.272000", "111055.275000", "111055.277000", "111055.280000", "111055.283000", "111055.285000", "111055.288000", "111055.290000", "111055.293000", "111055.295000", "111055.298000", "111055.300000", "111055.303000", "111135.248000", "111135.251000", "111135.253000", "111135.256000", "111135.258000", "111135.261000", "111135.263000", "111135.266000", "111135.268000", "111135.271000", "111135.273000", "111135.276000", "111135.279000", "111135.281000", "111135.284000", "111135.286000", "111135.289000", "111135.291000", "111135.293000", "111135.296000", "111135.299000", "111135.301000", "111135.304000", "111135.306000", "111135.309000", "111135.311000", "111135.314000", "111215.240000", "111215.243000", "111215.245000", "111215.248000", "111215.250000", "111215.253000", "111215.255000", "111215.258000", "111215.260000", "111215.263000", "111215.265000", "111215.268000", "111215.270000", "111215.273000", "111215.275000", "111215.278000", "111215.280000", "111215.283000", "111215.285000", "111215.288000", "111215.290000", "111215.293000", "111215.295000", "111215.298000", "111215.300000", "111215.303000", "111255.238000", "111255.241000", "111255.243000", "111255.246000", "111255.248000", "111255.251000", "111255.253000", "111255.256000", "111255.258000", "111255.261000", "111255.263000", "111255.266000", "111255.268000", "111255.271000", "111255.273000", "111255.276000", "111255.279000", "111255.281000", "111255.284000", "111255.286000", "111255.289000", "111255.291000", "111255.294000", "111255.296000", "111255.299000", "111255.301000", "111255.304000", "111335.246000", "111335.248000", "111335.251000", "111335.253000", "111335.256000", "111335.258000", "111335.261000", "111335.263000", "111335.266000", "111335.268000", "111335.271000", "111335.273000", "111335.276000", "111335.278000", "111335.281000", "111335.283000", "111335.286000", "111335.288000", "111335.291000", "111335.293000", "111335.296000", "111335.298000", "111335.301000", "111335.303000", "111335.306000", "111335.308000", "111335.311000", "111355.170000", "111355.173000", "111355.175000", "111355.178000", "111355.180000", "111355.183000", "111355.185000", "111355.188000", "111355.190000", "111355.193000", "111355.195000", "111355.198000", "111355.200000", "111355.203000", "111430.445000", "111430.448000", "111430.450000", "111430.453000", "111430.456000", "111430.458000", "111430.461000", "111430.463000", "111430.466000", "111430.468000", "111430.471000", "111430.473000", "111430.476000", "111430.478000", "111430.481000", "111430.483000", "111430.486000", "111430.488000", "111430.491000", "111430.493000", "111430.496000", "111430.498000", "111430.501000"],
      "InstanceCreationTime": ["110455.219000", "110455.222000", "110455.225000", "110455.227000", "110455.230000", "110455.232000", "110455.235000", "110455.237000", "110455.240000", "110455.242000", "110455.245000", "110515.206000", "110515.208000", "110515.211000", "110515.213000", "110515.216000", "110515.218000", "110515.221000", "110515.223000", "110515.226000", "110515.228000", "110515.231000", "110515.233000", "110515.236000", "110515.238000", "110515.241000", "110515.244000", "110515.246000", "110515.248000", "110515.251000", "110515.254000", "110535.222000", "110535.224000", "110535.227000", "110535.237000", "110535.240000", "110535.242000", "110535.244000", "110535.247000", "110535.250000", "110535.252000", "110535.254000", "110535.257000", "110535.260000", "110535.262000", "110535.264000", "110535.267000", "110535.270000", "110535.272000", "110535.275000", "110535.277000", "110555.199000", "110555.202000", "110555.204000", "110555.207000", "110555.209000", "110555.212000", "110555.214000", "110555.217000", "110555.219000", "110555.222000", "110555.224000", "110555.227000", "110555.229000", "110555.232000", "110555.235000", "110555.237000", "110555.239000", "110555.242000", "110555.244000", "110555.247000", "110555.249000", "110615.204000", "110615.206000", "110615.209000", "110615.211000", "110615.214000", "110615.217000", "110615.219000", "110615.222000", "110615.224000", "110615.227000", "110615.229000", "110615.232000", "110615.234000", "110615.237000", "110615.239000", "110615.242000", "110615.244000", "110615.247000", "110615.249000", "110615.252000", "110655.263000", "110655.266000", "110655.269000", "110655.271000", "110655.274000", "110655.276000", "110655.279000", "110655.281000", "110655.284000", "110655.286000", "110655.289000", "110655.291000", "110655.294000", "110655.296000", "110655.299000", "110655.301000", "110655.304000", "110655.306000", "110655.308000", "110655.311000", "110655.313000", "110655.316000", "110655.318000", "110655.321000", "110655.323000", "110655.326000", "110655.328000", "110655.331000", "110655.333000", "110655.336000", "110655.338000", "110655.341000", "110735.242000", "110735.245000", "110735.247000", "110735.250000", "110735.252000", "110735.255000", "110735.257000", "110735.260000", "110735.262000", "110735.265000", "110735.267000", "110735.270000", "110735.272000", "110735.275000", "110735.277000", "110735.280000", "110735.282000", "110735.285000", "110735.287000", "110735.290000", "110735.292000", "110735.295000", "110735.297000", "110735.299000", "110735.302000", "110735.304000", "110735.307000", "110815.251000", "110815.254000", "110815.256000", "110815.259000", "110815.261000", "110815.264000", "110815.266000", "110815.269000", "110815.271000", "110815.274000", "110815.276000", "110815.278000", "110815.281000", "110815.283000", "110815.286000", "110815.288000", "110815.291000", "110815.293000", "110815.296000", "110815.298000", "110815.301000", "110815.303000", "110815.306000", "110815.308000", "110815.311000", "110815.313000", "110855.235000", "110855.238000", "110855.241000", "110855.243000", "110855.246000", "110855.248000", "110855.251000", "110855.253000", "110855.256000", "110855.258000", "110855.261000", "110855.263000", "110855.266000", "110855.268000", "110855.271000", "110855.273000", "110855.276000", "110855.278000", "110855.281000", "110855.283000", "110855.286000", "110855.288000", "110855.290000", "110855.293000", "110855.295000", "110855.298000", "110855.300000", "110935.260000", "110935.263000", "110935.265000", "110935.268000", "110935.270000", "110935.273000", "110935.275000", "110935.278000", "110935.280000", "110935.283000", "110935.285000", "110935.288000", "110935.290000", "110935.293000", "110935.295000", "110935.298000", "110935.300000", "110935.303000", "110935.308000", "110935.310000", "110935.313000", "110935.315000", "110935.318000", "110935.320000", "110935.323000", "110935.325000", "110935.328000", "111015.251000", "111015.253000", "111015.256000", "111015.258000", "111015.261000", "111015.264000", "111015.266000", "111015.269000", "111015.271000", "111015.274000", "111015.276000", "111015.279000", "111015.282000", "111015.284000", "111015.287000", "111015.289000", "111015.292000", "111015.294000", "111015.297000", "111015.299000", "111015.302000", "111015.310000", "111015.312000", "111015.315000", "111015.317000", "111015.320000", "111015.322000", "111055.237000", "111055.240000", "111055.242000", "111055.245000", "111055.247000", "111055.250000", "111055.252000", "111055.255000", "111055.257000", "111055.260000", "111055.262000", "111055.265000", "111055.267000", "111055.270000", "111055.272000", "111055.275000", "111055.277000", "111055.280000", "111055.283000", "111055.285000", "111055.288000", "111055.290000", "111055.293000", "111055.295000", "111055.298000", "111055.300000", "111055.303000", "111135.248000", "111135.251000", "111135.253000", "111135.256000", "111135.258000", "111135.261000", "111135.263000", "111135.266000", "111135.268000", "111135.271000", "111135.273000", "111135.276000", "111135.279000", "111135.281000", "111135.284000", "111135.286000", "111135.289000", "111135.291000", "111135.293000", "111135.296000", "111135.299000", "111135.301000", "111135.304000", "111135.306000", "111135.309000", "111135.311000", "111135.314000", "111215.240000", "111215.243000", "111215.245000", "111215.248000", "111215.250000", "111215.253000", "111215.255000", "111215.258000", "111215.260000", "111215.263000", "111215.265000", "111215.268000", "111215.270000", "111215.273000", "111215.275000", "111215.278000", "111215.280000", "111215.283000", "111215.285000", "111215.288000", "111215.290000", "111215.293000", "111215.295000", "111215.298000", "111215.300000", "111215.303000", "111255.238000", "111255.241000", "111255.243000", "111255.246000", "111255.248000", "111255.251000", "111255.253000", "111255.256000", "111255.258000", "111255.261000", "111255.263000", "111255.266000", "111255.268000", "111255.271000", "111255.273000", "111255.276000", "111255.279000", "111255.281000", "111255.284000", "111255.286000", "111255.289000", "111255.291000", "111255.294000", "111255.296000", "111255.299000", "111255.301000", "111255.304000", "111335.246000", "111335.248000", "111335.251000", "111335.253000", "111335.256000", "111335.258000", "111335.261000", "111335.263000", "111335.266000", "111335.268000", "111335.271000", "111335.273000", "111335.276000", "111335.278000", "111335.281000", "111335.283000", "111335.286000", "111335.288000", "111335.291000", "111335.293000", "111335.296000", "111335.298000", "111335.301000", "111335.303000", "111335.306000", "111335.308000", "111335.311000", "111355.170000", "111355.173000", "111355.175000", "111355.178000", "111355.180000", "111355.183000", "111355.185000", "111355.188000", "111355.190000", "111355.193000", "111355.195000", "111355.198000", "111355.200000", "111355.203000", "111430.445000", "111430.448000", "111430.450000", "111430.453000", "111430.456000", "111430.458000", "111430.461000", "111430.463000", "111430.466000", "111430.468000", "111430.471000", "111430.473000", "111430.476000", "111430.478000", "111430.481000", "111430.483000", "111430.486000", "111430.488000", "111430.491000", "111430.493000", "111430.496000", "111430.498000", "111430.501000"],
