{
  "AcquisitionMatrixPE": 104,
  "AcquisitionNumber": 1,
  "AcquisitionTime": "11:16:14.435000",
  "BandwidthPerPixelPhaseEncode": 17.17,
  "BaseResolution": 104,
  "BodyPartExamined": "BRAIN",
  "CoilCombinationMethod": "Sum of Squares",
  "ConsistencyInfo": "N4_VE11C_LATEST_20160120",
  "ConversionSoftware": "dcm2niix",
  "ConversionSoftwareVersion": "v1.0.20211006",
  "DerivedVendorReportedEchoSpacing": 0.000560011,
  "DeviceSerialNumber": "167006",
  "DwellTime": 2.1e-06,
  "EchoTime": 0.037,
  "EchoTime1": 0.037,
  "EchoTime2": 0.001,
  "EchoTrainLength": 104,
  "EffectiveEchoSpacing": 0.000560011,
  "FlipAngle": 52,
  "HeudiconvVersion": "0.10.0",
  "ImageComments": "Unaliased MB4/PE3/LB",
  "ImageOrientationPatientDICOM": [0.999264, 0.00551842, 0.0379577, 0.015, 0.854567, -0.519124],
  "ImageOrientationText": "Tra>Cor(-31.3)>Sag(2.0)",
  "ImageType": [
    "ORIGINAL",
    "PRIMARY",
    "P",
    "MB",
    "ND",
    "MOSAIC",
    "PHASE"
],
  "ImagingFrequency": 123.259,
  "InPlanePhaseEncodingDirectionDICOM": "COL",
  "InstitutionAddress": "Chemin Queen-Mary 4565,Montreal,District,CA,H3W 1W5",
  "InstitutionName": "IUGM",
  "InstitutionalDepartmentName": "Department",
  "MRAcquisitionType": "2D",
  "MagneticFieldStrength": 3,
  "Manufacturer": "Siemens",
  "ManufacturersModelName": "Prisma_fit",
  "MatrixCoilMode": "SENSE",
  "Modality": "MR",
  "MultibandAccelerationFactor": 4,
  "PartialFourier": 1,
  "PatientPosition": "HFS",
  "PercentPhaseFOV": 100,
  "PercentSampling": 100,
  "PhaseEncodingDirection": "j",
  "PhaseEncodingSteps": 104,
  "PhaseResolution": 1,
  "PixelBandwidth": 2290,
  "ProcedureStepDescription": "games^mario",
  "ProtocolName": "func_task-mario_run-03",
  "PulseSequenceDetails": "%CustomerSeq%\\cmrr_mbep2d_bold",
  "ReceiveCoilActiveElements": "HC1-7;NC1,2",
  "ReceiveCoilName": "HeadNeck_64",
  "ReconMatrixPE": 104,
  "RepetitionTime": 1.49,
  "SAR": 0.0495539,
  "ScanOptions": "FS",
  "ScanningSequence": "EP",
  "SequenceName": "epfid2d1_104",
  "SequenceVariant": "SK\\SS",
  "SeriesDescription": "func_task-mario_run-03",
  "SeriesNumber": 17,
  "ShimSetting": [625, -7181, -8866, 257, 4, -161, -20, 28],
  "SliceThickness": 2,
  "SliceTiming": [0, 0.785, 0.0975, 0.8825, 0.195, 0.98, 0.295, 1.0775, 0.3925, 1.175, 0.49, 1.2725, 0.5875, 1.3725, 0.685, 0, 0.785, 0.0975, 0.8825, 0.195, 0.98, 0.295, 1.0775, 0.3925, 1.175, 0.49, 1.2725, 0.5875, 1.3725, 0.685, 0, 0.785, 0.0975, 0.8825, 0.195, 0.98, 0.295, 1.0775, 0.3925, 1.175, 0.49, 1.2725, 0.5875, 1.3725, 0.685, 0, 0.785, 0.0975, 0.8825, 0.195, 0.98, 0.295, 1.0775, 0.3925, 1.175, 0.49, 1.2725, 0.5875, 1.3725, 0.685],
  "SoftwareVersions": "syngo MR E11",
  "SpacingBetweenSlices": 2,
  "StationName": "MRC35049",
  "TaskName": "mario",
  "TotalReadoutTime": 0.0576811,
  "TxRefAmp": 275.526,
  "WipMemBlock": "b3bde9e0-974d-41dc-822e-d0dc695ed8ba||Sequence: R016 ve11c/master r/e634e98; Dec 19 2017 11:00:25 by eja",
  "dcmmeta_affine": [
    [-1.998528242111206, 0.029999906197190285, 0.0706043466925621, 103.72774505615234],
    [-0.011036845855414867, 1.7091342210769653, -1.0386232137680054, -49.71467590332031],
    [0.07591545581817627, 1.0382485389709473, 1.7077109813690186, -95.24323272705078],
    [0.0, 0.0, 0.0, 1.0]
],
  "dcmmeta_reorient_transform": [
    [0.0, -1.0, 0.0, 103.0],
    [1.0, 0.0, 0.0, 0.0],
    [0.0, 0.0, 1.0, 0.0],
    [0.0, 0.0, 0.0, 1.0]
],
  "dcmmeta_shape": [104, 104, 60, 433],
  "dcmmeta_slice_dim": 2,
  "dcmmeta_version": 0.6,
  "global": {
    "const": {
      "AcquisitionMatrix": [104, 0, 0, 104],
      "AngioFlag": "N",
      "BitsAllocated": 16,
      "BitsStored": 16,
      "BodyPartExamined": "BRAIN",
      "Columns": 832,
      "EchoNumbers": 1,
      "EchoTime": 37.0,
      "EchoTrainLength": 104,
      "FlipAngle": 52.0,
      "HighBit": 15,
      "ImageOrientationPatient": [0.9992641082129, 0.00551842282787, 0.03795772710491, 0.01499995315823, 0.85456713460177, -0.5191242759338],
      "ImagePositionPatient": [-845.20197287594, -752.46843826754, 361.98561318129],
      "ImageType": [
        "ORIGINAL",
        "PRIMARY",
        "P",
        "MB",
        "ND",
        "MOSAIC"
],
      "ImagedNucleus": "1H",
      "ImagingFrequency": 123.258858,
      "InPlanePhaseEncodingDirection": "COL",
      "LargestImagePixelValue": 4095,
      "MRAcquisitionType": "2D",
      "MagneticFieldStrength": 3.0,
      "Manufacturer": "SIEMENS",
      "ManufacturerModelName": "Prisma_fit",
      "Modality": "MR",
      "NumberOfAverages": 1.0,
      "NumberOfPhaseEncodingSteps": 104,
      "PercentPhaseFieldOfView": 100.0,
      "PercentSampling": 100.0,
      "PerformedProcedureStepStartTime": "103157.008000",
      "PhotometricInterpretation": "MONOCHROME2",
      "PixelBandwidth": 2290.0,
      "PixelRepresentation": 0,
      "PixelSpacing": [2.0, 2.0],
      "ProtocolName": "func_task-mario_run-03",
      "RepetitionTime": 1490.0,
      "RescaleIntercept": -4096.0,
      "RescaleSlope": 2.0,
      "RescaleType": "US",
      "Rows": 832,
      "SAR": 0.04955392899328,
      "SamplesPerPixel": 1,
      "ScanOptions": "FS",
      "ScanningSequence": "EP",
      "SequenceName": "epfid2d1_104",
      "SequenceVariant": [
        "SK",
        "SS"
],
      "SeriesDescription": "func_task-mario_run-03",
      "SeriesNumber": 17,
      "SeriesTime": "111733.659000",
      "SliceLocation": -51.844734735173,
      "SliceThickness": 2.0,
      "SmallestImagePixelValue": 0,
      "SoftwareVersions": "syngo MR E11",
      "SpacingBetweenSlices": 2.0000000306953,
      "SpecificCharacterSet": "ISO_IR 100",
      "StudyID": "1",
      "StudyTime": "103156.930000",
      "TransmitCoilName": "Body",
      "VariableFlipAngleFlag": "N",
      "WindowCenterWidthExplanation": "Algo1",
      "dBdt": 0.0},
    "slices": {}
  },
  "time": {
    "samples": {
      "AcquisitionNumber": [1, 2, 3, 4, 5, 6, 7, 8, 9, 10, 11, 12, 13, 14, 15, 16, 17, 18, 19, 20, 21, 22, 23, 24, 25, 26, 27, 28, 29, 30, 31, 32, 33, 34, 35, 36, 37, 38, 39, 40, 41, 42, 43, 44, 45, 46, 47, 48, 49, 50, 51, 52, 53, 54, 55, 56, 57, 58, 59, 60, 61, 62, 63, 64, 65, 66, 67, 68, 69, 70, 71, 72, 73, 74, 75, 76, 77, 78, 79, 80, 81, 82, 83, 84, 85, 86, 87, 88, 89, 90, 91, 92, 93, 94, 95, 96, 97, 98, 99, 100, 101, 102, 103, 104, 105, 106, 107, 108, 109, 110, 111, 112, 113, 114, 115, 116, 117, 118, 119, 120, 121, 122, 123, 124, 125, 126, 127, 128, 129, 130, 131, 132, 133, 134, 135, 136, 137, 138, 139, 140, 141, 142, 143, 144, 145, 146, 147, 148, 149, 150, 151, 152, 153, 154, 155, 156, 157, 158, 159, 160, 161, 162, 163, 164, 165, 166, 167, 168, 169, 170, 171, 172, 173, 174, 175, 176, 177, 178, 179, 180, 181, 182, 183, 184, 185, 186, 187, 188, 189, 190, 191, 192, 193, 194, 195, 196, 197, 198, 199, 200, 201, 202, 203, 204, 205, 206, 207, 208, 209, 210, 211, 212, 213, 214, 215, 216, 217, 218, 219, 220, 221, 222, 223, 224, 225, 226, 227, 228, 229, 230, 231, 232, 233, 234, 235, 236, 237, 238, 239, 240, 241, 242, 243, 244, 245, 246, 247, 248, 249, 250, 251, 252, 253, 254, 255, 256, 257, 258, 259, 260, 261, 262, 263, 264, 265, 266, 267, 268, 269, 270, 271, 272, 273, 274, 275, 276, 277, 278, 279, 280, 281, 282, 283, 284, 285, 286, 287, 288, 289, 290, 291, 292, 293, 294, 295, 296, 297, 298, 299, 300, 301, 302, 303, 304, 305, 306, 307, 308, 309, 310, 311, 312, 313, 314, 315, 316, 317, 318, 319, 320, 321, 322, 323, 324, 325, 326, 327, 328, 329, 330, 331, 332, 333, 334, 335, 336, 337, 338, 339, 340, 341, 342, 343, 344, 345, 346, 347, 348, 349, 350, 351, 352, 353, 354, 355, 356, 357, 358, 359, 360, 361, 362, 363, 364, 365, 366, 367, 368, 369, 370, 371, 372, 373, 374, 375, 376, 377, 378, 379, 380, 381, 382, 383, 384, 385, 386, 387, 388, 389, 390, 391, 392, 393, 394, 395, 396, 397, 398, 399, 400, 401, 402, 403, 404, 405, 406, 407, 408, 409, 410, 411, 412, 413, 414, 415, 416, 417, 418, 419, 420, 421, 422, 423, 424, 425, 426, 427, 428, 429, 430, 431, 432, 433],
      "AcquisitionTime": ["111614.435000", "111615.925000", "111617.415000", "111618.905000", "111620.395000", "111621.885000", "111623.375000", "111624.865000", "111626.355000", "111627.845000", "111629.335000", "111630.825000", "111632.315000", "111633.805000", "111635.295000", "111636.785000", "111638.275000", "111639.765000", "111641.255000", "111642.745000", "111644.235000", "111645.725000", "111647.215000", "111648.705000", "111650.195000", "111651.685000", "111653.175000", "111654.665000", "111656.155000", "111657.645000", "111659.135000", "111700.625000", "111702.115000", "111703.605000", "111705.095000", "111706.585000", "111708.075000", "111709.565000", "111711.055000", "111712.545000", "111714.035000", "111715.525000", "111717.015000", "111718.505000", "111719.995000", "111721.485000", "111722.975000", "111724.465000", "111725.955000", "111727.445000", "111728.935000", "111730.425000", "111731.915000", "111733.405000", "111734.895000", "111736.385000", "111737.875000", "111739.365000", "111740.855000", "111742.345000", "111743.835000", "111745.325000", "111746.815000", "111748.305000", "111749.795000", "111751.285000", "111752.775000", "111754.265000", "111755.755000", "111757.245000", "111758.735000", "111800.225000", "111801.715000", "111803.205000", "111804.695000", "111806.185000", "111807.675000", "111809.165000", "111810.655000", "111812.145000", "111813.635000", "111815.125000", "111816.615000", "111818.105000", "111819.595000", "111821.085000", "111822.575000", "111824.065000", "111825.555000", "111827.045000", "111828.535000", "111830.025000", "111831.515000", "111833.005000", "111834.495000", "111835.985000", "111837.475000", "111838.965000", "111840.455000", "111841.945000", "111843.435000", "111844.925000", "111846.415000", "111847.905000", "111849.395000", "111850.885000", "111852.375000", "111853.865000", "111855.355000", "111856.845000", "111858.335000", "111859.825000", "111901.315000", "111902.805000", "111904.295000", "111905.785000", "111907.275000", "111908.765000", "111910.255000", "111911.745000", "111913.235000", "111914.725000", "111916.215000", "111917.705000", "111919.195000", "111920.685000", "111922.175000", "111923.665000", "111925.155000", "111926.645000", "111928.135000", "111929.625000", "111931.115000", "111932.605000", "111934.095000", "111935.585000", "111937.075000", "111938.565000", "111940.055000", "111941.545000", "111943.035000", "111944.525000", "111946.015000", "111947.505000", "111948.995000", "111950.485000", "111951.975000", "111953.465000", "111954.955000", "111956.445000", "111957.935000", "111959.425000", "112000.915000", "112002.405000", "112003.895000", "112005.385000", "112006.875000", "112008.365000", "112009.855000", "112011.345000", "112012.835000", "112014.325000", "112015.815000", "112017.305000", "112018.795000", "112020.285000", "112021.775000", "112023.265000", "112024.755000", "112026.245000", "112027.735000", "112029.225000", "112030.715000", "112032.205000", "112033.695000", "112035.185000", "112036.675000", "112038.165000", "112039.655000", "112041.145000", "112042.635000", "112044.125000", "112045.615000", "112047.105000", "112048.595000", "112050.085000", "112051.575000", "112053.065000", "112054.555000", "112056.045000", "112057.535000", "112059.025000", "112100.515000", "112102.005000", "112103.495000", "112104.985000", "112106.475000", "112107.965000", "112109.455000", "112110.945000", "112112.435000", "112113.925000", "112115.415000", "112116.905000", "112118.395000", "112119.885000", "112121.375000", "112122.865000", "112124.355000", "112125.845000", "112127.335000", "112128.825000", "112130.315000", "112131.805000", "112133.295000", "112134.785000", "112136.275000", "112137.765000", "112139.255000", "112140.745000", "112142.235000", "112143.725000", "112145.215000", "112146.705000", "112148.195000", "112149.685000", "112151.175000", "112152.665000", "112154.155000", "112155.645000", "112157.135000", "112158.625000", "112200.115000", "112201.605000", "112203.095000", "112204.585000", "112206.075000", "112207.565000", "112209.055000", "112210.545000", "112212.035000", "112213.525000", "112215.015000", "112216.505000", "112217.995000", "112219.485000", "112220.975000", "112222.465000", "112223.955000", "112225.445000", "112226.935000", "112228.425000", "112229.915000", "112231.405000", "112232.895000", "112234.385000", "112235.875000", "112237.365000", "112238.855000", "112240.345000", "112241.835000", "112243.325000", "112244.815000", "112246.305000", "112247.795000", "112249.285000", "112250.775000", "112252.265000", "112253.755000", "112255.245000", "112256.735000", "112258.225000", "112259.715000", "112301.205000", "112302.695000", "112304.185000", "112305.675000", "112307.165000", "112308.655000", "112310.145000", "112311.635000", "112313.125000", "112314.615000", "112316.105000", "112317.595000", "112319.085000", "112320.575000", "112322.065000", "112323.555000", "112325.045000", "112326.535000", "112328.025000", "112329.515000", "112331.005000", "112332.495000", "112333.985000", "112335.475000", "112336.965000", "112338.455000", "112339.945000", "112341.435000", "112342.925000", "112344.415000", "112345.905000", "112347.395000", "112348.885000", "112350.375000", "112351.865000", "112353.355000", "112354.845000", "112356.335000", "112357.825000", "112359.315000", "112400.805000", "112402.295000", "112403.785000", "112405.275000", "112406.765000", "112408.255000", "112409.745000", "112411.235000", "112412.725000", "112414.215000", "112415.705000", "112417.195000", "112418.685000", "112420.175000", "112421.665000", "112423.155000", "112424.645000", "112426.135000", "112427.625000", "112429.115000", "112430.605000", "112432.095000", "112433.585000", "112435.075000", "112436.565000", "112438.055000", "112439.545000", "112441.035000", "112442.525000", "112444.015000", "112445.505000", "112446.995000", "112448.485000", "112449.975000", "112451.465000", "112452.955000", "112454.445000", "112455.935000", "112457.425000", "112458.915000", "112500.405000", "112501.895000", "112503.385000", "112504.875000", "112506.365000", "112507.855000", "112509.345000", "112510.835000", "112512.325000", "112513.815000", "112515.305000", "112516.795000", "112518.285000", "112519.775000", "112521.265000", "112522.755000", "112524.245000", "112525.735000", "112527.225000", "112528.715000", "112530.205000", "112531.695000", "112533.185000", "112534.675000", "112536.165000", "112537.655000", "112539.145000", "112540.635000", "112542.125000", "112543.615000", "112545.105000", "112546.595000", "112548.085000", "112549.575000", "112551.065000", "112552.555000", "112554.045000", "112555.535000", "112557.025000", "112558.515000", "112600.005000", "112601.495000", "112602.985000", "112604.475000", "112605.965000", "112607.455000", "112608.945000", "112610.435000", "112611.925000", "112613.415000", "112614.905000", "112616.395000", "112617.885000", "112619.375000", "112620.865000", "112622.355000", "112623.845000", "112625.335000", "112626.825000", "112628.315000", "112629.805000", "112631.295000", "112632.785000", "112634.275000", "112635.765000", "112637.255000", "112638.745000", "112640.235000", "112641.725000", "112643.215000", "112644.705000", "112646.195000", "112647.685000", "112649.175000", "112650.665000", "112652.155000", "112653.645000", "112655.135000", "112656.625000", "112658.115000"],
      "ContentTime": ["111733.661000", "111733.664000", "111733.666000", "111733.671000", "111733.674000", "111733.676000", "111733.679000", "111733.681000", "111733.684000", "111733.691000", "111733.693000", "111733.696000", "111733.698000", "111733.701000", "111733.703000", "111733.706000", "111733.708000", "111733.711000", "111733.714000", "111733.716000", "111733.718000", "111733.721000", "111733.723000", "111733.726000", "111733.729000", "111753.624000", "111753.626000", "111753.629000", "111753.632000", "111753.634000", "111753.636000", "111753.639000", "111753.642000", "111753.644000", "111753.647000", "111753.649000", "111753.652000", "111753.654000", "111753.657000", "111753.659000", "111753.661000", "111753.664000", "111753.666000", "111753.669000", "111753.671000", "111753.674000", "111813.618000", "111813.620000", "111813.623000", "111813.625000", "111813.628000", "111813.630000", "111813.633000", "111813.635000", "111813.638000", "111813.640000", "111813.643000", "111813.645000", "111813.647000", "111813.650000", "111813.652000", "111813.655000", "111813.657000", "111813.660000", "111813.662000", "111813.665000", "111833.604000", "111833.607000", "111833.610000", "111833.612000", "111833.615000", "111833.617000", "111833.620000", "111833.622000", "111833.625000", "111833.627000", "111833.629000", "111833.632000", "111833.634000", "111833.637000", "111833.639000", "111833.642000", "111833.644000", "111833.647000", "111833.649000", "111833.652000", "111853.609000", "111853.612000", "111853.615000", "111853.617000", "111853.620000", "111853.622000", "111853.625000", "111853.627000", "111853.630000", "111853.632000", "111853.635000", "111853.637000", "111853.640000", "111853.642000", "111853.645000", "111853.647000", "111853.650000", "111853.652000", "111853.655000", "111853.657000", "111933.634000", "111933.637000", "111933.639000", "111933.642000", "111933.644000", "111933.647000", "111933.649000", "111933.652000", "111933.654000", "111933.657000", "111933.659000", "111933.662000", "111933.664000", "111933.667000", "111933.669000", "111933.672000", "111933.674000", "111933.677000", "111933.679000", "111933.682000", "111933.684000", "111933.687000", "111933.689000", "111933.692000", "111933.694000", "111933.697000", "111933.699000", "112013.648000", "112013.651000", "112013.653000", "112013.656000", "112013.658000", "112013.661000", "112013.663000", "112013.666000", "112013.668000", "112013.671000", "112013.673000", "112013.676000", "112013.678000", "112013.681000", "112013.683000", "112013.686000", "112013.688000", "112013.691000", "112013.693000", "112013.696000", "112013.698000", "112013.701000", "112013.703000", "112013.706000", "112013.708000", "112013.711000", "112013.713000", "112053.644000", "112053.647000", "112053.650000", "112053.652000", "112053.655000", "112053.657000", "112053.660000", "112053.662000", "112053.665000", "112053.667000", "112053.670000", "112053.672000", "112053.675000", "112053.677000", "112053.680000", "112053.682000", "112053.685000", "112053.687000", "112053.690000", "112053.692000", "112053.695000", "112053.697000", "112053.700000", "112053.702000", "112053.705000", "112053.707000", "112133.646000", "112133.649000", "112133.651000", "112133.654000", "112133.656000", "112133.659000", "112133.661000", "112133.664000", "112133.666000", "112133.669000", "112133.671000", "112133.674000", "112133.676000", "112133.679000", "112133.681000", "112133.684000", "112133.686000", "112133.689000", "112133.691000", "112133.694000", "112133.696000", "112133.699000", "112133.701000", "112133.704000", "112133.708000", "112133.710000", "112133.713000", "112213.649000", "112213.652000", "112213.654000", "112213.657000", "112213.659000", "112213.662000", "112213.664000", "112213.667000", "112213.669000", "112213.672000", "112213.674000", "112213.677000", "112213.679000", "112213.682000", "112213.684000", "112213.687000", "112213.689000", "112213.692000", "112213.694000", "112213.697000", "112213.699000", "112213.702000", "112213.704000", "112213.707000", "112213.709000", "112213.712000", "112213.714000", "112254.011000", "112254.013000", "112254.016000", "112254.018000", "112254.021000", "112254.023000", "112254.026000", "112254.028000", "112254.031000", "112254.033000", "112254.036000", "112254.038000", "112254.041000", "112254.043000", "112254.046000", "112254.048000", "112254.051000", "112254.053000", "112254.056000", "112254.058000", "112254.061000", "112254.063000", "112254.066000", "112254.068000", "112254.071000", "112254.073000", "112254.076000", "112333.636000", "112333.639000", "112333.641000", "112333.644000", "112333.646000", "112333.649000", "112333.651000", "112333.654000", "112333.656000", "112333.659000", "112333.661000", "112333.664000", "112333.666000", "112333.669000", "112333.671000", "112333.674000", "112333.676000", "112333.679000", "112333.681000", "112333.684000", "112333.686000", "112333.689000", "112333.691000", "112333.694000", "112333.696000", "112333.699000", "112333.701000", "112353.575000", "112353.578000", "112353.581000", "112353.583000", "112353.586000", "112353.588000", "112353.591000", "112353.593000", "112353.596000", "112353.598000", "112353.601000", "112353.603000", "112353.606000", "112433.648000", "112433.650000", "112433.667000", "112433.669000", "112433.672000", "112433.674000", "112433.677000", "112433.679000", "112433.682000", "112433.684000", "112433.687000", "112433.689000", "112433.692000", "112433.694000", "112433.697000", "112433.699000", "112433.702000", "112433.704000", "112433.707000", "112433.709000", "112433.712000", "112433.714000", "112433.717000", "112433.719000", "112433.722000", "112433.724000", "112433.727000", "112513.638000", "112513.641000", "112513.643000", "112513.646000", "112513.648000", "112513.651000", "112513.653000", "112513.656000", "112513.658000", "112513.661000", "112513.663000", "112513.666000", "112513.668000", "112513.671000", "112513.673000", "112513.676000", "112513.678000", "112513.681000", "112513.683000", "112513.686000", "112513.688000", "112513.691000", "112513.693000", "112513.696000", "112513.698000", "112513.701000", "112513.703000", "112553.635000", "112553.638000", "112553.640000", "112553.643000", "112553.645000", "112553.648000", "112553.650000", "112553.653000", "112553.655000", "112553.658000", "112553.660000", "112553.663000", "112553.671000", "112553.674000", "112553.676000", "112553.679000", "112553.681000", "112553.684000", "112553.686000", "112553.689000", "112553.692000", "112553.694000", "112553.697000", "112553.699000", "112553.702000", "112553.704000", "112553.707000", "112633.638000", "112633.641000", "112633.643000", "112633.646000", "112633.648000", "112633.651000", "112633.653000", "112633.656000", "112633.658000", "112633.661000", "112633.664000", "112633.666000", "112633.669000", "112633.671000", "112633.674000", "112633.677000", "112633.679000", "112633.682000", "112633.684000", "112633.687000", "112633.690000", "112633.692000", "112633.695000", "112633.697000", "112633.700000", "112633.702000", "112633.705000", "112701.588000", "112701.591000", "112701.593000", "112701.596000", "112701.599000", "112701.601000", "112701.604000", "112701.606000", "112701.609000", "112701.611000", "112701.614000", "112701.616000", "112701.619000", "112701.621000", "112701.624000", "112701.626000", "112701.629000", "112701.631000"],
