{
  "AcquisitionMatrixPE": 104,
  "AcquisitionNumber": 1,
  "AcquisitionTime": "11:28:16.742500",
  "BandwidthPerPixelPhaseEncode": 17.17,
  "BaseResolution": 104,
  "BodyPartExamined": "BRAIN",
  "CoilCombinationMethod": "Sum of Squares",
  "ConsistencyInfo": "N4_VE11C_LATEST_20160120",
  "ConversionSoftware": "dcm2niix",
  "ConversionSoftwareVersion": "v1.0.20211006",
  "DerivedVendorReportedEchoSpacing": 0.000560011,
  "DeviceSerialNumber": "167006",
  "DwellTime": 2.1e-06,
  "EchoTime": 0.037,
  "EchoTrainLength": 104,
  "EffectiveEchoSpacing": 0.000560011,
  "FlipAngle": 52,
  "HeudiconvVersion": "0.10.0",
  "ImageComments": "Unaliased MB4/PE3/LB",
  "ImageOrientationPatientDICOM": [0.999264, 0.00551842, 0.0379577, 0.015, 0.854567, -0.519124],
  "ImageOrientationText": "Tra>Cor(-31.3)>Sag(2.0)",
  "ImageType": [
    "ORIGINAL",
    "PRIMARY",
    "M",
    "MB",
    "ND",
    "MOSAIC"
],
  "ImagingFrequency": 123.259,
  "InPlanePhaseEncodingDirectionDICOM": "COL",
  "InstitutionAddress": "Chemin Queen-Mary 4565,Montreal,District,CA,H3W 1W5",
  "InstitutionName": "IUGM",
  "InstitutionalDepartmentName": "Department",
  "MRAcquisitionType": "2D",
  "MagneticFieldStrength": 3,
  "Manufacturer": "Siemens",
  "ManufacturersModelName": "Prisma_fit",
  "MatrixCoilMode": "SENSE",
  "Modality": "MR",
  "MultibandAccelerationFactor": 4,
  "PartialFourier": 1,
  "PatientPosition": "HFS",
  "PercentPhaseFOV": 100,
  "PercentSampling": 100,
  "PhaseEncodingDirection": "j",
  "PhaseEncodingSteps": 104,
  "PhaseResolution": 1,
  "PixelBandwidth": 2290,
  "ProcedureStepDescription": "games^mario",
  "ProtocolName": "func_task-mario_run-04",
  "PulseSequenceDetails": "%CustomerSeq%\\cmrr_mbep2d_bold",
  "ReceiveCoilActiveElements": "HC1-7;NC1,2",
  "ReceiveCoilName": "HeadNeck_64",
  "ReconMatrixPE": 104,
  "RepetitionTime": 1.49,
  "SAR": 0.0495539,
  "ScanOptions": "FS",
  "ScanningSequence": "EP",
  "SequenceName": "epfid2d1_104",
  "SequenceVariant": "SK\\SS",
  "SeriesDescription": "func_task-mario_run-04",
  "SeriesNumber": 19,
  "ShimSetting": [625, -7181, -8866, 257, 4, -161, -20, 28],
  "SliceThickness": 2,
  "SliceTiming": [0, 0.7825, 0.0975, 0.88, 0.195, 0.98, 0.2925, 1.0775, 0.39, 1.175, 0.49, 1.2725, 0.5875, 1.37, 0.685, 0, 0.7825, 0.0975, 0.88, 0.195, 0.98, 0.2925, 1.0775, 0.39, 1.175, 0.49, 1.2725, 0.5875, 1.37, 0.685, 0, 0.7825, 0.0975, 0.88, 0.195, 0.98, 0.2925, 1.0775, 0.39, 1.175, 0.49, 1.2725, 0.5875, 1.37, 0.685, 0, 0.7825, 0.0975, 0.88, 0.195, 0.98, 0.2925, 1.0775, 0.39, 1.175, 0.49, 1.2725, 0.5875, 1.37, 0.685],
  "SoftwareVersions": "syngo MR E11",
  "SpacingBetweenSlices": 2,
  "StationName": "MRC35049",
  "TaskName": "mario",
  "TotalReadoutTime": 0.0576811,
  "TxRefAmp": 275.526,
  "WipMemBlock": "0e6c2061-eb47-48ba-801f-3edb4b759fcb||Sequence: R016 ve11c/master r/e634e98; Dec 19 2017 11:00:25 by eja",
  "dcmmeta_affine": [
    [-1.998528242111206, 0.029999906197190285, 0.0706043466925621, 103.72774505615234],
    [-0.011036845855414867, 1.7091342210769653, -1.0386232137680054, -49.71467590332031],
    [0.07591545581817627, 1.0382485389709473, 1.7077109813690186, -95.24323272705078],
    [0.0, 0.0, 0.0, 1.0]
],
  "dcmmeta_reorient_transform": [
    [0.0, -1.0, 0.0, 103.0],
    [1.0, 0.0, 0.0, 0.0],
    [0.0, 0.0, 1.0, 0.0],
    [0.0, 0.0, 0.0, 1.0]
],
  "dcmmeta_shape": [104, 104, 60, 424],
  "dcmmeta_slice_dim": 2,
  "dcmmeta_version": 0.6,
  "global": {
    "const": {
      "AcquisitionMatrix": [104, 0, 0, 104],
      "AngioFlag": "N",
      "BitsAllocated": 16,
      "BitsStored": 16,
      "BodyPartExamined": "BRAIN",
      "Columns": 832,
      "EchoNumbers": 1,
      "EchoTime": 37.0,
      "EchoTrainLength": 104,
      "FlipAngle": 52.0,
      "HighBit": 15,
      "ImageOrientationPatient": [0.9992641082129, 0.00551842282787, 0.03795772710491, 0.01499995315823, 0.85456713460177, -0.5191242759338],
      "ImagePositionPatient": [-845.20197287594, -752.46843826754, 361.98561318129],
      "ImageType": [
        "ORIGINAL",
        "PRIMARY",
        "M",
        "MB",
        "ND",
        "MOSAIC"
],
      "ImagedNucleus": "1H",
      "ImagingFrequency": 123.258863,
      "InPlanePhaseEncodingDirection": "COL",
      "MRAcquisitionType": "2D",
      "MagneticFieldStrength": 3.0,
      "Manufacturer": "SIEMENS",
      "ManufacturerModelName": "Prisma_fit",
      "Modality": "MR",
      "NumberOfAverages": 1.0,
      "NumberOfPhaseEncodingSteps": 104,
      "PercentPhaseFieldOfView": 100.0,
      "PercentSampling": 100.0,
      "PerformedProcedureStepStartTime": "103157.008000",
      "PhotometricInterpretation": "MONOCHROME2",
      "PixelBandwidth": 2290.0,
      "PixelRepresentation": 0,
      "PixelSpacing": [2.0, 2.0],
      "ProtocolName": "func_task-mario_run-04",
      "RepetitionTime": 1490.0,
      "Rows": 832,
      "SAR": 0.04955392899328,
      "SamplesPerPixel": 1,
      "ScanOptions": "FS",
      "ScanningSequence": "EP",
      "SequenceName": "epfid2d1_104",
      "SequenceVariant": [
        "SK",
        "SS"
],
      "SeriesDescription": "func_task-mario_run-04",
      "SeriesNumber": 19,
      "SeriesTime": "112932.369000",
      "SliceLocation": -51.844734735173,
      "SliceThickness": 2.0,
      "SmallestImagePixelValue": 0,
      "SoftwareVersions": "syngo MR E11",
      "SpacingBetweenSlices": 2.0000000306953,
      "SpecificCharacterSet": "ISO_IR 100",
      "StudyID": "1",
      "StudyTime": "103156.930000",
      "TransmitCoilName": "Body",
      "VariableFlipAngleFlag": "N",
      "WindowCenterWidthExplanation": "Algo1",
      "dBdt": 0.0},
    "slices": {}
  },
  "time": {
    "samples": {
      "AcquisitionNumber": [1, 2, 3, 4, 5, 6, 7, 8, 9, 10, 11, 12, 13, 14, 15, 16, 17, 18, 19, 20, 21, 22, 23, 24, 25, 26, 27, 28, 29, 30, 31, 32, 33, 34, 35, 36, 37, 38, 39, 40, 41, 42, 43, 44, 45, 46, 47, 48, 49, 50, 51, 52, 53, 54, 55, 56, 57, 58, 59, 60, 61, 62, 63, 64, 65, 66, 67, 68, 69, 70, 71, 72, 73, 74, 75, 76, 77, 78, 79, 80, 81, 82, 83, 84, 85, 86, 87, 88, 89, 90, 91, 92, 93, 94, 95, 96, 97, 98, 99, 100, 101, 102, 103, 104, 105, 106, 107, 108, 109, 110, 111, 112, 113, 114, 115, 116, 117, 118, 119, 120, 121, 122, 123, 124, 125, 126, 127, 128, 129, 130, 131, 132, 133, 134, 135, 136, 137, 138, 139, 140, 141, 142, 143, 144, 145, 146, 147, 148, 149, 150, 151, 152, 153, 154, 155, 156, 157, 158, 159, 160, 161, 162, 163, 164, 165, 166, 167, 168, 169, 170, 171, 172, 173, 174, 175, 176, 177, 178, 179, 180, 181, 182, 183, 184, 185, 186, 187, 188, 189, 190, 191, 192, 193, 194, 195, 196, 197, 198, 199, 200, 201, 202, 203, 204, 205, 206, 207, 208, 209, 210, 211, 212, 213, 214, 215, 216, 217, 218, 219, 220, 221, 222, 223, 224, 225, 226, 227, 228, 229, 230, 231, 232, 233, 234, 235, 236, 237, 238, 239, 240, 241, 242, 243, 244, 245, 246, 247, 248, 249, 250, 251, 252, 253, 254, 255, 256, 257, 258, 259, 260, 261, 262, 263, 264, 265, 266, 267, 268, 269, 270, 271, 272, 273, 274, 275, 276, 277, 278, 279, 280, 281, 282, 283, 284, 285, 286, 287, 288, 289, 290, 291, 292, 293, 294, 295, 296, 297, 298, 299, 300, 301, 302, 303, 304, 305, 306, 307, 308, 309, 310, 311, 312, 313, 314, 315, 316, 317, 318, 319, 320, 321, 322, 323, 324, 325, 326, 327, 328, 329, 330, 331, 332, 333, 334, 335, 336, 337, 338, 339, 340, 341, 342, 343, 344, 345, 346, 347, 348, 349, 350, 351, 352, 353, 354, 355, 356, 357, 358, 359, 360, 361, 362, 363, 364, 365, 366, 367, 368, 369, 370, 371, 372, 373, 374, 375, 376, 377, 378, 379, 380, 381, 382, 383, 384, 385, 386, 387, 388, 389, 390, 391, 392, 393, 394, 395, 396, 397, 398, 399, 400, 401, 402, 403, 404, 405, 406, 407, 408, 409, 410, 411, 412, 413, 414, 415, 416, 417, 418, 419, 420, 421, 422, 423, 424],
      "AcquisitionTime": ["112816.742500", "112818.232500", "112819.722500", "112821.212500", "112822.702500", "112824.192500", "112825.682500", "112827.172500", "112828.662500", "112830.152500", "112831.642500", "112833.132500", "112834.622500", "112836.112500", "112837.602500", "112839.092500", "112840.582500", "112842.072500", "112843.562500", "112845.052500", "112846.542500", "112848.032500", "112849.522500", "112851.012500", "112852.502500", "112853.992500", "112855.482500", "112856.972500", "112858.462500", "112859.952500", "112901.442500", "112902.932500", "112904.422500", "112905.912500", "112907.402500", "112908.892500", "112910.382500", "112911.872500", "112913.362500", "112914.852500", "112916.342500", "112917.832500", "112919.322500", "112920.812500", "112922.302500", "112923.792500", "112925.282500", "112926.772500", "112928.262500", "112929.752500", "112931.242500", "112932.732500", "112934.222500", "112935.712500", "112937.202500", "112938.692500", "112940.182500", "112941.672500", "112943.162500", "112944.652500", "112946.142500", "112947.632500", "112949.122500", "112950.612500", "112952.102500", "112953.592500", "112955.082500", "112956.572500", "112958.062500", "112959.552500", "113001.042500", "113002.532500", "113004.022500", "113005.512500", "113007.002500", "113008.492500", "113009.982500", "113011.472500", "113012.962500", "113014.452500", "113015.942500", "113017.432500", "113018.922500", "113020.412500", "113021.902500", "113023.392500", "113024.882500", "113026.372500", "113027.862500", "113029.352500", "113030.842500", "113032.332500", "113033.822500", "113035.312500", "113036.802500", "113038.292500", "113039.782500", "113041.272500", "113042.762500", "113044.252500", "113045.742500", "113047.232500", "113048.722500", "113050.212500", "113051.702500", "113053.192500", "113054.682500", "113056.172500", "113057.662500", "113059.152500", "113100.642500", "113102.132500", "113103.622500", "113105.112500", "113106.602500", "113108.092500", "113109.582500", "113111.072500", "113112.562500", "113114.052500", "113115.542500", "113117.032500", "113118.522500", "113120.012500", "113121.502500", "113122.992500", "113124.482500", "113125.972500", "113127.462500", "113128.952500", "113130.442500", "113131.932500", "113133.422500", "113134.912500", "113136.402500", "113137.892500", "113139.382500", "113140.872500", "113142.362500", "113143.852500", "113145.342500", "113146.832500", "113148.322500", "113149.812500", "113151.302500", "113152.792500", "113154.282500", "113155.772500", "113157.262500", "113158.752500", "113200.242500", "113201.732500", "113203.222500", "113204.712500", "113206.202500", "113207.692500", "113209.182500", "113210.672500", "113212.162500", "113213.652500", "113215.142500", "113216.632500", "113218.122500", "113219.612500", "113221.102500", "113222.592500", "113224.082500", "113225.572500", "113227.062500", "113228.552500", "113230.042500", "113231.532500", "113233.022500", "113234.512500", "113236.002500", "113237.492500", "113238.982500", "113240.472500", "113241.962500", "113243.452500", "113244.942500", "113246.432500", "113247.922500", "113249.412500", "113250.902500", "113252.392500", "113253.882500", "113255.372500", "113256.862500", "113258.352500", "113259.842500", "113301.332500", "113302.822500", "113304.312500", "113305.802500", "113307.292500", "113308.782500", "113310.272500", "113311.762500", "113313.252500", "113314.742500", "113316.232500", "113317.722500", "113319.212500", "113320.702500", "113322.192500", "113323.682500", "113325.172500", "113326.662500", "113328.152500", "113329.642500", "113331.132500", "113332.622500", "113334.112500", "113335.602500", "113337.092500", "113338.582500", "113340.072500", "113341.562500", "113343.052500", "113344.542500", "113346.032500", "113347.522500", "113349.012500", "113350.502500", "113351.992500", "113353.482500", "113354.972500", "113356.462500", "113357.952500", "113359.442500", "113400.932500", "113402.422500", "113403.912500", "113405.402500", "113406.892500", "113408.382500", "113409.872500", "113411.362500", "113412.852500", "113414.342500", "113415.832500", "113417.322500", "113418.812500", "113420.302500", "113421.792500", "113423.282500", "113424.772500", "113426.262500", "113427.752500", "113429.242500", "113430.732500", "113432.222500", "113433.712500", "113435.202500", "113436.692500", "113438.182500", "113439.672500", "113441.162500", "113442.652500", "113444.142500", "113445.632500", "113447.122500", "113448.612500", "113450.102500", "113451.592500", "113453.082500", "113454.572500", "113456.062500", "113457.552500", "113459.042500", "113500.532500", "113502.022500", "113503.512500", "113505.002500", "113506.492500", "113507.982500", "113509.472500", "113510.962500", "113512.452500", "113513.942500", "113515.432500", "113516.922500", "113518.412500", "113519.902500", "113521.392500", "113522.882500", "113524.372500", "113525.862500", "113527.352500", "113528.842500", "113530.332500", "113531.822500", "113533.312500", "113534.802500", "113536.292500", "113537.782500", "113539.272500", "113540.762500", "113542.252500", "113543.742500", "113545.232500", "113546.722500", "113548.212500", "113549.702500", "113551.192500", "113552.682500", "113554.172500", "113555.662500", "113557.152500", "113558.642500", "113600.132500", "113601.622500", "113603.112500", "113604.602500", "113606.092500", "113607.582500", "113609.072500", "113610.562500", "113612.052500", "113613.542500", "113615.032500", "113616.522500", "113618.012500", "113619.502500", "113620.992500", "113622.482500", "113623.972500", "113625.462500", "113626.952500", "113628.442500", "113629.932500", "113631.422500", "113632.912500", "113634.402500", "113635.892500", "113637.382500", "113638.872500", "113640.362500", "113641.852500", "113643.342500", "113644.832500", "113646.322500", "113647.812500", "113649.302500", "113650.792500", "113652.282500", "113653.772500", "113655.262500", "113656.752500", "113658.242500", "113659.732500", "113701.222500", "113702.712500", "113704.202500", "113705.692500", "113707.182500", "113708.672500", "113710.162500", "113711.652500", "113713.142500", "113714.632500", "113716.122500", "113717.612500", "113719.102500", "113720.592500", "113722.082500", "113723.572500", "113725.062500", "113726.552500", "113728.042500", "113729.532500", "113731.022500", "113732.512500", "113734.002500", "113735.492500", "113736.982500", "113738.472500", "113739.962500", "113741.452500", "113742.942500", "113744.432500", "113745.922500", "113747.412500", "113748.902500", "113750.392500", "113751.882500", "113753.372500", "113754.862500", "113756.352500", "113757.842500", "113759.332500", "113800.822500", "113802.312500", "113803.802500", "113805.292500", "113806.782500", "113808.272500", "113809.762500", "113811.252500", "113812.742500", "113814.232500", "113815.722500", "113817.212500", "113818.702500", "113820.192500", "113821.682500", "113823.172500", "113824.662500", "113826.152500", "113827.642500", "113829.132500", "113830.622500", "113832.112500", "113833.602500", "113835.092500", "113836.582500", "113838.072500", "113839.562500", "113841.052500", "113842.542500", "113844.032500", "113845.522500", "113847.012500"],
      "ContentTime": ["112932.372000", "112932.376000", "112932.379000", "112932.385000", "112932.388000", "112932.392000", "112932.395000", "112932.398000", "112932.402000", "112932.405000", "112932.408000", "112932.411000", "112932.415000", "112932.418000", "112932.421000", "112932.425000", "112932.428000", "112932.431000", "112932.435000", "112932.438000", "112932.441000", "112932.444000", "112952.330000", "112952.334000", "112952.337000", "112952.341000", "112952.344000", "112952.347000", "112952.350000", "112952.354000", "112952.357000", "112952.360000", "112952.364000", "112952.367000", "112952.370000", "112952.373000", "112952.377000", "112952.380000", "112952.383000", "112952.386000", "112952.390000", "112952.393000", "113012.329000", "113012.333000", "113012.336000", "113012.339000", "113012.342000", "113012.346000", "113012.349000", "113012.352000", "113012.356000", "113012.359000", "113012.362000", "113012.365000", "113012.369000", "113012.372000", "113012.375000", "113012.379000", "113012.382000", "113012.385000", "113012.388000", "113012.392000", "113012.395000", "113032.329000", "113032.333000", "113032.336000", "113032.339000", "113032.343000", "113032.346000", "113032.349000", "113032.352000", "113032.370000", "113032.379000", "113032.383000", "113032.386000", "113032.389000", "113032.393000", "113032.396000", "113032.399000", "113032.402000", "113032.406000", "113032.409000", "113032.412000", "113052.329000", "113052.333000", "113052.336000", "113052.339000", "113052.343000", "113052.346000", "113052.349000", "113052.353000", "113052.356000", "113052.359000", "113052.362000", "113052.366000", "113052.369000", "113052.372000", "113052.376000", "113052.379000", "113052.382000", "113052.386000", "113052.389000", "113052.392000", "113132.328000", "113132.332000", "113132.335000", "113132.339000", "113132.342000", "113132.345000", "113132.349000", "113132.352000", "113132.355000", "113132.359000", "113132.362000", "113132.366000", "113132.369000", "113132.372000", "113132.376000", "113132.379000", "113132.382000", "113132.385000", "113132.389000", "113132.392000", "113132.395000", "113132.399000", "113132.402000", "113132.405000", "113132.409000", "113132.412000", "113132.415000", "113212.329000", "113212.333000", "113212.336000", "113212.340000", "113212.343000", "113212.346000", "113212.350000", "113212.354000", "113212.357000", "113212.360000", "113212.363000", "113212.367000", "113212.370000", "113212.374000", "113212.377000", "113212.380000", "113212.384000", "113212.387000", "113212.390000", "113212.393000", "113212.397000", "113212.400000", "113212.403000", "113212.407000", "113212.410000", "113212.413000", "113212.417000", "113252.329000", "113252.333000", "113252.343000", "113252.346000", "113252.349000", "113252.353000", "113252.356000", "113252.359000", "113252.363000", "113252.366000", "113252.370000", "113252.373000", "113252.391000", "113252.394000", "113252.397000", "113252.401000", "113252.404000", "113252.407000", "113252.411000", "113252.414000", "113252.417000", "113252.421000", "113252.424000", "113252.428000", "113252.431000", "113252.434000", "113252.438000", "113332.328000", "113332.332000", "113332.335000", "113332.338000", "113332.342000", "113332.345000", "113332.349000", "113332.352000", "113332.356000", "113332.359000", "113332.362000", "113332.366000", "113332.369000", "113332.372000", "113332.376000", "113332.379000", "113332.382000", "113332.386000", "113332.389000", "113332.392000", "113332.396000", "113332.399000", "113332.402000", "113332.405000", "113332.409000", "113332.412000", "113332.415000", "113352.328000", "113352.332000", "113352.335000", "113352.339000", "113352.342000", "113352.346000", "113352.349000", "113352.352000", "113352.356000", "113352.359000", "113352.362000", "113352.366000", "113352.369000", "113432.329000", "113432.333000", "113432.336000", "113432.339000", "113432.343000", "113432.346000", "113432.350000", "113432.353000", "113432.356000", "113432.360000", "113432.363000", "113432.367000", "113432.370000", "113432.373000", "113432.377000", "113432.380000", "113432.383000", "113432.387000", "113432.390000", "113432.393000", "113432.397000", "113432.400000", "113432.404000", "113432.407000", "113432.411000", "113432.414000", "113432.417000", "113512.329000", "113512.333000", "113512.336000", "113512.340000", "113512.343000", "113512.346000", "113512.350000", "113512.353000", "113512.356000", "113512.374000", "113512.377000", "113512.380000", "113512.384000", "113512.387000", "113512.390000", "113512.394000", "113512.397000", "113512.400000", "113512.404000", "113512.407000", "113512.410000", "113512.414000", "113512.417000", "113512.420000", "113512.424000", "113512.427000", "113512.430000", "113552.328000", "113552.332000", "113552.335000", "113552.339000", "113552.342000", "113552.345000", "113552.349000", "113552.352000", "113552.356000", "113552.359000", "113552.362000", "113552.366000", "113552.369000", "113552.372000", "113552.376000", "113552.379000", "113552.382000", "113552.386000", "113552.389000", "113552.392000", "113552.395000", "113552.399000", "113552.402000", "113552.406000", "113552.409000", "113552.412000", "113552.416000", "113632.329000", "113632.333000", "113632.336000", "113632.340000", "113632.343000", "113632.346000", "113632.350000", "113632.353000", "113632.356000", "113632.360000", "113632.363000", "113632.367000", "113632.370000", "113632.373000", "113632.377000", "113632.380000", "113632.383000", "113632.387000", "113632.390000", "113632.394000", "113632.397000", "113632.400000", "113632.404000", "113632.407000", "113632.410000", "113632.413000", "113632.417000", "113712.329000", "113712.333000", "113712.336000", "113712.339000", "113712.343000", "113712.346000", "113712.350000", "113712.353000", "113712.357000", "113712.360000", "113712.363000", "113712.367000", "113712.370000", "113712.373000", "113712.377000", "113712.380000", "113712.383000", "113712.386000", "113712.390000", "113712.394000", "113712.398000", "113712.415000", "113712.424000", "113712.428000", "113712.435000", "113712.439000", "113752.328000", "113752.332000", "113752.335000", "113752.339000", "113752.342000", "113752.345000", "113752.349000", "113752.352000", "113752.356000", "113752.359000", "113752.362000", "113752.366000", "113752.369000", "113752.373000", "113752.376000", "113752.379000", "113752.383000", "113752.386000", "113752.390000", "113752.393000", "113752.396000", "113752.400000", "113752.403000", "113752.406000", "113752.410000", "113752.413000", "113752.416000", "113832.328000", "113832.332000", "113832.335000", "113832.339000", "113832.342000", "113832.345000", "113832.349000", "113832.352000", "113832.355000", "113832.359000", "113832.362000", "113832.365000", "113832.369000", "113832.372000", "113832.376000", "113832.379000", "113832.382000", "113832.386000", "113832.390000", "113832.394000", "113832.397000", "113832.400000", "113832.404000", "113832.407000", "113832.410000", "113832.413000", "113832.417000", "113849.777000", "113849.780000", "113849.784000", "113849.787000", "113849.791000", "113849.794000", "113849.797000", "113849.801000", "113849.804000", "113849.807000", "113849.811000", "113849.814000"],
      "InstanceCreationTime": ["112932.372000", "112932.376000", "112932.379000", "112932.385000", "112932.388000", "112932.392000", "112932.395000", "112932.398000", "112932.402000", "112932.405000", "112932.408000", "112932.411000", "112932.415000", "112932.418000", "112932.421000", "112932.425000", "112932.428000", "112932.431000", "112932.435000", "112932.438000", "112932.441000", "112932.444000", "112952.330000", "112952.334000", "112952.337000", "112952.341000", "112952.344000", "112952.347000", "112952.350000", "112952.354000", "112952.357000", "112952.360000", "112952.364000", "112952.367000", "112952.370000", "112952.373000", "112952.377000", "112952.380000", "112952.383000", "112952.386000", "112952.390000", "112952.393000", "113012.329000", "113012.333000", "113012.336000", "113012.339000", "113012.342000", "113012.346000", "113012.349000", "113012.352000", "113012.356000", "113012.359000", "113012.362000", "113012.365000", "113012.369000", "113012.372000", "113012.375000", "113012.379000", "113012.382000", "113012.385000", "113012.388000", "113012.392000", "113012.395000", "113032.329000", "113032.333000", "113032.336000", "113032.339000", "113032.343000", "113032.346000", "113032.349000", "113032.352000", "113032.370000", "113032.379000", "113032.383000", "113032.386000", "113032.389000", "113032.393000", "113032.396000", "113032.399000", "113032.402000", "113032.406000", "113032.409000", "113032.412000", "113052.329000", "113052.333000", "113052.336000", "113052.339000", "113052.343000", "113052.346000", "113052.349000", "113052.353000", "113052.356000", "113052.359000", "113052.362000", "113052.366000", "113052.369000", "113052.372000", "113052.376000", "113052.379000", "113052.382000", "113052.386000", "113052.389000", "113052.392000", "113132.328000", "113132.332000", "113132.335000", "113132.339000", "113132.342000", "113132.345000", "113132.349000", "113132.352000", "113132.355000", "113132.359000", "113132.362000", "113132.366000", "113132.369000", "113132.372000", "113132.376000", "113132.379000", "113132.382000", "113132.385000", "113132.389000", "113132.392000", "113132.395000", "113132.399000", "113132.402000", "113132.405000", "113132.409000", "113132.412000", "113132.415000", "113212.329000", "113212.333000", "113212.336000", "113212.340000", "113212.343000", "113212.346000", "113212.350000", "113212.354000", "113212.357000", "113212.360000", "113212.363000", "113212.367000", "113212.370000", "113212.374000", "113212.377000", "113212.380000", "113212.384000", "113212.387000", "113212.390000", "113212.393000", "113212.397000", "113212.400000", "113212.403000", "113212.407000", "113212.410000", "113212.413000", "113212.417000", "113252.329000", "113252.333000", "113252.343000", "113252.346000", "113252.349000", "113252.353000", "113252.356000", "113252.359000", "113252.363000", "113252.366000", "113252.370000", "113252.373000", "113252.391000", "113252.394000", "113252.397000", "113252.401000", "113252.404000", "113252.407000", "113252.411000", "113252.414000", "113252.417000", "113252.421000", "113252.424000", "113252.428000", "113252.431000", "113252.434000", "113252.438000", "113332.328000", "113332.332000", "113332.335000", "113332.338000", "113332.342000", "113332.345000", "113332.349000", "113332.352000", "113332.356000", "113332.359000", "113332.362000", "113332.366000", "113332.369000", "113332.372000", "113332.376000", "113332.379000", "113332.382000", "113332.386000", "113332.389000", "113332.392000", "113332.396000", "113332.399000", "113332.402000", "113332.405000", "113332.409000", "113332.412000", "113332.415000", "113352.328000", "113352.332000", "113352.335000", "113352.339000", "113352.342000", "113352.346000", "113352.349000", "113352.352000", "113352.356000", "113352.359000", "113352.362000", "113352.366000", "113352.369000", "113432.329000", "113432.333000", "113432.336000", "113432.339000", "113432.343000", "113432.346000", "113432.350000", "113432.353000", "113432.356000", "113432.360000", "113432.363000", "113432.367000", "113432.370000", "113432.373000", "113432.377000", "113432.380000", "113432.383000", "113432.387000", "113432.390000", "113432.393000", "113432.397000", "113432.400000", "113432.404000", "113432.407000", "113432.411000", "113432.414000", "113432.417000", "113512.329000", "113512.333000", "113512.336000", "113512.340000", "113512.343000", "113512.346000", "113512.350000", "113512.353000", "113512.356000", "113512.374000", "113512.377000", "113512.380000", "113512.384000", "113512.387000", "113512.390000", "113512.394000", "113512.397000", "113512.400000", "113512.404000", "113512.407000", "113512.410000", "113512.414000", "113512.417000", "113512.420000", "113512.424000", "113512.427000", "113512.430000", "113552.328000", "113552.332000", "113552.335000", "113552.339000", "113552.342000", "113552.345000", "113552.349000", "113552.352000", "113552.356000", "113552.359000", "113552.362000", "113552.366000", "113552.369000", "113552.372000", "113552.376000", "113552.379000", "113552.382000", "113552.386000", "113552.389000", "113552.392000", "113552.395000", "113552.399000", "113552.402000", "113552.406000", "113552.409000", "113552.412000", "113552.416000", "113632.329000", "113632.333000", "113632.336000", "113632.340000", "113632.343000", "113632.346000", "113632.350000", "113632.353000", "113632.356000", "113632.360000", "113632.363000", "113632.367000", "113632.370000", "113632.373000", "113632.377000", "113632.380000", "113632.383000", "113632.387000", "113632.390000", "113632.394000", "113632.397000", "113632.400000", "113632.404000", "113632.407000", "113632.410000", "113632.413000", "113632.417000", "113712.329000", "113712.333000", "113712.336000", "113712.339000", "113712.343000", "113712.346000", "113712.350000", "113712.353000", "113712.357000", "113712.360000", "113712.363000", "113712.367000", "113712.370000", "113712.373000", "113712.377000", "113712.380000", "113712.383000", "113712.386000", "113712.390000", "113712.394000", "113712.398000", "113712.415000", "113712.424000", "113712.428000", "113712.435000", "113712.439000", "113752.328000", "113752.332000", "113752.335000", "113752.339000", "113752.342000", "113752.345000", "113752.349000", "113752.352000", "113752.356000", "113752.359000", "113752.362000", "113752.366000", "113752.369000", "113752.373000", "113752.376000", "113752.379000", "113752.383000", "113752.386000", "113752.390000", "113752.393000", "113752.396000", "113752.400000", "113752.403000", "113752.406000", "113752.410000", "113752.413000", "113752.416000", "113832.328000", "113832.332000", "113832.335000", "113832.339000", "113832.342000", "113832.345000", "113832.349000", "113832.352000", "113832.355000", "113832.359000", "113832.362000", "113832.365000", "113832.369000", "113832.372000", "113832.376000", "113832.379000", "113832.382000", "113832.386000", "113832.390000", "113832.394000", "113832.397000", "113832.400000", "113832.404000", "113832.407000", "113832.410000", "113832.413000", "113832.417000", "113849.777000", "113849.780000", "113849.784000", "113849.787000", "113849.791000", "113849.794000", "113849.797000", "113849.801000", "113849.804000", "113849.807000", "113849.811000", "113849.814000"],
