{
  "AcquisitionMatrixPE": 104,
  "AcquisitionNumber": 1,
  "AcquisitionTime": "15:53:2.672500",
  "BandwidthPerPixelPhaseEncode": 17.17,
  "BaseResolution": 104,
  "BodyPartExamined": "BRAIN",
  "CoilCombinationMethod": "Sum of Squares",
  "ConsistencyInfo": "N4_VE11C_LATEST_20160120",
  "ConversionSoftware": "dcm2niix",
  "ConversionSoftwareVersion": "v1.0.20211006",
  "DerivedVendorReportedEchoSpacing": 0.000560011,
  "DeviceSerialNumber": "167006",
  "DwellTime": 2.1e-06,
  "EchoTime": 0.037,
  "EchoTime1": 0.037,
  "EchoTime2": 0.001,
  "EchoTrainLength": 104,
  "EffectiveEchoSpacing": 0.000560011,
  "FlipAngle": 52,
  "HeudiconvVersion": "0.10.0",
  "ImageComments": "Unaliased MB4/PE3/LB",
  "ImageOrientationPatientDICOM": [0.99622, 0.0555546, 0.0667827, -0.0276529, 0.931591, -0.362456],
  "ImageOrientationText": "Tra>Cor(-21.1)>Sag(4.7)",
  "ImageType": [
    "ORIGINAL",
    "PRIMARY",
    "P",
    "MB",
    "ND",
    "MOSAIC",
    "PHASE"
],
  "ImagingFrequency": 123.259,
  "InPlanePhaseEncodingDirectionDICOM": "COL",
  "InstitutionAddress": "Chemin Queen-Mary 4565,Montreal,District,CA,H3W 1W5",
  "InstitutionName": "IUGM",
  "InstitutionalDepartmentName": "Department",
  "MRAcquisitionType": "2D",
  "MagneticFieldStrength": 3,
  "Manufacturer": "Siemens",
  "ManufacturersModelName": "Prisma_fit",
  "MatrixCoilMode": "SENSE",
  "Modality": "MR",
  "MultibandAccelerationFactor": 4,
  "PartialFourier": 1,
  "PatientPosition": "HFS",
  "PercentPhaseFOV": 100,
  "PercentSampling": 100,
  "PhaseEncodingDirection": "j",
  "PhaseEncodingSteps": 104,
  "PhaseResolution": 1,
  "PixelBandwidth": 2290,
  "ProcedureStepDescription": "games^mario",
  "ProtocolName": "func_task-mario_run-03",
  "PulseSequenceDetails": "%CustomerSeq%\\cmrr_mbep2d_bold",
  "ReceiveCoilActiveElements": "HC1-7;NC1,2",
  "ReceiveCoilName": "HeadNeck_64",
  "ReconMatrixPE": 104,
  "RepetitionTime": 1.49,
  "SAR": 0.0717892,
  "ScanOptions": "FS",
  "ScanningSequence": "EP",
  "SequenceName": "epfid2d1_104",
  "SequenceVariant": "SK\\SS",
  "SeriesDescription": "func_task-mario_run-03",
  "SeriesNumber": 17,
  "ShimSetting": [644, -7154, -8844, 636, 101, 146, -8, -16],
  "SliceThickness": 2,
  "SliceTiming": [0, 0.785, 0.0975, 0.8825, 0.195, 0.98, 0.295, 1.0775, 0.3925, 1.175, 0.49, 1.275, 0.5875, 1.3725, 0.685, 0, 0.785, 0.0975, 0.8825, 0.195, 0.98, 0.295, 1.0775, 0.3925, 1.175, 0.49, 1.275, 0.5875, 1.3725, 0.685, 0, 0.785, 0.0975, 0.8825, 0.195, 0.98, 0.295, 1.0775, 0.3925, 1.175, 0.49, 1.275, 0.5875, 1.3725, 0.685, 0, 0.785, 0.0975, 0.8825, 0.195, 0.98, 0.295, 1.0775, 0.3925, 1.175, 0.49, 1.275, 0.5875, 1.3725, 0.685],
  "SoftwareVersions": "syngo MR E11",
  "SpacingBetweenSlices": 2,
  "StationName": "MRC35049",
  "TaskName": "mario",
  "TotalReadoutTime": 0.0576811,
  "TxRefAmp": 323.19,
  "WipMemBlock": "8c8f31b9-0ca5-4d7e-9002-1ea2b2ba5535||Sequence: R016 ve11c/master r/e634e98; Dec 19 2017 11:00:25 by eja",
  "dcmmeta_affine": [
    [-1.9924395084381104, -0.05530581623315811, 0.16470037400722504, 105.2868423461914],
    [-0.11110913753509521, 1.863181471824646, -0.7184772491455078, -53.57656478881836],
    [0.13356535136699677, 0.7249110341072083, 1.859210729598999, -75.32479095458984],
    [0.0, 0.0, 0.0, 1.0]
],
  "dcmmeta_reorient_transform": [
    [0.0, -1.0, 0.0, 103.0],
    [1.0, 0.0, 0.0, 0.0],
    [0.0, 0.0, 1.0, 0.0],
    [0.0, 0.0, 0.0, 1.0]
],
  "dcmmeta_shape": [104, 104, 60, 424],
  "dcmmeta_slice_dim": 2,
  "dcmmeta_version": 0.6,
  "global": {
    "const": {
      "AcquisitionMatrix": [104, 0, 0, 104],
      "AngioFlag": "N",
      "BitsAllocated": 16,
      "BitsStored": 16,
      "BodyPartExamined": "BRAIN",
      "Columns": 832,
      "EchoNumbers": 1,
      "EchoTime": 37.0,
      "EchoTrainLength": 104,
      "FlipAngle": 52.0,
      "HighBit": 15,
      "ImageOrientationPatient": [0.99621973691444, 0.05555456942053, 0.06678267438964, -0.0276529085247, 0.93159074144085, -0.3624555243224],
      "ImagePositionPatient": [-804.70699553221, -856.97291316304, 214.59087941187],
      "ImageType": [
        "ORIGINAL",
        "PRIMARY",
        "P",
        "MB",
        "ND",
        "MOSAIC"
],
      "ImagedNucleus": "1H",
      "ImagingFrequency": 123.258884,
      "InPlanePhaseEncodingDirection": "COL",
      "LargestImagePixelValue": 4095,
      "MRAcquisitionType": "2D",
      "MagneticFieldStrength": 3.0,
      "Manufacturer": "SIEMENS",
      "ManufacturerModelName": "Prisma_fit",
      "Modality": "MR",
      "NumberOfAverages": 1.0,
      "NumberOfPhaseEncodingSteps": 104,
      "PercentPhaseFieldOfView": 100.0,
      "PercentSampling": 100.0,
      "PerformedProcedureStepStartTime": "142512.260000",
      "PhotometricInterpretation": "MONOCHROME2",
      "PixelBandwidth": 2290.0,
      "PixelRepresentation": 0,
      "PixelSpacing": [2.0, 2.0],
      "ProtocolName": "func_task-mario_run-03",
      "RepetitionTime": 1490.0,
      "RescaleIntercept": -4096.0,
      "RescaleSlope": 2.0,
      "RescaleType": "US",
      "Rows": 832,
      "SAR": 0.07178916673227,
      "SamplesPerPixel": 1,
      "ScanOptions": "FS",
      "ScanningSequence": "EP",
      "SequenceName": "epfid2d1_104",
      "SequenceVariant": [
        "SK",
        "SS"
],
      "SeriesDescription": "func_task-mario_run-03",
      "SeriesNumber": 17,
      "SeriesTime": "155420.522000",
      "SliceLocation": -42.105167422713,
      "SliceThickness": 2.0,
      "SmallestImagePixelValue": 0,
      "SoftwareVersions": "syngo MR E11",
      "SpacingBetweenSlices": 2.0000000479459,
      "SpecificCharacterSet": "ISO_IR 100",
      "StudyID": "1",
      "StudyTime": "142512.180000",
      "TransmitCoilName": "Body",
      "VariableFlipAngleFlag": "N",
      "WindowCenterWidthExplanation": "Algo1",
      "dBdt": 0.0},
    "slices": {}
  },
  "time": {
    "samples": {
      "AcquisitionNumber": [1, 2, 3, 4, 5, 6, 7, 8, 9, 10, 11, 12, 13, 14, 15, 16, 17, 18, 19, 20, 21, 22, 23, 24, 25, 26, 27, 28, 29, 30, 31, 32, 33, 34, 35, 36, 37, 38, 39, 40, 41, 42, 43, 44, 45, 46, 47, 48, 49, 50, 51, 52, 53, 54, 55, 56, 57, 58, 59, 60, 61, 62, 63, 64, 65, 66, 67, 68, 69, 70, 71, 72, 73, 74, 75, 76, 77, 78, 79, 80, 81, 82, 83, 84, 85, 86, 87, 88, 89, 90, 91, 92, 93, 94, 95, 96, 97, 98, 99, 100, 101, 102, 103, 104, 105, 106, 107, 108, 109, 110, 111, 112, 113, 114, 115, 116, 117, 118, 119, 120, 121, 122, 123, 124, 125, 126, 127, 128, 129, 130, 131, 132, 133, 134, 135, 136, 137, 138, 139, 140, 141, 142, 143, 144, 145, 146, 147, 148, 149, 150, 151, 152, 153, 154, 155, 156, 157, 158, 159, 160, 161, 162, 163, 164, 165, 166, 167, 168, 169, 170, 171, 172, 173, 174, 175, 176, 177, 178, 179, 180, 181, 182, 183, 184, 185, 186, 187, 188, 189, 190, 191, 192, 193, 194, 195, 196, 197, 198, 199, 200, 201, 202, 203, 204, 205, 206, 207, 208, 209, 210, 211, 212, 213, 214, 215, 216, 217, 218, 219, 220, 221, 222, 223, 224, 225, 226, 227, 228, 229, 230, 231, 232, 233, 234, 235, 236, 237, 238, 239, 240, 241, 242, 243, 244, 245, 246, 247, 248, 249, 250, 251, 252, 253, 254, 255, 256, 257, 258, 259, 260, 261, 262, 263, 264, 265, 266, 267, 268, 269, 270, 271, 272, 273, 274, 275, 276, 277, 278, 279, 280, 281, 282, 283, 284, 285, 286, 287, 288, 289, 290, 291, 292, 293, 294, 295, 296, 297, 298, 299, 300, 301, 302, 303, 304, 305, 306, 307, 308, 309, 310, 311, 312, 313, 314, 315, 316, 317, 318, 319, 320, 321, 322, 323, 324, 325, 326, 327, 328, 329, 330, 331, 332, 333, 334, 335, 336, 337, 338, 339, 340, 341, 342, 343, 344, 345, 346, 347, 348, 349, 350, 351, 352, 353, 354, 355, 356, 357, 358, 359, 360, 361, 362, 363, 364, 365, 366, 367, 368, 369, 370, 371, 372, 373, 374, 375, 376, 377, 378, 379, 380, 381, 382, 383, 384, 385, 386, 387, 388, 389, 390, 391, 392, 393, 394, 395, 396, 397, 398, 399, 400, 401, 402, 403, 404, 405, 406, 407, 408, 409, 410, 411, 412, 413, 414, 415, 416, 417, 418, 419, 420, 421, 422, 423, 424],
      "AcquisitionTime": ["155302.672500", "155304.162500", "155305.652500", "155307.142500", "155308.632500", "155310.122500", "155311.612500", "155313.102500", "155314.592500", "155316.082500", "155317.572500", "155319.062500", "155320.552500", "155322.042500", "155323.532500", "155325.022500", "155326.512500", "155328.002500", "155329.492500", "155330.982500", "155332.472500", "155333.962500", "155335.452500", "155336.942500", "155338.432500", "155339.922500", "155341.412500", "155342.902500", "155344.392500", "155345.882500", "155347.372500", "155348.862500", "155350.352500", "155351.842500", "155353.332500", "155354.822500", "155356.312500", "155357.802500", "155359.292500", "155400.782500", "155402.272500", "155403.762500", "155405.252500", "155406.742500", "155408.232500", "155409.722500", "155411.212500", "155412.702500", "155414.192500", "155415.682500", "155417.172500", "155418.662500", "155420.152500", "155421.642500", "155423.132500", "155424.622500", "155426.112500", "155427.602500", "155429.092500", "155430.582500", "155432.072500", "155433.562500", "155435.052500", "155436.542500", "155438.032500", "155439.522500", "155441.012500", "155442.502500", "155443.992500", "155445.482500", "155446.972500", "155448.462500", "155449.952500", "155451.442500", "155452.932500", "155454.422500", "155455.912500", "155457.402500", "155458.892500", "155500.382500", "155501.872500", "155503.362500", "155504.852500", "155506.342500", "155507.832500", "155509.322500", "155510.812500", "155512.302500", "155513.792500", "155515.282500", "155516.772500", "155518.262500", "155519.752500", "155521.242500", "155522.732500", "155524.222500", "155525.712500", "155527.202500", "155528.692500", "155530.182500", "155531.672500", "155533.162500", "155534.652500", "155536.142500", "155537.632500", "155539.122500", "155540.612500", "155542.102500", "155543.592500", "155545.082500", "155546.572500", "155548.062500", "155549.552500", "155551.042500", "155552.532500", "155554.022500", "155555.512500", "155557.002500", "155558.492500", "155559.982500", "155601.472500", "155602.962500", "155604.452500", "155605.942500", "155607.432500", "155608.922500", "155610.412500", "155611.902500", "155613.392500", "155614.882500", "155616.372500", "155617.862500", "155619.352500", "155620.842500", "155622.332500", "155623.822500", "155625.312500", "155626.802500", "155628.292500", "155629.782500", "155631.272500", "155632.762500", "155634.252500", "155635.742500", "155637.232500", "155638.722500", "155640.212500", "155641.702500", "155643.192500", "155644.682500", "155646.172500", "155647.662500", "155649.152500", "155650.642500", "155652.132500", "155653.622500", "155655.112500", "155656.602500", "155658.092500", "155659.582500", "155701.072500", "155702.562500", "155704.052500", "155705.542500", "155707.032500", "155708.522500", "155710.012500", "155711.502500", "155712.992500", "155714.482500", "155715.972500", "155717.462500", "155718.952500", "155720.442500", "155721.932500", "155723.422500", "155724.912500", "155726.402500", "155727.892500", "155729.382500", "155730.872500", "155732.362500", "155733.852500", "155735.342500", "155736.832500", "155738.322500", "155739.812500", "155741.302500", "155742.792500", "155744.282500", "155745.772500", "155747.262500", "155748.752500", "155750.242500", "155751.732500", "155753.222500", "155754.712500", "155756.202500", "155757.692500", "155759.182500", "155800.672500", "155802.162500", "155803.652500", "155805.142500", "155806.632500", "155808.122500", "155809.612500", "155811.102500", "155812.592500", "155814.082500", "155815.572500", "155817.062500", "155818.552500", "155820.042500", "155821.532500", "155823.022500", "155824.512500", "155826.002500", "155827.492500", "155828.982500", "155830.472500", "155831.962500", "155833.452500", "155834.942500", "155836.432500", "155837.922500", "155839.412500", "155840.902500", "155842.392500", "155843.882500", "155845.372500", "155846.862500", "155848.352500", "155849.842500", "155851.332500", "155852.822500", "155854.312500", "155855.802500", "155857.292500", "155858.782500", "155900.272500", "155901.762500", "155903.252500", "155904.742500", "155906.232500", "155907.722500", "155909.212500", "155910.702500", "155912.192500", "155913.682500", "155915.172500", "155916.662500", "155918.152500", "155919.642500", "155921.132500", "155922.622500", "155924.112500", "155925.602500", "155927.092500", "155928.582500", "155930.072500", "155931.562500", "155933.052500", "155934.542500", "155936.032500", "155937.522500", "155939.012500", "155940.502500", "155941.992500", "155943.482500", "155944.972500", "155946.462500", "155947.952500", "155949.442500", "155950.932500", "155952.422500", "155953.912500", "155955.402500", "155956.892500", "155958.382500", "155959.872500", "160001.362500", "160002.852500", "160004.342500", "160005.832500", "160007.322500", "160008.812500", "160010.302500", "160011.792500", "160013.282500", "160014.772500", "160016.262500", "160017.752500", "160019.242500", "160020.732500", "160022.222500", "160023.712500", "160025.202500", "160026.692500", "160028.182500", "160029.672500", "160031.162500", "160032.652500", "160034.142500", "160035.632500", "160037.122500", "160038.612500", "160040.102500", "160041.592500", "160043.082500", "160044.572500", "160046.062500", "160047.552500", "160049.042500", "160050.532500", "160052.022500", "160053.512500", "160055.002500", "160056.492500", "160057.982500", "160059.472500", "160100.962500", "160102.452500", "160103.942500", "160105.432500", "160106.922500", "160108.412500", "160109.902500", "160111.392500", "160112.882500", "160114.372500", "160115.862500", "160117.352500", "160118.842500", "160120.332500", "160121.822500", "160123.312500", "160124.802500", "160126.292500", "160127.782500", "160129.272500", "160130.762500", "160132.252500", "160133.742500", "160135.232500", "160136.722500", "160138.212500", "160139.702500", "160141.192500", "160142.682500", "160144.172500", "160145.662500", "160147.152500", "160148.642500", "160150.132500", "160151.622500", "160153.112500", "160154.602500", "160156.092500", "160157.582500", "160159.072500", "160200.562500", "160202.052500", "160203.542500", "160205.032500", "160206.522500", "160208.012500", "160209.502500", "160210.992500", "160212.482500", "160213.972500", "160215.462500", "160216.952500", "160218.442500", "160219.932500", "160221.422500", "160222.912500", "160224.402500", "160225.892500", "160227.382500", "160228.872500", "160230.362500", "160231.852500", "160233.342500", "160234.832500", "160236.322500", "160237.812500", "160239.302500", "160240.792500", "160242.282500", "160243.772500", "160245.262500", "160246.752500", "160248.242500", "160249.732500", "160251.222500", "160252.712500", "160254.202500", "160255.692500", "160257.182500", "160258.672500", "160300.162500", "160301.652500", "160303.142500", "160304.632500", "160306.122500", "160307.612500", "160309.102500", "160310.592500", "160312.082500", "160313.572500", "160315.062500", "160316.552500", "160318.042500", "160319.532500", "160321.022500", "160322.512500", "160324.002500", "160325.492500", "160326.982500", "160328.472500", "160329.962500", "160331.452500", "160332.942500"],
      "ContentTime": ["155420.524000", "155420.527000", "155420.529000", "155420.532000", "155420.534000", "155420.537000", "155420.540000", "155420.543000", "155420.545000", "155420.548000", "155420.550000", "155420.553000", "155420.555000", "155420.558000", "155420.560000", "155420.563000", "155420.565000", "155420.568000", "155420.570000", "155420.573000", "155440.482000", "155440.486000", "155440.488000", "155440.491000", "155440.494000", "155440.496000", "155440.500000", "155440.503000", "155440.505000", "155440.508000", "155440.510000", "155440.513000", "155440.515000", "155440.518000", "155440.520000", "155440.523000", "155440.525000", "155440.528000", "155440.530000", "155440.533000", "155500.481000", "155500.484000", "155500.486000", "155500.489000", "155500.491000", "155500.493000", "155500.496000", "155500.498000", "155500.501000", "155500.503000", "155500.506000", "155500.508000", "155500.511000", "155500.513000", "155500.516000", "155500.518000", "155500.521000", "155500.523000", "155500.526000", "155500.528000", "155500.530000", "155520.868000", "155520.870000", "155520.873000", "155520.875000", "155520.878000", "155520.880000", "155520.883000", "155520.885000", "155520.888000", "155520.890000", "155520.893000", "155520.895000", "155520.898000", "155520.900000", "155520.902000", "155520.905000", "155520.907000", "155520.910000", "155520.912000", "155520.915000", "155540.479000", "155540.482000", "155540.484000", "155540.487000", "155540.489000", "155540.492000", "155540.494000", "155540.497000", "155540.499000", "155540.502000", "155540.504000", "155540.507000", "155540.509000", "155540.512000", "155540.514000", "155540.517000", "155540.519000", "155540.522000", "155540.524000", "155540.526000", "155620.521000", "155620.524000", "155620.526000", "155620.529000", "155620.531000", "155620.534000", "155620.536000", "155620.539000", "155620.541000", "155620.544000", "155620.546000", "155620.549000", "155620.551000", "155620.554000", "155620.556000", "155620.559000", "155620.561000", "155620.564000", "155620.566000", "155620.569000", "155620.571000", "155620.574000", "155620.576000", "155620.579000", "155620.581000", "155620.584000", "155620.586000", "155620.589000", "155620.591000", "155620.594000", "155620.596000", "155700.507000", "155700.510000", "155700.512000", "155700.514000", "155700.517000", "155700.520000", "155700.522000", "155700.525000", "155700.527000", "155700.530000", "155700.532000", "155700.535000", "155700.537000", "155700.540000", "155700.542000", "155700.545000", "155700.547000", "155700.549000", "155700.552000", "155700.554000", "155700.557000", "155700.559000", "155700.562000", "155700.564000", "155700.567000", "155700.570000", "155700.572000", "155720.476000", "155720.479000", "155720.481000", "155720.484000", "155720.486000", "155720.489000", "155720.491000", "155720.494000", "155720.496000", "155720.499000", "155720.501000", "155720.504000", "155720.506000", "155800.507000", "155800.510000", "155800.512000", "155800.515000", "155800.517000", "155800.520000", "155800.522000", "155800.525000", "155800.527000", "155800.530000", "155800.532000", "155800.535000", "155800.537000", "155800.540000", "155800.542000", "155800.545000", "155800.547000", "155800.550000", "155800.552000", "155800.555000", "155800.557000", "155800.560000", "155800.562000", "155800.565000", "155800.567000", "155800.570000", "155800.572000", "155840.515000", "155840.517000", "155840.520000", "155840.522000", "155840.525000", "155840.527000", "155840.530000", "155840.532000", "155840.535000", "155840.537000", "155840.540000", "155840.542000", "155840.545000", "155840.547000", "155840.550000", "155840.552000", "155840.555000", "155840.557000", "155840.560000", "155840.562000", "155840.565000", "155840.567000", "155840.570000", "155840.572000", "155840.575000", "155840.577000", "155840.580000", "155920.506000", "155920.509000", "155920.512000", "155920.520000", "155920.523000", "155920.525000", "155920.528000", "155920.530000", "155920.533000", "155920.535000", "155920.538000", "155920.540000", "155920.543000", "155920.545000", "155920.548000", "155920.550000", "155920.553000", "155920.555000", "155920.558000", "155920.560000", "155920.562000", "155920.565000", "155920.567000", "155920.570000", "155920.573000", "155920.575000", "155920.578000", "160000.520000", "160000.523000", "160000.525000", "160000.528000", "160000.530000", "160000.533000", "160000.535000", "160000.538000", "160000.540000", "160000.543000", "160000.545000", "160000.548000", "160000.550000", "160000.553000", "160000.555000", "160000.558000", "160000.560000", "160000.563000", "160000.565000", "160000.568000", "160000.570000", "160000.573000", "160000.575000", "160000.578000", "160000.580000", "160000.583000", "160000.585000", "160040.511000", "160040.514000", "160040.517000", "160040.520000", "160040.522000", "160040.525000", "160040.528000", "160040.531000", "160040.534000", "160040.536000", "160040.539000", "160040.541000", "160040.544000", "160040.546000", "160040.549000", "160040.551000", "160040.554000", "160040.557000", "160040.559000", "160040.562000", "160040.564000", "160040.566000", "160040.569000", "160040.572000", "160040.574000", "160040.577000", "160120.512000", "160120.515000", "160120.518000", "160120.520000", "160120.523000", "160120.525000", "160120.528000", "160120.530000", "160120.533000", "160120.535000", "160120.538000", "160120.540000", "160120.543000", "160120.545000", "160120.548000", "160120.550000", "160120.553000", "160120.555000", "160120.558000", "160120.560000", "160120.563000", "160120.565000", "160120.568000", "160120.570000", "160120.573000", "160120.575000", "160120.578000", "160200.509000", "160200.512000", "160200.514000", "160200.517000", "160200.519000", "160200.522000", "160200.524000", "160200.527000", "160200.529000", "160200.532000", "160200.534000", "160200.537000", "160200.539000", "160200.542000", "160200.544000", "160200.547000", "160200.549000", "160200.552000", "160200.554000", "160200.557000", "160200.559000", "160200.562000", "160200.564000", "160200.567000", "160200.569000", "160200.572000", "160200.574000", "160240.506000", "160240.508000", "160240.511000", "160240.513000", "160240.516000", "160240.518000", "160240.521000", "160240.523000", "160240.526000", "160240.528000", "160240.531000", "160240.533000", "160240.536000", "160240.538000", "160240.541000", "160240.543000", "160240.546000", "160240.548000", "160240.551000", "160240.553000", "160240.556000", "160240.558000", "160240.561000", "160240.563000", "160240.566000", "160240.568000", "160240.571000", "160320.509000", "160320.512000", "160320.514000", "160320.517000", "160320.519000", "160320.522000", "160320.524000", "160320.527000", "160320.529000", "160320.532000", "160320.534000", "160320.537000", "160320.539000", "160320.542000", "160320.544000", "160320.547000", "160320.549000", "160320.552000", "160320.554000", "160320.557000", "160320.559000", "160320.562000", "160320.564000", "160320.567000", "160320.569000", "160320.572000", "160320.574000", "160334.990000", "160334.993000", "160334.996000", "160334.998000", "160335.002000", "160335.004000", "160335.007000", "160335.009000", "160335.012000", "160335.014000"],
      "InstanceCreationTime": ["155420.524000", "155420.527000", "155420.529000", "155420.532000", "155420.534000", "155420.537000", "155420.540000", "155420.543000", "155420.545000", "155420.548000", "155420.550000", "155420.553000", "155420.555000", "155420.558000", "155420.560000", "155420.563000", "155420.565000", "155420.568000", "155420.570000", "155420.573000", "155440.482000", "155440.486000", "155440.488000", "155440.491000", "155440.494000", "155440.496000", "155440.500000", "155440.503000", "155440.505000", "155440.508000", "155440.510000", "155440.513000", "155440.515000", "155440.518000", "155440.520000", "155440.523000", "155440.525000", "155440.528000", "155440.530000", "155440.533000", "155500.481000", "155500.484000", "155500.486000", "155500.489000", "155500.491000", "155500.493000", "155500.496000", "155500.498000", "155500.501000", "155500.503000", "155500.506000", "155500.508000", "155500.511000", "155500.513000", "155500.516000", "155500.518000", "155500.521000", "155500.523000", "155500.526000", "155500.528000", "155500.530000", "155520.868000", "155520.870000", "155520.873000", "155520.875000", "155520.878000", "155520.880000", "155520.883000", "155520.885000", "155520.888000", "155520.890000", "155520.893000", "155520.895000", "155520.898000", "155520.900000", "155520.902000", "155520.905000", "155520.907000", "155520.910000", "155520.912000", "155520.915000", "155540.479000", "155540.482000", "155540.484000", "155540.487000", "155540.489000", "155540.492000", "155540.494000", "155540.497000", "155540.499000", "155540.502000", "155540.504000", "155540.507000", "155540.509000", "155540.512000", "155540.514000", "155540.517000", "155540.519000", "155540.522000", "155540.524000", "155540.526000", "155620.521000", "155620.524000", "155620.526000", "155620.529000", "155620.531000", "155620.534000", "155620.536000", "155620.539000", "155620.541000", "155620.544000", "155620.546000", "155620.549000", "155620.551000", "155620.554000", "155620.556000", "155620.559000", "155620.561000", "155620.564000", "155620.566000", "155620.569000", "155620.571000", "155620.574000", "155620.576000", "155620.579000", "155620.581000", "155620.584000", "155620.586000", "155620.589000", "155620.591000", "155620.594000", "155620.596000", "155700.507000", "155700.510000", "155700.512000", "155700.514000", "155700.517000", "155700.520000", "155700.522000", "155700.525000", "155700.527000", "155700.530000", "155700.532000", "155700.535000", "155700.537000", "155700.540000", "155700.542000", "155700.545000", "155700.547000", "155700.549000", "155700.552000", "155700.554000", "155700.557000", "155700.559000", "155700.562000", "155700.564000", "155700.567000", "155700.570000", "155700.572000", "155720.476000", "155720.479000", "155720.481000", "155720.484000", "155720.486000", "155720.489000", "155720.491000", "155720.494000", "155720.496000", "155720.499000", "155720.501000", "155720.504000", "155720.506000", "155800.507000", "155800.510000", "155800.512000", "155800.515000", "155800.517000", "155800.520000", "155800.522000", "155800.525000", "155800.527000", "155800.530000", "155800.532000", "155800.535000", "155800.537000", "155800.540000", "155800.542000", "155800.545000", "155800.547000", "155800.550000", "155800.552000", "155800.555000", "155800.557000", "155800.560000", "155800.562000", "155800.565000", "155800.567000", "155800.570000", "155800.572000", "155840.515000", "155840.517000", "155840.520000", "155840.522000", "155840.525000", "155840.527000", "155840.530000", "155840.532000", "155840.535000", "155840.537000", "155840.540000", "155840.542000", "155840.545000", "155840.547000", "155840.550000", "155840.552000", "155840.555000", "155840.557000", "155840.560000", "155840.562000", "155840.565000", "155840.567000", "155840.570000", "155840.572000", "155840.575000", "155840.577000", "155840.580000", "155920.506000", "155920.509000", "155920.512000", "155920.520000", "155920.523000", "155920.525000", "155920.528000", "155920.530000", "155920.533000", "155920.535000", "155920.538000", "155920.540000", "155920.543000", "155920.545000", "155920.548000", "155920.550000", "155920.553000", "155920.555000", "155920.558000", "155920.560000", "155920.562000", "155920.565000", "155920.567000", "155920.570000", "155920.573000", "155920.575000", "155920.578000", "160000.520000", "160000.523000", "160000.525000", "160000.528000", "160000.530000", "160000.533000", "160000.535000", "160000.538000", "160000.540000", "160000.543000", "160000.545000", "160000.548000", "160000.550000", "160000.553000", "160000.555000", "160000.558000", "160000.560000", "160000.563000", "160000.565000", "160000.568000", "160000.570000", "160000.573000", "160000.575000", "160000.578000", "160000.580000", "160000.583000", "160000.585000", "160040.511000", "160040.514000", "160040.517000", "160040.520000", "160040.522000", "160040.525000", "160040.528000", "160040.531000", "160040.534000", "160040.536000", "160040.539000", "160040.541000", "160040.544000", "160040.546000", "160040.549000", "160040.551000", "160040.554000", "160040.557000", "160040.559000", "160040.562000", "160040.564000", "160040.566000", "160040.569000", "160040.572000", "160040.574000", "160040.577000", "160120.512000", "160120.515000", "160120.518000", "160120.520000", "160120.523000", "160120.525000", "160120.528000", "160120.530000", "160120.533000", "160120.535000", "160120.538000", "160120.540000", "160120.543000", "160120.545000", "160120.548000", "160120.550000", "160120.553000", "160120.555000", "160120.558000", "160120.560000", "160120.563000", "160120.565000", "160120.568000", "160120.570000", "160120.573000", "160120.575000", "160120.578000", "160200.509000", "160200.512000", "160200.514000", "160200.517000", "160200.519000", "160200.522000", "160200.524000", "160200.527000", "160200.529000", "160200.532000", "160200.534000", "160200.537000", "160200.539000", "160200.542000", "160200.544000", "160200.547000", "160200.549000", "160200.552000", "160200.554000", "160200.557000", "160200.559000", "160200.562000", "160200.564000", "160200.567000", "160200.569000", "160200.572000", "160200.574000", "160240.506000", "160240.508000", "160240.511000", "160240.513000", "160240.516000", "160240.518000", "160240.521000", "160240.523000", "160240.526000", "160240.528000", "160240.531000", "160240.533000", "160240.536000", "160240.538000", "160240.541000", "160240.543000", "160240.546000", "160240.548000", "160240.551000", "160240.553000", "160240.556000", "160240.558000", "160240.561000", "160240.563000", "160240.566000", "160240.568000", "160240.571000", "160320.509000", "160320.512000", "160320.514000", "160320.517000", "160320.519000", "160320.522000", "160320.524000", "160320.527000", "160320.529000", "160320.532000", "160320.534000", "160320.537000", "160320.539000", "160320.542000", "160320.544000", "160320.547000", "160320.549000", "160320.552000", "160320.554000", "160320.557000", "160320.559000", "160320.562000", "160320.564000", "160320.567000", "160320.569000", "160320.572000", "160320.574000", "160334.990000", "160334.993000", "160334.996000", "160334.998000", "160335.002000", "160335.004000", "160335.007000", "160335.009000", "160335.012000", "160335.014000"],
