{
  "AcquisitionMatrixPE": 104,
  "AcquisitionNumber": 1,
  "AcquisitionTime": "15:28:28.822500",
  "BandwidthPerPixelPhaseEncode": 17.17,
  "BaseResolution": 104,
  "BodyPartExamined": "BRAIN",
  "CoilCombinationMethod": "Sum of Squares",
  "ConsistencyInfo": "N4_VE11C_LATEST_20160120",
  "ConversionSoftware": "dcm2niix",
  "ConversionSoftwareVersion": "v1.0.20211006",
  "DerivedVendorReportedEchoSpacing": 0.000560011,
  "DeviceSerialNumber": "167006",
  "DwellTime": 2.1e-06,
  "EchoTime": 0.037,
  "EchoTime1": 0.037,
  "EchoTime2": 0.001,
  "EchoTrainLength": 104,
  "EffectiveEchoSpacing": 0.000560011,
  "FlipAngle": 52,
  "HeudiconvVersion": "0.10.0",
  "ImageComments": "Unaliased MB4/PE3/LB",
  "ImageOrientationPatientDICOM": [0.99622, 0.0555546, 0.0667827, -0.0276529, 0.931591, -0.362456],
  "ImageOrientationText": "Tra>Cor(-21.1)>Sag(4.7)",
  "ImageType": [
    "ORIGINAL",
    "PRIMARY",
    "P",
    "MB",
    "ND",
    "MOSAIC",
    "PHASE"
],
  "ImagingFrequency": 123.259,
  "InPlanePhaseEncodingDirectionDICOM": "COL",
  "InstitutionAddress": "Chemin Queen-Mary 4565,Montreal,District,CA,H3W 1W5",
  "InstitutionName": "IUGM",
  "InstitutionalDepartmentName": "Department",
  "MRAcquisitionType": "2D",
  "MagneticFieldStrength": 3,
  "Manufacturer": "Siemens",
  "ManufacturersModelName": "Prisma_fit",
  "MatrixCoilMode": "SENSE",
  "Modality": "MR",
  "MultibandAccelerationFactor": 4,
  "PartialFourier": 1,
  "PatientPosition": "HFS",
  "PercentPhaseFOV": 100,
  "PercentSampling": 100,
  "PhaseEncodingDirection": "j",
  "PhaseEncodingSteps": 104,
  "PhaseResolution": 1,
  "PixelBandwidth": 2290,
  "ProcedureStepDescription": "games^mario",
  "ProtocolName": "func_task-mario_run-01",
  "PulseSequenceDetails": "%CustomerSeq%\\cmrr_mbep2d_bold",
  "ReceiveCoilActiveElements": "HC1-7;NC1,2",
  "ReceiveCoilName": "HeadNeck_64",
  "ReconMatrixPE": 104,
  "RepetitionTime": 1.49,
  "SAR": 0.0717892,
  "ScanOptions": "FS",
  "ScanningSequence": "EP",
  "SequenceName": "epfid2d1_104",
  "SequenceVariant": "SK\\SS",
  "SeriesDescription": "func_task-mario_run-01",
  "SeriesNumber": 11,
  "ShimSetting": [644, -7154, -8844, 636, 101, 146, -8, -16],
  "SliceThickness": 2,
  "SliceTiming": [0, 0.785, 0.0975, 0.8825, 0.1975, 0.98, 0.295, 1.0775, 0.3925, 1.1775, 0.49, 1.275, 0.5875, 1.3725, 0.6875, 0, 0.785, 0.0975, 0.8825, 0.1975, 0.98, 0.295, 1.0775, 0.3925, 1.1775, 0.49, 1.275, 0.5875, 1.3725, 0.6875, 0, 0.785, 0.0975, 0.8825, 0.1975, 0.98, 0.295, 1.0775, 0.3925, 1.1775, 0.49, 1.275, 0.5875, 1.3725, 0.6875, 0, 0.785, 0.0975, 0.8825, 0.1975, 0.98, 0.295, 1.0775, 0.3925, 1.1775, 0.49, 1.275, 0.5875, 1.3725, 0.6875],
  "SoftwareVersions": "syngo MR E11",
  "SpacingBetweenSlices": 2,
  "StationName": "MRC35049",
  "TaskName": "mario",
  "TotalReadoutTime": 0.0576811,
  "TxRefAmp": 323.19,
  "WipMemBlock": "586b7674-2810-4eb9-aa08-56637da3e4ac||Sequence: R016 ve11c/master r/e634e98; Dec 19 2017 11:00:25 by eja",
  "dcmmeta_affine": [
    [-1.9924395084381104, -0.05530581623315811, 0.16470037400722504, 105.2868423461914],
    [-0.11110913753509521, 1.863181471824646, -0.7184772491455078, -53.57656478881836],
    [0.13356535136699677, 0.7249110341072083, 1.859210729598999, -75.32479095458984],
    [0.0, 0.0, 0.0, 1.0]
],
  "dcmmeta_reorient_transform": [
    [0.0, -1.0, 0.0, 103.0],
    [1.0, 0.0, 0.0, 0.0],
    [0.0, 0.0, 1.0, 0.0],
    [0.0, 0.0, 0.0, 1.0]
],
  "dcmmeta_shape": [104, 104, 60, 432],
  "dcmmeta_slice_dim": 2,
  "dcmmeta_version": 0.6,
  "global": {
    "const": {
      "AcquisitionMatrix": [104, 0, 0, 104],
      "AngioFlag": "N",
      "BitsAllocated": 16,
      "BitsStored": 16,
      "BodyPartExamined": "BRAIN",
      "Columns": 832,
      "EchoNumbers": 1,
      "EchoTime": 37.0,
      "EchoTrainLength": 104,
      "FlipAngle": 52.0,
      "HighBit": 15,
      "ImageOrientationPatient": [0.99621973691444, 0.05555456942053, 0.06678267438964, -0.0276529085247, 0.93159074144085, -0.3624555243224],
      "ImagePositionPatient": [-804.70699553221, -856.97291316304, 214.59087941187],
      "ImageType": [
        "ORIGINAL",
        "PRIMARY",
        "P",
        "MB",
        "ND",
        "MOSAIC"
],
      "ImagedNucleus": "1H",
      "ImagingFrequency": 123.258872,
      "InPlanePhaseEncodingDirection": "COL",
      "LargestImagePixelValue": 4095,
      "MRAcquisitionType": "2D",
      "MagneticFieldStrength": 3.0,
      "Manufacturer": "SIEMENS",
      "ManufacturerModelName": "Prisma_fit",
      "Modality": "MR",
      "NumberOfAverages": 1.0,
      "NumberOfPhaseEncodingSteps": 104,
      "PercentPhaseFieldOfView": 100.0,
      "PercentSampling": 100.0,
      "PerformedProcedureStepStartTime": "142512.260000",
      "PhotometricInterpretation": "MONOCHROME2",
      "PixelBandwidth": 2290.0,
      "PixelRepresentation": 0,
      "PixelSpacing": [2.0, 2.0],
      "ProtocolName": "func_task-mario_run-01",
      "RepetitionTime": 1490.0,
      "RescaleIntercept": -4096.0,
      "RescaleSlope": 2.0,
      "RescaleType": "US",
      "Rows": 832,
      "SAR": 0.07178916673227,
      "SamplesPerPixel": 1,
      "ScanOptions": "FS",
      "ScanningSequence": "EP",
      "SequenceName": "epfid2d1_104",
      "SequenceVariant": [
        "SK",
        "SS"
],
      "SeriesDescription": "func_task-mario_run-01",
      "SeriesNumber": 11,
      "SeriesTime": "152941.648000",
      "SliceLocation": -42.105167422713,
      "SliceThickness": 2.0,
      "SmallestImagePixelValue": 0,
      "SoftwareVersions": "syngo MR E11",
      "SpacingBetweenSlices": 2.0000000479459,
      "SpecificCharacterSet": "ISO_IR 100",
      "StudyID": "1",
      "StudyTime": "142512.180000",
      "TransmitCoilName": "Body",
      "VariableFlipAngleFlag": "N",
      "WindowCenterWidthExplanation": "Algo1",
      "dBdt": 0.0},
    "slices": {}
  },
  "time": {
    "samples": {
      "AcquisitionNumber": [1, 2, 3, 4, 5, 6, 7, 8, 9, 10, 11, 12, 13, 14, 15, 16, 17, 18, 19, 20, 21, 22, 23, 24, 25, 26, 27, 28, 29, 30, 31, 32, 33, 34, 35, 36, 37, 38, 39, 40, 41, 42, 43, 44, 45, 46, 47, 48, 49, 50, 51, 52, 53, 54, 55, 56, 57, 58, 59, 60, 61, 62, 63, 64, 65, 66, 67, 68, 69, 70, 71, 72, 73, 74, 75, 76, 77, 78, 79, 80, 81, 82, 83, 84, 85, 86, 87, 88, 89, 90, 91, 92, 93, 94, 95, 96, 97, 98, 99, 100, 101, 102, 103, 104, 105, 106, 107, 108, 109, 110, 111, 112, 113, 114, 115, 116, 117, 118, 119, 120, 121, 122, 123, 124, 125, 126, 127, 128, 129, 130, 131, 132, 133, 134, 135, 136, 137, 138, 139, 140, 141, 142, 143, 144, 145, 146, 147, 148, 149, 150, 151, 152, 153, 154, 155, 156, 157, 158, 159, 160, 161, 162, 163, 164, 165, 166, 167, 168, 169, 170, 171, 172, 173, 174, 175, 176, 177, 178, 179, 180, 181, 182, 183, 184, 185, 186, 187, 188, 189, 190, 191, 192, 193, 194, 195, 196, 197, 198, 199, 200, 201, 202, 203, 204, 205, 206, 207, 208, 209, 210, 211, 212, 213, 214, 215, 216, 217, 218, 219, 220, 221, 222, 223, 224, 225, 226, 227, 228, 229, 230, 231, 232, 233, 234, 235, 236, 237, 238, 239, 240, 241, 242, 243, 244, 245, 246, 247, 248, 249, 250, 251, 252, 253, 254, 255, 256, 257, 258, 259, 260, 261, 262, 263, 264, 265, 266, 267, 268, 269, 270, 271, 272, 273, 274, 275, 276, 277, 278, 279, 280, 281, 282, 283, 284, 285, 286, 287, 288, 289, 290, 291, 292, 293, 294, 295, 296, 297, 298, 299, 300, 301, 302, 303, 304, 305, 306, 307, 308, 309, 310, 311, 312, 313, 314, 315, 316, 317, 318, 319, 320, 321, 322, 323, 324, 325, 326, 327, 328, 329, 330, 331, 332, 333, 334, 335, 336, 337, 338, 339, 340, 341, 342, 343, 344, 345, 346, 347, 348, 349, 350, 351, 352, 353, 354, 355, 356, 357, 358, 359, 360, 361, 362, 363, 364, 365, 366, 367, 368, 369, 370, 371, 372, 373, 374, 375, 376, 377, 378, 379, 380, 381, 382, 383, 384, 385, 386, 387, 388, 389, 390, 391, 392, 393, 394, 395, 396, 397, 398, 399, 400, 401, 402, 403, 404, 405, 406, 407, 408, 409, 410, 411, 412, 413, 414, 415, 416, 417, 418, 419, 420, 421, 422, 423, 424, 425, 426, 427, 428, 429, 430, 431, 432],
      "AcquisitionTime": ["152828.822500", "152830.312500", "152831.802500", "152833.292500", "152834.782500", "152836.272500", "152837.762500", "152839.252500", "152840.742500", "152842.232500", "152843.722500", "152845.212500", "152846.702500", "152848.192500", "152849.682500", "152851.172500", "152852.662500", "152854.152500", "152855.642500", "152857.132500", "152858.622500", "152900.112500", "152901.602500", "152903.092500", "152904.582500", "152906.072500", "152907.562500", "152909.052500", "152910.542500", "152912.032500", "152913.522500", "152915.012500", "152916.502500", "152917.992500", "152919.482500", "152920.972500", "152922.462500", "152923.952500", "152925.442500", "152926.932500", "152928.422500", "152929.912500", "152931.402500", "152932.892500", "152934.382500", "152935.872500", "152937.362500", "152938.852500", "152940.342500", "152941.832500", "152943.322500", "152944.812500", "152946.302500", "152947.792500", "152949.282500", "152950.772500", "152952.262500", "152953.752500", "152955.242500", "152956.732500", "152958.222500", "152959.712500", "153001.202500", "153002.692500", "153004.182500", "153005.672500", "153007.162500", "153008.652500", "153010.142500", "153011.632500", "153013.122500", "153014.612500", "153016.102500", "153017.592500", "153019.082500", "153020.572500", "153022.062500", "153023.552500", "153025.042500", "153026.532500", "153028.022500", "153029.512500", "153031.002500", "153032.492500", "153033.982500", "153035.472500", "153036.962500", "153038.452500", "153039.942500", "153041.432500", "153042.922500", "153044.412500", "153045.902500", "153047.392500", "153048.882500", "153050.372500", "153051.862500", "153053.352500", "153054.842500", "153056.332500", "153057.822500", "153059.312500", "153100.802500", "153102.292500", "153103.782500", "153105.272500", "153106.762500", "153108.252500", "153109.742500", "153111.232500", "153112.722500", "153114.212500", "153115.702500", "153117.192500", "153118.682500", "153120.172500", "153121.662500", "153123.152500", "153124.642500", "153126.132500", "153127.622500", "153129.112500", "153130.602500", "153132.092500", "153133.582500", "153135.072500", "153136.562500", "153138.052500", "153139.542500", "153141.032500", "153142.522500", "153144.012500", "153145.502500", "153146.992500", "153148.482500", "153149.972500", "153151.462500", "153152.952500", "153154.442500", "153155.932500", "153157.422500", "153158.912500", "153200.402500", "153201.892500", "153203.382500", "153204.872500", "153206.362500", "153207.852500", "153209.342500", "153210.832500", "153212.322500", "153213.812500", "153215.302500", "153216.792500", "153218.282500", "153219.772500", "153221.262500", "153222.752500", "153224.242500", "153225.732500", "153227.222500", "153228.712500", "153230.202500", "153231.692500", "153233.182500", "153234.672500", "153236.162500", "153237.652500", "153239.142500", "153240.632500", "153242.122500", "153243.612500", "153245.102500", "153246.592500", "153248.082500", "153249.572500", "153251.062500", "153252.552500", "153254.042500", "153255.532500", "153257.022500", "153258.512500", "153300.002500", "153301.492500", "153302.982500", "153304.472500", "153305.962500", "153307.452500", "153308.942500", "153310.432500", "153311.922500", "153313.412500", "153314.902500", "153316.392500", "153317.882500", "153319.372500", "153320.862500", "153322.352500", "153323.842500", "153325.332500", "153326.822500", "153328.312500", "153329.802500", "153331.292500", "153332.782500", "153334.272500", "153335.762500", "153337.252500", "153338.742500", "153340.232500", "153341.722500", "153343.212500", "153344.702500", "153346.192500", "153347.682500", "153349.172500", "153350.662500", "153352.152500", "153353.642500", "153355.132500", "153356.622500", "153358.112500", "153359.602500", "153401.092500", "153402.582500", "153404.072500", "153405.562500", "153407.052500", "153408.542500", "153410.032500", "153411.522500", "153413.012500", "153414.502500", "153415.992500", "153417.482500", "153418.972500", "153420.462500", "153421.952500", "153423.442500", "153424.932500", "153426.422500", "153427.912500", "153429.402500", "153430.892500", "153432.382500", "153433.872500", "153435.362500", "153436.852500", "153438.342500", "153439.832500", "153441.322500", "153442.812500", "153444.302500", "153445.792500", "153447.282500", "153448.772500", "153450.262500", "153451.752500", "153453.242500", "153454.732500", "153456.222500", "153457.712500", "153459.202500", "153500.692500", "153502.182500", "153503.672500", "153505.162500", "153506.652500", "153508.142500", "153509.632500", "153511.122500", "153512.612500", "153514.102500", "153515.592500", "153517.082500", "153518.572500", "153520.062500", "153521.552500", "153523.042500", "153524.532500", "153526.022500", "153527.512500", "153529.002500", "153530.492500", "153531.982500", "153533.472500", "153534.962500", "153536.452500", "153537.942500", "153539.432500", "153540.922500", "153542.412500", "153543.902500", "153545.392500", "153546.882500", "153548.372500", "153549.862500", "153551.352500", "153552.842500", "153554.332500", "153555.822500", "153557.312500", "153558.802500", "153600.292500", "153601.782500", "153603.272500", "153604.762500", "153606.252500", "153607.742500", "153609.232500", "153610.722500", "153612.212500", "153613.702500", "153615.192500", "153616.682500", "153618.172500", "153619.662500", "153621.152500", "153622.642500", "153624.132500", "153625.622500", "153627.112500", "153628.602500", "153630.092500", "153631.582500", "153633.072500", "153634.562500", "153636.052500", "153637.542500", "153639.032500", "153640.522500", "153642.012500", "153643.502500", "153644.992500", "153646.482500", "153647.972500", "153649.462500", "153650.952500", "153652.442500", "153653.932500", "153655.422500", "153656.912500", "153658.402500", "153659.892500", "153701.382500", "153702.872500", "153704.362500", "153705.852500", "153707.342500", "153708.832500", "153710.322500", "153711.812500", "153713.302500", "153714.792500", "153716.282500", "153717.772500", "153719.262500", "153720.752500", "153722.242500", "153723.732500", "153725.222500", "153726.712500", "153728.202500", "153729.692500", "153731.182500", "153732.672500", "153734.162500", "153735.652500", "153737.142500", "153738.632500", "153740.122500", "153741.612500", "153743.102500", "153744.592500", "153746.082500", "153747.572500", "153749.062500", "153750.552500", "153752.042500", "153753.532500", "153755.022500", "153756.512500", "153758.002500", "153759.492500", "153800.982500", "153802.472500", "153803.962500", "153805.452500", "153806.942500", "153808.432500", "153809.922500", "153811.412500", "153812.902500", "153814.392500", "153815.882500", "153817.372500", "153818.862500", "153820.352500", "153821.842500", "153823.332500", "153824.822500", "153826.312500", "153827.802500", "153829.292500", "153830.782500", "153832.272500", "153833.762500", "153835.252500", "153836.742500", "153838.232500", "153839.722500", "153841.212500", "153842.702500", "153844.192500", "153845.682500", "153847.172500", "153848.662500", "153850.152500", "153851.642500", "153853.132500", "153854.622500", "153856.112500", "153857.602500", "153859.092500", "153900.582500", "153902.072500", "153903.562500", "153905.052500", "153906.542500", "153908.032500", "153909.522500", "153911.012500"],
      "ContentTime": ["152941.650000", "152941.652000", "152941.655000", "152941.657000", "152941.660000", "152941.662000", "152941.665000", "152941.667000", "152941.670000", "152941.672000", "152941.675000", "152941.677000", "152941.680000", "152941.682000", "152941.685000", "152941.687000", "152941.689000", "152941.692000", "153001.630000", "153001.633000", "153001.635000", "153001.638000", "153001.640000", "153001.643000", "153001.645000", "153001.648000", "153001.650000", "153001.653000", "153001.655000", "153001.658000", "153001.660000", "153001.663000", "153001.665000", "153001.667000", "153001.670000", "153001.672000", "153001.675000", "153021.618000", "153021.620000", "153021.623000", "153021.629000", "153021.631000", "153021.634000", "153021.636000", "153021.639000", "153021.641000", "153021.644000", "153021.646000", "153021.648000", "153021.651000", "153021.653000", "153021.656000", "153021.658000", "153021.661000", "153021.663000", "153021.666000", "153021.668000", "153021.671000", "153041.611000", "153041.614000", "153041.616000", "153041.619000", "153041.621000", "153041.624000", "153041.626000", "153041.629000", "153041.631000", "153041.634000", "153041.636000", "153041.639000", "153041.641000", "153041.644000", "153041.646000", "153041.649000", "153041.651000", "153041.654000", "153041.656000", "153041.659000", "153101.611000", "153101.613000", "153101.616000", "153101.618000", "153101.621000", "153101.623000", "153101.626000", "153101.628000", "153101.631000", "153101.633000", "153101.636000", "153101.638000", "153101.641000", "153101.643000", "153101.646000", "153101.648000", "153101.651000", "153101.653000", "153101.656000", "153101.658000", "153141.647000", "153141.650000", "153141.653000", "153141.655000", "153141.658000", "153141.660000", "153141.663000", "153141.665000", "153141.668000", "153141.670000", "153141.673000", "153141.675000", "153141.678000", "153141.680000", "153141.682000", "153141.685000", "153141.687000", "153141.690000", "153141.693000", "153141.695000", "153141.698000", "153141.700000", "153141.702000", "153141.705000", "153141.708000", "153141.710000", "153141.713000", "153141.715000", "153141.717000", "153141.720000", "153221.638000", "153221.640000", "153221.643000", "153221.645000", "153221.648000", "153221.650000", "153221.653000", "153221.655000", "153221.658000", "153221.660000", "153221.663000", "153221.665000", "153221.668000", "153221.670000", "153221.673000", "153221.675000", "153221.678000", "153221.680000", "153221.683000", "153221.685000", "153221.688000", "153221.690000", "153221.693000", "153221.695000", "153221.698000", "153221.700000", "153221.703000", "153301.645000", "153301.648000", "153301.650000", "153301.653000", "153301.655000", "153301.658000", "153301.660000", "153301.663000", "153301.665000", "153301.668000", "153301.670000", "153301.673000", "153301.675000", "153301.678000", "153301.680000", "153301.683000", "153301.685000", "153301.688000", "153301.690000", "153301.693000", "153301.696000", "153301.698000", "153301.701000", "153301.703000", "153301.706000", "153301.708000", "153301.711000", "153341.648000", "153341.651000", "153341.653000", "153341.656000", "153341.658000", "153341.661000", "153341.663000", "153341.666000", "153341.668000", "153341.671000", "153341.673000", "153341.676000", "153341.678000", "153341.681000", "153341.683000", "153341.686000", "153341.688000", "153341.691000", "153341.693000", "153341.696000", "153341.698000", "153341.701000", "153341.703000", "153341.706000", "153341.708000", "153341.711000", "153341.713000", "153421.650000", "153421.653000", "153421.655000", "153421.658000", "153421.660000", "153421.663000", "153421.665000", "153421.668000", "153421.670000", "153421.673000", "153421.675000", "153421.678000", "153421.680000", "153421.683000", "153421.685000", "153421.688000", "153421.690000", "153421.693000", "153421.695000", "153421.698000", "153421.700000", "153421.703000", "153421.705000", "153421.708000", "153421.710000", "153421.713000", "153501.635000", "153501.638000", "153501.640000", "153501.643000", "153501.646000", "153501.649000", "153501.651000", "153501.654000", "153501.656000", "153501.659000", "153501.661000", "153501.664000", "153501.666000", "153501.669000", "153501.671000", "153501.674000", "153501.676000", "153501.679000", "153501.681000", "153501.684000", "153501.686000", "153501.689000", "153501.691000", "153501.694000", "153501.697000", "153501.699000", "153501.702000", "153541.626000", "153541.629000", "153541.631000", "153541.634000", "153541.637000", "153541.639000", "153541.642000", "153541.644000", "153541.647000", "153541.649000", "153541.652000", "153541.654000", "153541.657000", "153541.659000", "153541.661000", "153541.664000", "153541.667000", "153541.669000", "153541.671000", "153541.674000", "153541.676000", "153541.679000", "153541.681000", "153541.684000", "153541.686000", "153541.689000", "153541.691000", "153621.651000", "153621.654000", "153621.657000", "153621.659000", "153621.662000", "153621.664000", "153621.667000", "153621.670000", "153621.672000", "153621.675000", "153621.677000", "153621.680000", "153621.682000", "153621.685000", "153621.687000", "153621.690000", "153621.692000", "153621.695000", "153621.697000", "153621.700000", "153621.702000", "153621.705000", "153621.707000", "153621.710000", "153621.712000", "153621.715000", "153621.717000", "153701.625000", "153701.628000", "153701.631000", "153701.633000", "153701.636000", "153701.638000", "153701.641000", "153701.643000", "153701.646000", "153701.648000", "153701.651000", "153701.653000", "153701.656000", "153701.658000", "153701.661000", "153701.663000", "153701.666000", "153701.668000", "153701.671000", "153701.673000", "153701.676000", "153701.678000", "153701.681000", "153701.683000", "153701.686000", "153701.688000", "153701.691000", "153721.567000", "153721.569000", "153721.572000", "153721.574000", "153721.577000", "153721.579000", "153721.582000", "153721.584000", "153721.587000", "153721.589000", "153721.592000", "153721.594000", "153721.597000", "153801.639000", "153801.641000", "153801.644000", "153801.647000", "153801.649000", "153801.652000", "153801.654000", "153801.656000", "153801.659000", "153801.661000", "153801.664000", "153801.666000", "153801.669000", "153801.671000", "153801.674000", "153801.676000", "153801.679000", "153801.681000", "153801.684000", "153801.686000", "153801.689000", "153801.691000", "153801.694000", "153801.696000", "153801.699000", "153801.701000", "153801.704000", "153841.636000", "153841.639000", "153841.641000", "153841.644000", "153841.646000", "153841.649000", "153841.651000", "153841.654000", "153841.656000", "153841.659000", "153841.661000", "153841.664000", "153841.666000", "153841.669000", "153841.671000", "153841.674000", "153841.676000", "153841.679000", "153841.681000", "153841.684000", "153841.686000", "153841.689000", "153841.691000", "153841.694000", "153841.696000", "153841.699000", "153841.701000", "153914.429000", "153914.432000", "153914.435000", "153914.437000", "153914.440000", "153914.442000", "153914.445000", "153914.448000", "153914.450000", "153914.453000", "153914.456000", "153914.458000", "153914.461000", "153914.463000", "153914.466000", "153914.468000", "153914.471000", "153914.474000", "153914.476000", "153914.479000", "153914.482000", "153914.485000"],
