{
  "AcquisitionMatrixPE": 104,
  "AcquisitionNumber": 1,
  "AcquisitionTime": "15:45:0.170000",
  "BandwidthPerPixelPhaseEncode": 17.17,
  "BaseResolution": 104,
  "BodyPartExamined": "BRAIN",
  "CoilCombinationMethod": "Sum of Squares",
  "ConsistencyInfo": "N4_VE11C_LATEST_20160120",
  "ConversionSoftware": "dcm2niix",
  "ConversionSoftwareVersion": "v1.0.20211006",
  "DerivedVendorReportedEchoSpacing": 0.000560011,
  "DeviceSerialNumber": "167006",
  "DwellTime": 2.1e-06,
  "EchoTime": 0.037,
  "EchoTrainLength": 104,
  "EffectiveEchoSpacing": 0.000560011,
  "FlipAngle": 52,
  "HeudiconvVersion": "0.10.0",
  "ImageComments": "Unaliased MB4/PE3/LB",
  "ImageOrientationPatientDICOM": [0.99622, 0.0555546, 0.0667827, -0.0276529, 0.931591, -0.362456],
  "ImageOrientationText": "Tra>Cor(-21.1)>Sag(4.7)",
  "ImageType": [
    "ORIGINAL",
    "PRIMARY",
    "M",
    "MB",
    "ND",
    "MOSAIC"
],
  "ImagingFrequency": 123.259,
  "InPlanePhaseEncodingDirectionDICOM": "COL",
  "InstitutionAddress": "Chemin Queen-Mary 4565,Montreal,District,CA,H3W 1W5",
  "InstitutionName": "IUGM",
  "InstitutionalDepartmentName": "Department",
  "MRAcquisitionType": "2D",
  "MagneticFieldStrength": 3,
  "Manufacturer": "Siemens",
  "ManufacturersModelName": "Prisma_fit",
  "MatrixCoilMode": "SENSE",
  "Modality": "MR",
  "MultibandAccelerationFactor": 4,
  "PartialFourier": 1,
  "PatientPosition": "HFS",
  "PercentPhaseFOV": 100,
  "PercentSampling": 100,
  "PhaseEncodingDirection": "j",
  "PhaseEncodingSteps": 104,
  "PhaseResolution": 1,
  "PixelBandwidth": 2290,
  "ProcedureStepDescription": "games^mario",
  "ProtocolName": "func_task-mario_run-02",
  "PulseSequenceDetails": "%CustomerSeq%\\cmrr_mbep2d_bold",
  "ReceiveCoilActiveElements": "HC1-7;NC1,2",
  "ReceiveCoilName": "HeadNeck_64",
  "ReconMatrixPE": 104,
  "RepetitionTime": 1.49,
  "SAR": 0.0717892,
  "ScanOptions": "FS",
  "ScanningSequence": "EP",
  "SequenceName": "epfid2d1_104",
  "SequenceVariant": "SK\\SS",
  "SeriesDescription": "func_task-mario_run-02",
  "SeriesNumber": 13,
  "ShimSetting": [644, -7154, -8844, 636, 101, 146, -8, -16],
  "SliceThickness": 2,
  "SliceTiming": [0, 0.7825, 0.0975, 0.8825, 0.195, 0.98, 0.2925, 1.0775, 0.3925, 1.175, 0.49, 1.2725, 0.5875, 1.3725, 0.685, 0, 0.7825, 0.0975, 0.8825, 0.195, 0.98, 0.2925, 1.0775, 0.3925, 1.175, 0.49, 1.2725, 0.5875, 1.3725, 0.685, 0, 0.7825, 0.0975, 0.8825, 0.195, 0.98, 0.2925, 1.0775, 0.3925, 1.175, 0.49, 1.2725, 0.5875, 1.3725, 0.685, 0, 0.7825, 0.0975, 0.8825, 0.195, 0.98, 0.2925, 1.0775, 0.3925, 1.175, 0.49, 1.2725, 0.5875, 1.3725, 0.685],
  "SoftwareVersions": "syngo MR E11",
  "SpacingBetweenSlices": 2,
  "StationName": "MRC35049",
  "TaskName": "mario",
  "TotalReadoutTime": 0.0576811,
  "TxRefAmp": 323.19,
  "WipMemBlock": "8061d2f1-66a8-43e8-985c-db16e5968c5d||Sequence: R016 ve11c/master r/e634e98; Dec 19 2017 11:00:25 by eja",
  "dcmmeta_affine": [
    [-1.9924395084381104, -0.05530581623315811, 0.16470037400722504, 105.2868423461914],
    [-0.11110913753509521, 1.863181471824646, -0.7184772491455078, -53.57656478881836],
    [0.13356535136699677, 0.7249110341072083, 1.859210729598999, -75.32479095458984],
    [0.0, 0.0, 0.0, 1.0]
],
  "dcmmeta_reorient_transform": [
    [0.0, -1.0, 0.0, 103.0],
    [1.0, 0.0, 0.0, 0.0],
    [0.0, 0.0, 1.0, 0.0],
    [0.0, 0.0, 0.0, 1.0]
],
  "dcmmeta_shape": [104, 104, 60, 161],
  "dcmmeta_slice_dim": 2,
  "dcmmeta_version": 0.6,
  "global": {
    "const": {
      "AcquisitionMatrix": [104, 0, 0, 104],
      "AngioFlag": "N",
      "BitsAllocated": 16,
      "BitsStored": 16,
      "BodyPartExamined": "BRAIN",
      "Columns": 832,
      "EchoNumbers": 1,
      "EchoTime": 37.0,
      "EchoTrainLength": 104,
      "FlipAngle": 52.0,
      "HighBit": 15,
      "ImageOrientationPatient": [0.99621973691444, 0.05555456942053, 0.06678267438964, -0.0276529085247, 0.93159074144085, -0.3624555243224],
      "ImagePositionPatient": [-804.70699553221, -856.97291316304, 214.59087941187],
      "ImageType": [
        "ORIGINAL",
        "PRIMARY",
        "M",
        "MB",
        "ND",
        "MOSAIC"
],
      "ImagedNucleus": "1H",
      "ImagingFrequency": 123.258877,
      "InPlanePhaseEncodingDirection": "COL",
      "MRAcquisitionType": "2D",
      "MagneticFieldStrength": 3.0,
      "Manufacturer": "SIEMENS",
      "ManufacturerModelName": "Prisma_fit",
      "Modality": "MR",
      "NumberOfAverages": 1.0,
      "NumberOfPhaseEncodingSteps": 104,
      "PercentPhaseFieldOfView": 100.0,
      "PercentSampling": 100.0,
      "PerformedProcedureStepStartTime": "142512.260000",
      "PhotometricInterpretation": "MONOCHROME2",
      "PixelBandwidth": 2290.0,
      "PixelRepresentation": 0,
      "PixelSpacing": [2.0, 2.0],
      "ProtocolName": "func_task-mario_run-02",
      "RepetitionTime": 1490.0,
      "Rows": 832,
      "SAR": 0.07178916673227,
      "SamplesPerPixel": 1,
      "ScanOptions": "FS",
      "ScanningSequence": "EP",
      "SequenceName": "epfid2d1_104",
      "SequenceVariant": [
        "SK",
        "SS"
],
      "SeriesDescription": "func_task-mario_run-02",
      "SeriesNumber": 13,
      "SeriesTime": "154632.260000",
      "SliceLocation": -42.105167422713,
      "SliceThickness": 2.0,
      "SmallestImagePixelValue": 0,
      "SoftwareVersions": "syngo MR E11",
      "SpacingBetweenSlices": 2.0000000479459,
      "SpecificCharacterSet": "ISO_IR 100",
      "StudyID": "1",
      "StudyTime": "142512.180000",
      "TransmitCoilName": "Body",
      "VariableFlipAngleFlag": "N",
      "WindowCenterWidthExplanation": "Algo1",
      "dBdt": 0.0},
    "slices": {}
  },
  "time": {
    "samples": {
      "AcquisitionNumber": [1, 2, 3, 4, 5, 6, 7, 8, 9, 10, 11, 12, 13, 14, 15, 16, 17, 18, 19, 20, 21, 22, 23, 24, 25, 26, 27, 28, 29, 30, 31, 32, 33, 34, 35, 36, 37, 38, 39, 40, 41, 42, 43, 44, 45, 46, 47, 48, 49, 50, 51, 52, 53, 54, 55, 56, 57, 58, 59, 60, 61, 62, 63, 64, 65, 66, 67, 68, 69, 70, 71, 72, 73, 74, 75, 76, 77, 78, 79, 80, 81, 82, 83, 84, 85, 86, 87, 88, 89, 90, 91, 92, 93, 94, 95, 96, 97, 98, 99, 100, 101, 102, 103, 104, 105, 106, 107, 108, 109, 110, 111, 112, 113, 114, 115, 116, 117, 118, 119, 120, 121, 122, 123, 124, 125, 126, 127, 128, 129, 130, 131, 132, 133, 134, 135, 136, 137, 138, 139, 140, 141, 142, 143, 144, 145, 146, 147, 148, 149, 150, 151, 152, 153, 154, 155, 156, 157, 158, 159, 160, 161],
      "AcquisitionTime": ["154500.170000", "154501.660000", "154503.150000", "154504.640000", "154506.130000", "154507.620000", "154509.110000", "154510.600000", "154512.090000", "154513.580000", "154515.070000", "154516.560000", "154518.050000", "154519.540000", "154521.030000", "154522.520000", "154524.010000", "154525.500000", "154526.990000", "154528.480000", "154529.970000", "154531.460000", "154532.950000", "154534.440000", "154535.930000", "154537.420000", "154538.910000", "154540.400000", "154541.890000", "154543.380000", "154544.870000", "154546.360000", "154547.850000", "154549.340000", "154550.830000", "154552.320000", "154553.810000", "154555.300000", "154556.790000", "154558.280000", "154559.770000", "154601.260000", "154602.750000", "154604.240000", "154605.730000", "154607.220000", "154608.710000", "154610.200000", "154611.690000", "154613.180000", "154614.670000", "154616.160000", "154617.650000", "154619.140000", "154620.630000", "154622.120000", "154623.610000", "154625.100000", "154626.590000", "154628.080000", "154629.570000", "154631.060000", "154632.550000", "154634.040000", "154635.530000", "154637.020000", "154638.510000", "154640.000000", "154641.490000", "154642.980000", "154644.470000", "154645.960000", "154647.450000", "154648.940000", "154650.430000", "154651.920000", "154653.410000", "154654.900000", "154656.390000", "154657.880000", "154659.370000", "154700.860000", "154702.350000", "154703.840000", "154705.330000", "154706.820000", "154708.310000", "154709.800000", "154711.290000", "154712.780000", "154714.270000", "154715.760000", "154717.250000", "154718.740000", "154720.230000", "154721.720000", "154723.210000", "154724.700000", "154726.190000", "154727.680000", "154729.170000", "154730.660000", "154732.150000", "154733.640000", "154735.130000", "154736.620000", "154738.110000", "154739.600000", "154741.090000", "154742.580000", "154744.070000", "154745.560000", "154747.050000", "154748.540000", "154750.030000", "154751.520000", "154753.010000", "154754.500000", "154755.990000", "154757.480000", "154758.970000", "154800.460000", "154801.950000", "154803.440000", "154804.930000", "154806.420000", "154807.910000", "154809.400000", "154810.890000", "154812.380000", "154813.870000", "154815.360000", "154816.850000", "154818.340000", "154819.830000", "154821.320000", "154822.810000", "154824.300000", "154825.790000", "154827.280000", "154828.770000", "154830.260000", "154831.750000", "154833.240000", "154834.730000", "154836.220000", "154837.710000", "154839.200000", "154840.690000", "154842.180000", "154843.670000", "154845.160000", "154846.650000", "154848.140000", "154849.630000", "154851.120000", "154852.610000", "154854.100000", "154855.590000", "154857.080000", "154858.570000"],
      "ContentTime": ["154632.263000", "154632.267000", "154632.270000", "154632.273000", "154632.277000", "154632.280000", "154632.283000", "154632.286000", "154632.290000", "154632.293000", "154632.296000", "154632.299000", "154632.303000", "154632.306000", "154632.315000", "154632.318000", "154632.322000", "154632.325000", "154632.328000", "154632.331000", "154632.335000", "154632.338000", "154632.341000", "154632.345000", "154632.348000", "154632.351000", "154632.354000", "154632.358000", "154632.361000", "154632.364000", "154632.367000", "154632.371000", "154632.374000", "154632.377000", "154632.380000", "154632.384000", "154632.400000", "154632.403000", "154632.406000", "154652.235000", "154652.239000", "154652.242000", "154652.245000", "154652.248000", "154652.252000", "154652.255000", "154652.258000", "154652.261000", "154652.265000", "154652.268000", "154652.271000", "154652.274000", "154652.278000", "154652.281000", "154652.284000", "154652.287000", "154652.291000", "154652.294000", "154652.297000", "154712.235000", "154712.239000", "154712.242000", "154712.245000", "154712.248000", "154712.252000", "154712.255000", "154712.258000", "154712.261000", "154712.264000", "154712.268000", "154712.271000", "154712.274000", "154712.278000", "154712.281000", "154712.284000", "154712.287000", "154712.291000", "154712.294000", "154712.297000", "154732.234000", "154732.238000", "154732.241000", "154732.244000", "154732.248000", "154732.251000", "154732.254000", "154732.257000", "154732.261000", "154732.264000", "154732.267000", "154732.271000", "154732.274000", "154732.277000", "154732.280000", "154732.284000", "154732.287000", "154732.290000", "154732.293000", "154732.297000", "154732.300000", "154812.234000", "154812.238000", "154812.241000", "154812.244000", "154812.247000", "154812.251000", "154812.254000", "154812.257000", "154812.260000", "154812.264000", "154812.267000", "154812.270000", "154812.274000", "154812.277000", "154812.280000", "154812.283000", "154812.286000", "154812.290000", "154812.293000", "154812.296000", "154812.300000", "154812.303000", "154812.306000", "154812.309000", "154812.312000", "154812.316000", "154812.319000", "154812.322000", "154852.235000", "154852.239000", "154852.242000", "154852.245000", "154852.249000", "154852.252000", "154852.255000", "154852.259000", "154852.276000", "154852.279000", "154852.283000", "154852.286000", "154852.289000", "154852.292000", "154852.296000", "154852.299000", "154852.302000", "154852.306000", "154852.309000", "154852.312000", "154852.315000", "154852.319000", "154852.322000", "154852.325000", "154852.329000", "154852.332000", "154852.335000", "154901.112000", "154901.115000", "154901.119000", "154901.122000", "154901.125000", "154901.128000"],
      "InstanceCreationTime": ["154632.263000", "154632.267000", "154632.270000", "154632.273000", "154632.277000", "154632.280000", "154632.283000", "154632.286000", "154632.290000", "154632.293000", "154632.296000", "154632.299000", "154632.303000", "154632.306000", "154632.315000", "154632.318000", "154632.322000", "154632.325000", "154632.328000", "154632.331000", "154632.335000", "154632.338000", "154632.341000", "154632.345000", "154632.348000", "154632.351000", "154632.354000", "154632.358000", "154632.361000", "154632.364000", "154632.367000", "154632.371000", "154632.374000", "154632.377000", "154632.380000", "154632.384000", "154632.400000", "154632.403000", "154632.406000", "154652.235000", "154652.239000", "154652.242000", "154652.245000", "154652.248000", "154652.252000", "154652.255000", "154652.258000", "154652.261000", "154652.265000", "154652.268000", "154652.271000", "154652.274000", "154652.278000", "154652.281000", "154652.284000", "154652.287000", "154652.291000", "154652.294000", "154652.297000", "154712.235000", "154712.239000", "154712.242000", "154712.245000", "154712.248000", "154712.252000", "154712.255000", "154712.258000", "154712.261000", "154712.264000", "154712.268000", "154712.271000", "154712.274000", "154712.278000", "154712.281000", "154712.284000", "154712.287000", "154712.291000", "154712.294000", "154712.297000", "154732.234000", "154732.238000", "154732.241000", "154732.244000", "154732.248000", "154732.251000", "154732.254000", "154732.257000", "154732.261000", "154732.264000", "154732.267000", "154732.271000", "154732.274000", "154732.277000", "154732.280000", "154732.284000", "154732.287000", "154732.290000", "154732.293000", "154732.297000", "154732.300000", "154812.234000", "154812.238000", "154812.241000", "154812.244000", "154812.247000", "154812.251000", "154812.254000", "154812.257000", "154812.260000", "154812.264000", "154812.267000", "154812.270000", "154812.274000", "154812.277000", "154812.280000", "154812.283000", "154812.286000", "154812.290000", "154812.293000", "154812.296000", "154812.300000", "154812.303000", "154812.306000", "154812.309000", "154812.312000", "154812.316000", "154812.319000", "154812.322000", "154852.235000", "154852.239000", "154852.242000", "154852.245000", "154852.249000", "154852.252000", "154852.255000", "154852.259000", "154852.276000", "154852.279000", "154852.283000", "154852.286000", "154852.289000", "154852.292000", "154852.296000", "154852.299000", "154852.302000", "154852.306000", "154852.309000", "154852.312000", "154852.315000", "154852.319000", "154852.322000", "154852.325000", "154852.329000", "154852.332000", "154852.335000", "154901.112000", "154901.115000", "154901.119000", "154901.122000", "154901.125000", "154901.128000"],
      "InstanceNumber": [1, 2, 3, 4, 5, 6, 7, 8, 9, 10, 11, 12, 13, 14, 15, 16, 17, 18, 19, 20, 21, 22, 23, 24, 25, 26, 27, 28, 29, 30, 31, 32, 33, 34, 35, 36, 37, 38, 39, 40, 41, 42, 43, 44, 45, 46, 47, 48, 49, 50, 51, 52, 53, 54, 55, 56, 57, 58, 59, 60, 61, 62, 63, 64, 65, 66, 67, 68, 69, 70, 71, 72, 73, 74, 75, 76, 77, 78, 79, 80, 81, 82, 83, 84, 85, 86, 87, 88, 89, 90, 91, 92, 93, 94, 95, 96, 97, 98, 99, 100, 101, 102, 103, 104, 105, 106, 107, 108, 109, 110, 111, 112, 113, 114, 115, 116, 117, 118, 119, 120, 121, 122, 123, 124, 125, 126, 127, 128, 129, 130, 131, 132, 133, 134, 135, 136, 137, 138, 139, 140, 141, 142, 143, 144, 145, 146, 147, 148, 149, 150, 151, 152, 153, 154, 155, 156, 157, 158, 159, 160, 161],
      "LargestImagePixelValue": [44974, 44601, 42547, 42821, 42238, 42909, 42026, 42332, 41781, 41992, 42330, 41766, 41980, 51409, 42074, 41869, 42508, 42664, 42493, 41182, 50400, 42073, 41556, 42154, 42064, 41348, 40866, 44200, 43805, 44660, 45277, 45324, 45112, 44136, 44698, 44756, 44484, 45427, 44763, 44675, 44427, 44392, 44024, 44914, 45074, 53240, 45834, 45394, 45656, 44031, 44402, 43979, 44361, 45336, 46418, 44602, 43502, 44282, 44232, 45192, 44456, 45146, 44150, 44768, 44335, 44684, 43942, 44793, 44187, 43490, 44007, 44319, 43702, 44294, 44319, 44998, 44261, 44136, 44180, 43474, 43213, 43662, 43280, 44364, 44036, 43356, 43381, 43712, 43555, 43883, 44336, 44750, 44560, 44427, 44381, 44150, 44215, 44131, 43226, 42944, 43914, 43459, 43635, 41258, 41833, 41440, 42981, 42461, 43277, 42590, 43070, 43455, 42466, 43175, 43388, 45201, 44888, 45126, 43735, 43947, 44494, 43494, 43963, 42501, 42357, 42706, 42889, 42216, 42046, 42367, 43427, 42251, 41755, 41374, 41383, 42677, 43470, 41945, 43229, 42682, 43500, 43183, 43308, 43197, 42848, 43408, 42283, 42800, 41997, 41743, 42637, 42460, 42682, 43110, 44556, 44121, 44750, 43201, 43318, 43042, 42038],
      "WindowCenter": [10566.0, 10521.0, 10503.0, 10535.0, 10517.0, 10518.0, 10507.0, 10492.0, 10502.0, 10500.0, 10510.0, 10508.0, 10517.0, 10589.0, 10511.0, 10518.0, 10525.0, 10518.0, 10488.0, 10496.0, 10583.0, 10525.0, 10539.0, 10550.0, 10538.0, 10500.0, 10463.0, 10492.0, 10500.0, 10530.0, 10537.0, 10538.0, 10533.0, 10526.0, 10531.0, 10530.0, 10534.0, 10533.0, 10524.0, 10516.0, 10506.0, 10483.0, 10471.0, 10488.0, 10502.0, 10585.0, 10524.0, 10534.0, 10536.0, 10524.0, 10506.0, 10473.0, 10483.0, 10495.0, 10534.0, 10530.0, 10527.0, 10532.0, 10535.0, 10550.0, 10542.0, 10540.0, 10509.0, 10510.0, 10513.0, 10517.0, 10525.0, 10534.0, 10553.0, 10566.0, 10557.0, 10537.0, 10504.0, 10483.0, 10480.0, 10498.0, 10506.0, 10501.0, 10487.0, 10494.0, 10495.0, 10508.0, 10511.0, 10530.0, 10508.0, 10502.0, 10492.0, 10488.0, 10491.0, 10480.0, 10504.0, 10518.0, 10518.0, 10520.0, 10513.0, 10504.0, 10494.0, 10512.0, 10501.0, 10514.0, 10529.0, 10523.0, 10517.0, 10486.0, 10481.0, 10484.0, 10508.0, 10521.0, 10525.0, 10500.0, 10493.0, 10489.0, 10461.0, 10489.0, 10514.0, 10532.0, 10515.0, 10484.0, 10464.0, 10474.0, 10482.0, 10477.0, 10466.0, 10472.0, 10473.0, 10508.0, 10510.0, 10498.0, 10481.0, 10489.0, 10497.0, 10487.0, 10474.0, 10476.0, 10472.0, 10476.0, 10477.0, 10453.0, 10471.0, 10472.0, 10493.0, 10486.0, 10487.0, 10479.0, 10480.0, 10493.0, 10485.0, 10494.0, 10479.0, 10475.0, 10485.0, 10483.0, 10491.0, 10497.0, 10516.0, 10508.0, 10493.0, 10463.0, 10474.0, 10482.0, 10472.0],
      "WindowWidth": [22473.0, 22346.0, 22307.0, 22375.0, 22333.0, 22328.0, 22307.0, 22266.0, 22291.0, 22287.0, 22313.0, 22307.0, 22332.0, 22492.0, 22319.0, 22334.0, 22354.0, 22334.0, 22263.0, 22291.0, 22479.0, 22356.0, 22390.0, 22413.0, 22389.0, 22301.0, 22213.0, 22267.0, 22286.0, 22351.0, 22366.0, 22370.0, 22359.0, 22346.0, 22353.0, 22352.0, 22364.0, 22360.0, 22340.0, 22326.0, 22299.0, 22247.0, 22220.0, 22259.0, 22287.0, 22482.0, 22333.0, 22355.0, 22361.0, 22341.0, 22295.0, 22220.0, 22238.0, 22263.0, 22354.0, 22351.0, 22348.0, 22355.0, 22364.0, 22394.0, 22385.0, 22378.0, 22309.0, 22310.0, 22319.0, 22325.0, 22348.0, 22361.0, 22409.0, 22441.0, 22419.0, 22371.0, 22299.0, 22247.0, 22237.0, 22278.0, 22305.0, 22291.0, 22252.0, 22273.0, 22276.0, 22306.0, 22317.0, 22356.0, 22303.0, 22292.0, 22267.0, 22258.0, 22269.0, 22239.0, 22295.0, 22327.0, 22327.0, 22331.0, 22314.0, 22295.0, 22270.0, 22312.0, 22292.0, 22326.0, 22352.0, 22341.0, 22328.0, 22264.0, 22249.0, 22261.0, 22312.0, 22346.0, 22350.0, 22297.0, 22279.0, 22269.0, 22208.0, 22267.0, 22324.0, 22364.0, 22329.0, 22253.0, 22210.0, 22236.0, 22244.0, 22235.0, 22208.0, 22227.0, 22233.0, 22314.0, 22318.0, 22292.0, 22257.0, 22273.0, 22287.0, 22267.0, 22240.0, 22247.0, 22235.0, 22243.0, 22239.0, 22190.0, 22226.0, 22232.0, 22278.0, 22260.0, 22265.0, 22243.0, 22250.0, 22274.0, 22266.0, 22283.0, 22252.0, 22246.0, 22260.0, 22261.0, 22273.0, 22286.0, 22329.0, 22307.0, 22275.0, 22209.0, 22245.0, 22252.0, 22237.0]
    },
    "slices": {}
  }
}