{
  "AcquisitionMatrixPE": 104,
  "AcquisitionNumber": 1,
  "AcquisitionTime": "16:17:49.825000",
  "BandwidthPerPixelPhaseEncode": 17.17,
  "BaseResolution": 104,
  "BodyPartExamined": "BRAIN",
  "CoilCombinationMethod": "Sum of Squares",
  "ConsistencyInfo": "N4_VE11C_LATEST_20160120",
  "ConversionSoftware": "dcm2niix",
  "ConversionSoftwareVersion": "v1.0.20211006",
  "DerivedVendorReportedEchoSpacing": 0.000560011,
  "DeviceSerialNumber": "167006",
  "DwellTime": 2.1e-06,
  "EchoTime": 0.037,
  "EchoTrainLength": 104,
  "EffectiveEchoSpacing": 0.000560011,
  "FlipAngle": 52,
  "HeudiconvVersion": "0.10.0",
  "ImageComments": "Unaliased MB4/PE3/LB",
  "ImageOrientationPatientDICOM": [0.99622, 0.0555546, 0.0667827, -0.0276529, 0.931591, -0.362456],
  "ImageOrientationText": "Tra>Cor(-21.1)>Sag(4.7)",
  "ImageType": [
    "ORIGINAL",
    "PRIMARY",
    "M",
    "MB",
    "ND",
    "MOSAIC"
],
  "ImagingFrequency": 123.259,
  "InPlanePhaseEncodingDirectionDICOM": "COL",
  "InstitutionAddress": "Chemin Queen-Mary 4565,Montreal,District,CA,H3W 1W5",
  "InstitutionName": "IUGM",
  "InstitutionalDepartmentName": "Department",
  "MRAcquisitionType": "2D",
  "MagneticFieldStrength": 3,
  "Manufacturer": "Siemens",
  "ManufacturersModelName": "Prisma_fit",
  "MatrixCoilMode": "SENSE",
  "Modality": "MR",
  "MultibandAccelerationFactor": 4,
  "PartialFourier": 1,
  "PatientPosition": "HFS",
  "PercentPhaseFOV": 100,
  "PercentSampling": 100,
  "PhaseEncodingDirection": "j",
  "PhaseEncodingSteps": 104,
  "PhaseResolution": 1,
  "PixelBandwidth": 2290,
  "ProcedureStepDescription": "games^mario",
  "ProtocolName": "func_task-mario_run-05",
  "PulseSequenceDetails": "%CustomerSeq%\\cmrr_mbep2d_bold",
  "ReceiveCoilActiveElements": "HC1-7;NC1,2",
  "ReceiveCoilName": "HeadNeck_64",
  "ReconMatrixPE": 104,
  "RepetitionTime": 1.49,
  "SAR": 0.0717892,
  "ScanOptions": "FS",
  "ScanningSequence": "EP",
  "SequenceName": "epfid2d1_104",
  "SequenceVariant": "SK\\SS",
  "SeriesDescription": "func_task-mario_run-05",
  "SeriesNumber": 22,
  "ShimSetting": [644, -7154, -8844, 636, 101, 146, -8, -16],
  "SliceThickness": 2,
  "SliceTiming": [0, 0.785, 0.0975, 0.8825, 0.195, 0.98, 0.295, 1.0775, 0.3925, 1.175, 0.49, 1.275, 0.5875, 1.3725, 0.685, 0, 0.785, 0.0975, 0.8825, 0.195, 0.98, 0.295, 1.0775, 0.3925, 1.175, 0.49, 1.275, 0.5875, 1.3725, 0.685, 0, 0.785, 0.0975, 0.8825, 0.195, 0.98, 0.295, 1.0775, 0.3925, 1.175, 0.49, 1.275, 0.5875, 1.3725, 0.685, 0, 0.785, 0.0975, 0.8825, 0.195, 0.98, 0.295, 1.0775, 0.3925, 1.175, 0.49, 1.275, 0.5875, 1.3725, 0.685],
  "SoftwareVersions": "syngo MR E11",
  "SpacingBetweenSlices": 2,
  "StationName": "MRC35049",
  "TaskName": "mario",
  "TotalReadoutTime": 0.0576811,
  "TxRefAmp": 323.19,
  "WipMemBlock": "27df6b54-42b5-4734-90e5-cc052df5d679||Sequence: R016 ve11c/master r/e634e98; Dec 19 2017 11:00:25 by eja",
  "dcmmeta_affine": [
    [-1.9924395084381104, -0.05530581623315811, 0.16470037400722504, 105.2868423461914],
    [-0.11110913753509521, 1.863181471824646, -0.7184772491455078, -53.57656478881836],
    [0.13356535136699677, 0.7249110341072083, 1.859210729598999, -75.32479095458984],
    [0.0, 0.0, 0.0, 1.0]
],
  "dcmmeta_reorient_transform": [
    [0.0, -1.0, 0.0, 103.0],
    [1.0, 0.0, 0.0, 0.0],
    [0.0, 0.0, 1.0, 0.0],
    [0.0, 0.0, 0.0, 1.0]
],
  "dcmmeta_shape": [104, 104, 60, 443],
  "dcmmeta_slice_dim": 2,
  "dcmmeta_version": 0.6,
  "global": {
    "const": {
      "AcquisitionMatrix": [104, 0, 0, 104],
      "AngioFlag": "N",
      "BitsAllocated": 16,
      "BitsStored": 16,
      "BodyPartExamined": "BRAIN",
      "Columns": 832,
      "EchoNumbers": 1,
      "EchoTime": 37.0,
      "EchoTrainLength": 104,
      "FlipAngle": 52.0,
      "HighBit": 15,
      "ImageOrientationPatient": [0.99621973691444, 0.05555456942053, 0.06678267438964, -0.0276529085247, 0.93159074144085, -0.3624555243224],
      "ImagePositionPatient": [-804.70699553221, -856.97291316304, 214.59087941187],
      "ImageType": [
        "ORIGINAL",
        "PRIMARY",
        "M",
        "MB",
        "ND",
        "MOSAIC"
],
      "ImagedNucleus": "1H",
      "ImagingFrequency": 123.258894,
      "InPlanePhaseEncodingDirection": "COL",
      "MRAcquisitionType": "2D",
      "MagneticFieldStrength": 3.0,
      "Manufacturer": "SIEMENS",
      "ManufacturerModelName": "Prisma_fit",
      "Modality": "MR",
      "NumberOfAverages": 1.0,
      "NumberOfPhaseEncodingSteps": 104,
      "PercentPhaseFieldOfView": 100.0,
      "PercentSampling": 100.0,
      "PerformedProcedureStepStartTime": "142512.260000",
      "PhotometricInterpretation": "MONOCHROME2",
      "PixelBandwidth": 2290.0,
      "PixelRepresentation": 0,
      "PixelSpacing": [2.0, 2.0],
      "ProtocolName": "func_task-mario_run-05",
      "RepetitionTime": 1490.0,
      "Rows": 832,
      "SAR": 0.07178916673227,
      "SamplesPerPixel": 1,
      "ScanOptions": "FS",
      "ScanningSequence": "EP",
      "SequenceName": "epfid2d1_104",
      "SequenceVariant": [
        "SK",
        "SS"
],
      "SeriesDescription": "func_task-mario_run-05",
      "SeriesNumber": 22,
      "SeriesTime": "161852.281000",
      "SliceLocation": -42.105167422713,
      "SliceThickness": 2.0,
      "SmallestImagePixelValue": 0,
      "SoftwareVersions": "syngo MR E11",
      "SpacingBetweenSlices": 2.0000000479459,
      "SpecificCharacterSet": "ISO_IR 100",
      "StudyID": "1",
      "StudyTime": "142512.180000",
      "TransmitCoilName": "Body",
      "VariableFlipAngleFlag": "N",
      "WindowCenterWidthExplanation": "Algo1",
      "dBdt": 0.0},
    "slices": {}
  },
  "time": {
    "samples": {
      "AcquisitionNumber": [1, 2, 3, 4, 5, 6, 7, 8, 9, 10, 11, 12, 13, 14, 15, 16, 17, 18, 19, 20, 21, 22, 23, 24, 25, 26, 27, 28, 29, 30, 31, 32, 33, 34, 35, 36, 37, 38, 39, 40, 41, 42, 43, 44, 45, 46, 47, 48, 49, 50, 51, 52, 53, 54, 55, 56, 57, 58, 59, 60, 61, 62, 63, 64, 65, 66, 67, 68, 69, 70, 71, 72, 73, 74, 75, 76, 77, 78, 79, 80, 81, 82, 83, 84, 85, 86, 87, 88, 89, 90, 91, 92, 93, 94, 95, 96, 97, 98, 99, 100, 101, 102, 103, 104, 105, 106, 107, 108, 109, 110, 111, 112, 113, 114, 115, 116, 117, 118, 119, 120, 121, 122, 123, 124, 125, 126, 127, 128, 129, 130, 131, 132, 133, 134, 135, 136, 137, 138, 139, 140, 141, 142, 143, 144, 145, 146, 147, 148, 149, 150, 151, 152, 153, 154, 155, 156, 157, 158, 159, 160, 161, 162, 163, 164, 165, 166, 167, 168, 169, 170, 171, 172, 173, 174, 175, 176, 177, 178, 179, 180, 181, 182, 183, 184, 185, 186, 187, 188, 189, 190, 191, 192, 193, 194, 195, 196, 197, 198, 199, 200, 201, 202, 203, 204, 205, 206, 207, 208, 209, 210, 211, 212, 213, 214, 215, 216, 217, 218, 219, 220, 221, 222, 223, 224, 225, 226, 227, 228, 229, 230, 231, 232, 233, 234, 235, 236, 237, 238, 239, 240, 241, 242, 243, 244, 245, 246, 247, 248, 249, 250, 251, 252, 253, 254, 255, 256, 257, 258, 259, 260, 261, 262, 263, 264, 265, 266, 267, 268, 269, 270, 271, 272, 273, 274, 275, 276, 277, 278, 279, 280, 281, 282, 283, 284, 285, 286, 287, 288, 289, 290, 291, 292, 293, 294, 295, 296, 297, 298, 299, 300, 301, 302, 303, 304, 305, 306, 307, 308, 309, 310, 311, 312, 313, 314, 315, 316, 317, 318, 319, 320, 321, 322, 323, 324, 325, 326, 327, 328, 329, 330, 331, 332, 333, 334, 335, 336, 337, 338, 339, 340, 341, 342, 343, 344, 345, 346, 347, 348, 349, 350, 351, 352, 353, 354, 355, 356, 357, 358, 359, 360, 361, 362, 363, 364, 365, 366, 367, 368, 369, 370, 371, 372, 373, 374, 375, 376, 377, 378, 379, 380, 381, 382, 383, 384, 385, 386, 387, 388, 389, 390, 391, 392, 393, 394, 395, 396, 397, 398, 399, 400, 401, 402, 403, 404, 405, 406, 407, 408, 409, 410, 411, 412, 413, 414, 415, 416, 417, 418, 419, 420, 421, 422, 423, 424, 425, 426, 427, 428, 429, 430, 431, 432, 433, 434, 435, 436, 437, 438, 439, 440, 441, 442, 443],
      "AcquisitionTime": ["161749.825000", "161751.315000", "161752.805000", "161754.295000", "161755.785000", "161757.275000", "161758.765000", "161800.255000", "161801.745000", "161803.235000", "161804.725000", "161806.215000", "161807.705000", "161809.195000", "161810.685000", "161812.175000", "161813.665000", "161815.155000", "161816.645000", "161818.135000", "161819.625000", "161821.115000", "161822.605000", "161824.095000", "161825.585000", "161827.075000", "161828.565000", "161830.055000", "161831.545000", "161833.035000", "161834.525000", "161836.015000", "161837.505000", "161838.995000", "161840.485000", "161841.975000", "161843.465000", "161844.955000", "161846.445000", "161847.935000", "161849.425000", "161850.915000", "161852.405000", "161853.895000", "161855.385000", "161856.875000", "161858.365000", "161859.855000", "161901.345000", "161902.835000", "161904.325000", "161905.815000", "161907.305000", "161908.795000", "161910.285000", "161911.775000", "161913.265000", "161914.755000", "161916.245000", "161917.735000", "161919.225000", "161920.715000", "161922.205000", "161923.695000", "161925.185000", "161926.675000", "161928.165000", "161929.655000", "161931.145000", "161932.635000", "161934.125000", "161935.615000", "161937.105000", "161938.595000", "161940.085000", "161941.575000", "161943.065000", "161944.555000", "161946.045000", "161947.535000", "161949.025000", "161950.515000", "161952.005000", "161953.495000", "161954.985000", "161956.475000", "161957.965000", "161959.455000", "162000.945000", "162002.435000", "162003.925000", "162005.415000", "162006.905000", "162008.395000", "162009.885000", "162011.375000", "162012.865000", "162014.355000", "162015.845000", "162017.335000", "162018.825000", "162020.315000", "162021.805000", "162023.295000", "162024.785000", "162026.275000", "162027.765000", "162029.255000", "162030.745000", "162032.235000", "162033.725000", "162035.215000", "162036.705000", "162038.195000", "162039.685000", "162041.175000", "162042.665000", "162044.155000", "162045.645000", "162047.135000", "162048.625000", "162050.115000", "162051.605000", "162053.095000", "162054.585000", "162056.075000", "162057.565000", "162059.055000", "162100.545000", "162102.035000", "162103.525000", "162105.015000", "162106.505000", "162107.995000", "162109.485000", "162110.975000", "162112.465000", "162113.955000", "162115.445000", "162116.935000", "162118.425000", "162119.915000", "162121.405000", "162122.895000", "162124.385000", "162125.875000", "162127.365000", "162128.855000", "162130.345000", "162131.835000", "162133.325000", "162134.815000", "162136.305000", "162137.795000", "162139.285000", "162140.775000", "162142.265000", "162143.755000", "162145.245000", "162146.735000", "162148.225000", "162149.715000", "162151.205000", "162152.695000", "162154.185000", "162155.675000", "162157.165000", "162158.655000", "162200.145000", "162201.635000", "162203.125000", "162204.615000", "162206.105000", "162207.595000", "162209.085000", "162210.575000", "162212.065000", "162213.555000", "162215.045000", "162216.535000", "162218.025000", "162219.515000", "162221.005000", "162222.495000", "162223.985000", "162225.475000", "162226.965000", "162228.455000", "162229.945000", "162231.435000", "162232.925000", "162234.415000", "162235.905000", "162237.395000", "162238.885000", "162240.375000", "162241.865000", "162243.355000", "162244.845000", "162246.335000", "162247.825000", "162249.315000", "162250.805000", "162252.295000", "162253.785000", "162255.275000", "162256.765000", "162258.255000", "162259.745000", "162301.235000", "162302.725000", "162304.215000", "162305.705000", "162307.195000", "162308.685000", "162310.175000", "162311.665000", "162313.155000", "162314.645000", "162316.135000", "162317.625000", "162319.115000", "162320.605000", "162322.095000", "162323.585000", "162325.075000", "162326.565000", "162328.055000", "162329.545000", "162331.035000", "162332.525000", "162334.015000", "162335.505000", "162336.995000", "162338.485000", "162339.975000", "162341.465000", "162342.955000", "162344.445000", "162345.935000", "162347.425000", "162348.915000", "162350.405000", "162351.895000", "162353.385000", "162354.875000", "162356.365000", "162357.855000", "162359.345000", "162400.835000", "162402.325000", "162403.815000", "162405.305000", "162406.795000", "162408.285000", "162409.775000", "162411.265000", "162412.755000", "162414.245000", "162415.735000", "162417.225000", "162418.715000", "162420.205000", "162421.695000", "162423.185000", "162424.675000", "162426.165000", "162427.655000", "162429.145000", "162430.635000", "162432.125000", "162433.615000", "162435.105000", "162436.595000", "162438.085000", "162439.575000", "162441.065000", "162442.555000", "162444.045000", "162445.535000", "162447.025000", "162448.515000", "162450.005000", "162451.495000", "162452.985000", "162454.475000", "162455.965000", "162457.455000", "162458.945000", "162500.435000", "162501.925000", "162503.415000", "162504.905000", "162506.395000", "162507.885000", "162509.375000", "162510.865000", "162512.355000", "162513.845000", "162515.335000", "162516.825000", "162518.315000", "162519.805000", "162521.295000", "162522.785000", "162524.275000", "162525.765000", "162527.255000", "162528.745000", "162530.235000", "162531.725000", "162533.215000", "162534.705000", "162536.195000", "162537.685000", "162539.175000", "162540.665000", "162542.155000", "162543.645000", "162545.135000", "162546.625000", "162548.115000", "162549.605000", "162551.095000", "162552.585000", "162554.075000", "162555.565000", "162557.055000", "162558.545000", "162600.035000", "162601.525000", "162603.015000", "162604.505000", "162605.995000", "162607.485000", "162608.975000", "162610.465000", "162611.955000", "162613.445000", "162614.935000", "162616.425000", "162617.915000", "162619.405000", "162620.895000", "162622.385000", "162623.875000", "162625.365000", "162626.855000", "162628.345000", "162629.835000", "162631.325000", "162632.815000", "162634.305000", "162635.795000", "162637.285000", "162638.775000", "162640.265000", "162641.755000", "162643.245000", "162644.735000", "162646.225000", "162647.715000", "162649.205000", "162650.695000", "162652.185000", "162653.675000", "162655.165000", "162656.655000", "162658.145000", "162659.635000", "162701.125000", "162702.615000", "162704.105000", "162705.595000", "162707.085000", "162708.575000", "162710.065000", "162711.555000", "162713.045000", "162714.535000", "162716.025000", "162717.515000", "162719.005000", "162720.495000", "162721.985000", "162723.475000", "162724.965000", "162726.455000", "162727.945000", "162729.435000", "162730.925000", "162732.415000", "162733.905000", "162735.395000", "162736.885000", "162738.375000", "162739.865000", "162741.355000", "162742.845000", "162744.335000", "162745.825000", "162747.315000", "162748.805000", "162750.295000", "162751.785000", "162753.275000", "162754.765000", "162756.255000", "162757.745000", "162759.235000", "162800.725000", "162802.215000", "162803.705000", "162805.195000", "162806.685000", "162808.175000", "162809.665000", "162811.155000", "162812.645000", "162814.135000", "162815.625000", "162817.115000", "162818.605000", "162820.095000", "162821.585000", "162823.075000", "162824.565000", "162826.055000", "162827.545000", "162829.035000", "162830.525000", "162832.015000", "162833.505000", "162834.995000", "162836.485000", "162837.975000", "162839.465000", "162840.955000", "162842.445000", "162843.935000", "162845.425000", "162846.915000", "162848.405000"],
      "ContentTime": ["161852.284000", "161852.295000", "161852.298000", "161852.301000", "161852.304000", "161852.308000", "161852.311000", "161852.314000", "161852.318000", "161852.321000", "161912.235000", "161912.239000", "161912.242000", "161912.245000", "161912.249000", "161912.252000", "161912.255000", "161912.258000", "161912.262000", "161912.265000", "161912.268000", "161912.272000", "161912.275000", "161912.278000", "161912.281000", "161912.285000", "161912.288000", "161912.291000", "161912.295000", "161912.298000", "161932.235000", "161932.239000", "161932.242000", "161932.245000", "161932.248000", "161932.252000", "161932.255000", "161932.258000", "161932.269000", "161932.273000", "161932.276000", "161932.279000", "161932.282000", "161932.286000", "161932.289000", "161932.292000", "161932.295000", "161932.299000", "161932.302000", "161932.305000", "161952.235000", "161952.239000", "161952.242000", "161952.245000", "161952.248000", "161952.252000", "161952.255000", "161952.258000", "161952.269000", "161952.272000", "161952.276000", "161952.279000", "161952.282000", "161952.285000", "161952.289000", "161952.292000", "161952.295000", "161952.299000", "161952.302000", "161952.305000", "161952.308000", "162012.234000", "162012.238000", "162012.241000", "162012.244000", "162012.257000", "162012.260000", "162012.264000", "162012.267000", "162012.270000", "162012.274000", "162012.277000", "162012.280000", "162012.283000", "162012.287000", "162012.290000", "162012.293000", "162012.305000", "162012.308000", "162012.312000", "162012.315000", "162052.235000", "162052.239000", "162052.242000", "162052.245000", "162052.249000", "162052.252000", "162052.268000", "162052.271000", "162052.275000", "162052.278000", "162052.281000", "162052.284000", "162052.288000", "162052.291000", "162052.295000", "162052.298000", "162052.301000", "162052.304000", "162052.308000", "162052.311000", "162052.314000", "162052.318000", "162052.321000", "162052.324000", "162052.328000", "162052.331000", "162052.334000", "162052.337000", "162052.341000", "162052.344000", "162052.347000", "162132.235000", "162132.239000", "162132.242000", "162132.245000", "162132.249000", "162132.252000", "162132.255000", "162132.259000", "162132.262000", "162132.265000", "162132.269000", "162132.272000", "162132.276000", "162132.279000", "162132.282000", "162132.286000", "162132.297000", "162132.300000", "162132.304000", "162132.307000", "162132.310000", "162132.313000", "162132.317000", "162132.320000", "162132.323000", "162132.326000", "162212.235000", "162212.239000", "162212.242000", "162212.245000", "162212.249000", "162212.252000", "162212.255000", "162212.258000", "162212.262000", "162212.265000", "162212.268000", "162212.272000", "162212.275000", "162212.278000", "162212.282000", "162212.285000", "162212.288000", "162212.292000", "162212.295000", "162212.298000", "162212.302000", "162212.305000", "162212.308000", "162212.312000", "162212.315000", "162212.318000", "162212.321000", "162252.235000", "162252.239000", "162252.242000", "162252.245000", "162252.249000", "162252.252000", "162252.256000", "162252.259000", "162252.262000", "162252.265000", "162252.269000", "162252.272000", "162252.275000", "162252.279000", "162252.282000", "162252.285000", "162252.289000", "162252.292000", "162252.295000", "162252.299000", "162252.302000", "162252.305000", "162252.308000", "162252.312000", "162252.315000", "162252.318000", "162252.321000", "162332.235000", "162332.239000", "162332.242000", "162332.245000", "162332.249000", "162332.252000", "162332.255000", "162332.259000", "162332.262000", "162332.265000", "162332.268000", "162332.272000", "162332.275000", "162332.278000", "162332.282000", "162332.285000", "162332.288000", "162332.292000", "162332.295000", "162332.298000", "162332.301000", "162332.305000", "162332.308000", "162332.311000", "162332.315000", "162332.318000", "162332.321000", "162412.235000", "162412.239000", "162412.242000", "162412.245000", "162412.249000", "162412.252000", "162412.255000", "162412.259000", "162412.262000", "162412.265000", "162412.269000", "162412.272000", "162412.276000", "162412.279000", "162412.282000", "162412.286000", "162412.289000", "162412.292000", "162412.295000", "162412.299000", "162412.302000", "162412.305000", "162412.309000", "162412.312000", "162412.315000", "162412.318000", "162412.322000", "162452.234000", "162452.238000", "162452.241000", "162452.245000", "162452.248000", "162452.251000", "162452.254000", "162452.258000", "162452.261000", "162452.264000", "162452.267000", "162452.271000", "162452.274000", "162452.277000", "162452.281000", "162452.284000", "162452.287000", "162452.290000", "162452.294000", "162452.297000", "162452.300000", "162452.303000", "162452.307000", "162452.310000", "162452.313000", "162452.317000", "162452.320000", "162532.236000", "162532.241000", "162532.245000", "162532.249000", "162532.252000", "162532.256000", "162532.259000", "162532.263000", "162532.266000", "162532.270000", "162532.278000", "162532.282000", "162532.285000", "162532.288000", "162532.292000", "162532.295000", "162532.298000", "162532.301000", "162532.305000", "162532.308000", "162532.311000", "162532.314000", "162532.318000", "162532.321000", "162532.324000", "162532.328000", "162612.235000", "162612.239000", "162612.242000", "162612.246000", "162612.249000", "162612.252000", "162612.255000", "162612.259000", "162612.262000", "162612.265000", "162612.269000", "162612.272000", "162612.275000", "162612.278000", "162612.282000", "162612.285000", "162612.288000", "162612.292000", "162612.295000", "162612.298000", "162612.301000", "162612.305000", "162612.308000", "162612.311000", "162612.315000", "162612.318000", "162612.321000", "162652.234000", "162652.238000", "162652.241000", "162652.245000", "162652.248000", "162652.251000", "162652.254000", "162652.258000", "162652.261000", "162652.264000", "162652.268000", "162652.271000", "162652.274000", "162652.277000", "162652.281000", "162652.284000", "162652.287000", "162652.291000", "162652.294000", "162652.297000", "162652.301000", "162652.304000", "162652.307000", "162652.310000", "162652.314000", "162652.317000", "162652.322000", "162732.234000", "162732.238000", "162732.241000", "162732.244000", "162732.248000", "162732.251000", "162732.254000", "162732.258000", "162732.261000", "162732.264000", "162732.268000", "162732.271000", "162732.274000", "162732.277000", "162732.281000", "162732.284000", "162732.287000", "162732.291000", "162732.294000", "162732.297000", "162732.300000", "162732.304000", "162732.335000", "162732.338000", "162732.341000", "162732.345000", "162732.348000", "162812.235000", "162812.239000", "162812.242000", "162812.245000", "162812.249000", "162812.252000", "162812.255000", "162812.259000", "162812.262000", "162812.265000", "162812.269000", "162812.272000", "162812.275000", "162812.279000", "162812.282000", "162812.285000", "162812.288000", "162812.292000", "162812.295000", "162812.298000", "162812.301000", "162812.305000", "162812.308000", "162812.311000", "162812.315000", "162812.318000", "162812.321000", "162851.021000", "162851.025000", "162851.028000", "162851.031000", "162851.035000", "162851.038000", "162851.041000", "162851.045000", "162851.048000", "162851.051000", "162851.054000", "162851.058000", "162851.061000", "162851.064000", "162851.068000", "162851.071000", "162851.074000", "162851.077000", "162851.081000", "162851.084000", "162851.087000", "162851.091000", "162851.094000", "162851.097000", "162851.100000", "162851.104000"],
