{
  "AcquisitionMatrixPE": 104,
  "AcquisitionNumber": 1,
  "AcquisitionTime": "16:17:49.825000",
  "BandwidthPerPixelPhaseEncode": 17.17,
  "BaseResolution": 104,
  "BodyPartExamined": "BRAIN",
  "CoilCombinationMethod": "Sum of Squares",
  "ConsistencyInfo": "N4_VE11C_LATEST_20160120",
  "ConversionSoftware": "dcm2niix",
  "ConversionSoftwareVersion": "v1.0.20211006",
  "DerivedVendorReportedEchoSpacing": 0.000560011,
  "DeviceSerialNumber": "167006",
  "DwellTime": 2.1e-06,
  "EchoTime": 0.037,
  "EchoTime1": 0.037,
  "EchoTime2": 0.001,
  "EchoTrainLength": 104,
  "EffectiveEchoSpacing": 0.000560011,
  "FlipAngle": 52,
  "HeudiconvVersion": "0.10.0",
  "ImageComments": "Unaliased MB4/PE3/LB",
  "ImageOrientationPatientDICOM": [0.99622, 0.0555546, 0.0667827, -0.0276529, 0.931591, -0.362456],
  "ImageOrientationText": "Tra>Cor(-21.1)>Sag(4.7)",
  "ImageType": [
    "ORIGINAL",
    "PRIMARY",
    "P",
    "MB",
    "ND",
    "MOSAIC",
    "PHASE"
],
  "ImagingFrequency": 123.259,
  "InPlanePhaseEncodingDirectionDICOM": "COL",
  "InstitutionAddress": "Chemin Queen-Mary 4565,Montreal,District,CA,H3W 1W5",
  "InstitutionName": "IUGM",
  "InstitutionalDepartmentName": "Department",
  "MRAcquisitionType": "2D",
  "MagneticFieldStrength": 3,
  "Manufacturer": "Siemens",
  "ManufacturersModelName": "Prisma_fit",
  "MatrixCoilMode": "SENSE",
  "Modality": "MR",
  "MultibandAccelerationFactor": 4,
  "PartialFourier": 1,
  "PatientPosition": "HFS",
  "PercentPhaseFOV": 100,
  "PercentSampling": 100,
  "PhaseEncodingDirection": "j",
  "PhaseEncodingSteps": 104,
  "PhaseResolution": 1,
  "PixelBandwidth": 2290,
  "ProcedureStepDescription": "games^mario",
  "ProtocolName": "func_task-mario_run-05",
  "PulseSequenceDetails": "%CustomerSeq%\\cmrr_mbep2d_bold",
  "ReceiveCoilActiveElements": "HC1-7;NC1,2",
  "ReceiveCoilName": "HeadNeck_64",
  "ReconMatrixPE": 104,
  "RepetitionTime": 1.49,
  "SAR": 0.0717892,
  "ScanOptions": "FS",
  "ScanningSequence": "EP",
  "SequenceName": "epfid2d1_104",
  "SequenceVariant": "SK\\SS",
  "SeriesDescription": "func_task-mario_run-05",
  "SeriesNumber": 23,
  "ShimSetting": [644, -7154, -8844, 636, 101, 146, -8, -16],
  "SliceThickness": 2,
  "SliceTiming": [0, 0.785, 0.0975, 0.8825, 0.195, 0.98, 0.295, 1.0775, 0.3925, 1.175, 0.49, 1.275, 0.5875, 1.3725, 0.685, 0, 0.785, 0.0975, 0.8825, 0.195, 0.98, 0.295, 1.0775, 0.3925, 1.175, 0.49, 1.275, 0.5875, 1.3725, 0.685, 0, 0.785, 0.0975, 0.8825, 0.195, 0.98, 0.295, 1.0775, 0.3925, 1.175, 0.49, 1.275, 0.5875, 1.3725, 0.685, 0, 0.785, 0.0975, 0.8825, 0.195, 0.98, 0.295, 1.0775, 0.3925, 1.175, 0.49, 1.275, 0.5875, 1.3725, 0.685],
  "SoftwareVersions": "syngo MR E11",
  "SpacingBetweenSlices": 2,
  "StationName": "MRC35049",
  "TaskName": "mario",
  "TotalReadoutTime": 0.0576811,
  "TxRefAmp": 323.19,
  "WipMemBlock": "27df6b54-42b5-4734-90e5-cc052df5d679||Sequence: R016 ve11c/master r/e634e98; Dec 19 2017 11:00:25 by eja",
  "dcmmeta_affine": [
    [-1.9924395084381104, -0.05530581623315811, 0.16470037400722504, 105.2868423461914],
    [-0.11110913753509521, 1.863181471824646, -0.7184772491455078, -53.57656478881836],
    [0.13356535136699677, 0.7249110341072083, 1.859210729598999, -75.32479095458984],
    [0.0, 0.0, 0.0, 1.0]
],
  "dcmmeta_reorient_transform": [
    [0.0, -1.0, 0.0, 103.0],
    [1.0, 0.0, 0.0, 0.0],
    [0.0, 0.0, 1.0, 0.0],
    [0.0, 0.0, 0.0, 1.0]
],
  "dcmmeta_shape": [104, 104, 60, 443],
  "dcmmeta_slice_dim": 2,
  "dcmmeta_version": 0.6,
  "global": {
    "const": {
      "AcquisitionMatrix": [104, 0, 0, 104],
      "AngioFlag": "N",
      "BitsAllocated": 16,
      "BitsStored": 16,
      "BodyPartExamined": "BRAIN",
      "Columns": 832,
      "EchoNumbers": 1,
      "EchoTime": 37.0,
      "EchoTrainLength": 104,
      "FlipAngle": 52.0,
      "HighBit": 15,
      "ImageOrientationPatient": [0.99621973691444, 0.05555456942053, 0.06678267438964, -0.0276529085247, 0.93159074144085, -0.3624555243224],
      "ImagePositionPatient": [-804.70699553221, -856.97291316304, 214.59087941187],
      "ImageType": [
        "ORIGINAL",
        "PRIMARY",
        "P",
        "MB",
        "ND",
        "MOSAIC"
],
      "ImagedNucleus": "1H",
      "ImagingFrequency": 123.258894,
      "InPlanePhaseEncodingDirection": "COL",
      "LargestImagePixelValue": 4095,
      "MRAcquisitionType": "2D",
      "MagneticFieldStrength": 3.0,
      "Manufacturer": "SIEMENS",
      "ManufacturerModelName": "Prisma_fit",
      "Modality": "MR",
      "NumberOfAverages": 1.0,
      "NumberOfPhaseEncodingSteps": 104,
      "PercentPhaseFieldOfView": 100.0,
      "PercentSampling": 100.0,
      "PerformedProcedureStepStartTime": "142512.260000",
      "PhotometricInterpretation": "MONOCHROME2",
      "PixelBandwidth": 2290.0,
      "PixelRepresentation": 0,
      "PixelSpacing": [2.0, 2.0],
      "ProtocolName": "func_task-mario_run-05",
      "RepetitionTime": 1490.0,
      "RescaleIntercept": -4096.0,
      "RescaleSlope": 2.0,
      "RescaleType": "US",
      "Rows": 832,
      "SAR": 0.07178916673227,
      "SamplesPerPixel": 1,
      "ScanOptions": "FS",
      "ScanningSequence": "EP",
      "SequenceName": "epfid2d1_104",
      "SequenceVariant": [
        "SK",
        "SS"
],
      "SeriesDescription": "func_task-mario_run-05",
      "SeriesNumber": 23,
      "SeriesTime": "161852.350000",
      "SliceLocation": -42.105167422713,
      "SliceThickness": 2.0,
      "SmallestImagePixelValue": 0,
      "SoftwareVersions": "syngo MR E11",
      "SpacingBetweenSlices": 2.0000000479459,
      "SpecificCharacterSet": "ISO_IR 100",
      "StudyID": "1",
      "StudyTime": "142512.180000",
      "TransmitCoilName": "Body",
      "VariableFlipAngleFlag": "N",
      "WindowCenterWidthExplanation": "Algo1",
      "dBdt": 0.0},
    "slices": {}
  },
  "time": {
    "samples": {
      "AcquisitionNumber": [1, 2, 3, 4, 5, 6, 7, 8, 9, 10, 11, 12, 13, 14, 15, 16, 17, 18, 19, 20, 21, 22, 23, 24, 25, 26, 27, 28, 29, 30, 31, 32, 33, 34, 35, 36, 37, 38, 39, 40, 41, 42, 43, 44, 45, 46, 47, 48, 49, 50, 51, 52, 53, 54, 55, 56, 57, 58, 59, 60, 61, 62, 63, 64, 65, 66, 67, 68, 69, 70, 71, 72, 73, 74, 75, 76, 77, 78, 79, 80, 81, 82, 83, 84, 85, 86, 87, 88, 89, 90, 91, 92, 93, 94, 95, 96, 97, 98, 99, 100, 101, 102, 103, 104, 105, 106, 107, 108, 109, 110, 111, 112, 113, 114, 115, 116, 117, 118, 119, 120, 121, 122, 123, 124, 125, 126, 127, 128, 129, 130, 131, 132, 133, 134, 135, 136, 137, 138, 139, 140, 141, 142, 143, 144, 145, 146, 147, 148, 149, 150, 151, 152, 153, 154, 155, 156, 157, 158, 159, 160, 161, 162, 163, 164, 165, 166, 167, 168, 169, 170, 171, 172, 173, 174, 175, 176, 177, 178, 179, 180, 181, 182, 183, 184, 185, 186, 187, 188, 189, 190, 191, 192, 193, 194, 195, 196, 197, 198, 199, 200, 201, 202, 203, 204, 205, 206, 207, 208, 209, 210, 211, 212, 213, 214, 215, 216, 217, 218, 219, 220, 221, 222, 223, 224, 225, 226, 227, 228, 229, 230, 231, 232, 233, 234, 235, 236, 237, 238, 239, 240, 241, 242, 243, 244, 245, 246, 247, 248, 249, 250, 251, 252, 253, 254, 255, 256, 257, 258, 259, 260, 261, 262, 263, 264, 265, 266, 267, 268, 269, 270, 271, 272, 273, 274, 275, 276, 277, 278, 279, 280, 281, 282, 283, 284, 285, 286, 287, 288, 289, 290, 291, 292, 293, 294, 295, 296, 297, 298, 299, 300, 301, 302, 303, 304, 305, 306, 307, 308, 309, 310, 311, 312, 313, 314, 315, 316, 317, 318, 319, 320, 321, 322, 323, 324, 325, 326, 327, 328, 329, 330, 331, 332, 333, 334, 335, 336, 337, 338, 339, 340, 341, 342, 343, 344, 345, 346, 347, 348, 349, 350, 351, 352, 353, 354, 355, 356, 357, 358, 359, 360, 361, 362, 363, 364, 365, 366, 367, 368, 369, 370, 371, 372, 373, 374, 375, 376, 377, 378, 379, 380, 381, 382, 383, 384, 385, 386, 387, 388, 389, 390, 391, 392, 393, 394, 395, 396, 397, 398, 399, 400, 401, 402, 403, 404, 405, 406, 407, 408, 409, 410, 411, 412, 413, 414, 415, 416, 417, 418, 419, 420, 421, 422, 423, 424, 425, 426, 427, 428, 429, 430, 431, 432, 433, 434, 435, 436, 437, 438, 439, 440, 441, 442, 443],
      "AcquisitionTime": ["161749.825000", "161751.315000", "161752.805000", "161754.295000", "161755.785000", "161757.275000", "161758.765000", "161800.255000", "161801.745000", "161803.235000", "161804.725000", "161806.215000", "161807.705000", "161809.195000", "161810.685000", "161812.175000", "161813.665000", "161815.155000", "161816.645000", "161818.135000", "161819.625000", "161821.115000", "161822.605000", "161824.095000", "161825.585000", "161827.075000", "161828.565000", "161830.055000", "161831.545000", "161833.035000", "161834.525000", "161836.015000", "161837.505000", "161838.995000", "161840.485000", "161841.975000", "161843.465000", "161844.955000", "161846.445000", "161847.935000", "161849.425000", "161850.915000", "161852.405000", "161853.895000", "161855.385000", "161856.875000", "161858.365000", "161859.855000", "161901.345000", "161902.835000", "161904.325000", "161905.815000", "161907.305000", "161908.795000", "161910.285000", "161911.775000", "161913.265000", "161914.755000", "161916.245000", "161917.735000", "161919.225000", "161920.715000", "161922.205000", "161923.695000", "161925.185000", "161926.675000", "161928.165000", "161929.655000", "161931.145000", "161932.635000", "161934.125000", "161935.615000", "161937.105000", "161938.595000", "161940.085000", "161941.575000", "161943.065000", "161944.555000", "161946.045000", "161947.535000", "161949.025000", "161950.515000", "161952.005000", "161953.495000", "161954.985000", "161956.475000", "161957.965000", "161959.455000", "162000.945000", "162002.435000", "162003.925000", "162005.415000", "162006.905000", "162008.395000", "162009.885000", "162011.375000", "162012.865000", "162014.355000", "162015.845000", "162017.335000", "162018.825000", "162020.315000", "162021.805000", "162023.295000", "162024.785000", "162026.275000", "162027.765000", "162029.255000", "162030.745000", "162032.235000", "162033.725000", "162035.215000", "162036.705000", "162038.195000", "162039.685000", "162041.175000", "162042.665000", "162044.155000", "162045.645000", "162047.135000", "162048.625000", "162050.115000", "162051.605000", "162053.095000", "162054.585000", "162056.075000", "162057.565000", "162059.055000", "162100.545000", "162102.035000", "162103.525000", "162105.015000", "162106.505000", "162107.995000", "162109.485000", "162110.975000", "162112.465000", "162113.955000", "162115.445000", "162116.935000", "162118.425000", "162119.915000", "162121.405000", "162122.895000", "162124.385000", "162125.875000", "162127.365000", "162128.855000", "162130.345000", "162131.835000", "162133.325000", "162134.815000", "162136.305000", "162137.795000", "162139.285000", "162140.775000", "162142.265000", "162143.755000", "162145.245000", "162146.735000", "162148.225000", "162149.715000", "162151.205000", "162152.695000", "162154.185000", "162155.675000", "162157.165000", "162158.655000", "162200.145000", "162201.635000", "162203.125000", "162204.615000", "162206.105000", "162207.595000", "162209.085000", "162210.575000", "162212.065000", "162213.555000", "162215.045000", "162216.535000", "162218.025000", "162219.515000", "162221.005000", "162222.495000", "162223.985000", "162225.475000", "162226.965000", "162228.455000", "162229.945000", "162231.435000", "162232.925000", "162234.415000", "162235.905000", "162237.395000", "162238.885000", "162240.375000", "162241.865000", "162243.355000", "162244.845000", "162246.335000", "162247.825000", "162249.315000", "162250.805000", "162252.295000", "162253.785000", "162255.275000", "162256.765000", "162258.255000", "162259.745000", "162301.235000", "162302.725000", "162304.215000", "162305.705000", "162307.195000", "162308.685000", "162310.175000", "162311.665000", "162313.155000", "162314.645000", "162316.135000", "162317.625000", "162319.115000", "162320.605000", "162322.095000", "162323.585000", "162325.075000", "162326.565000", "162328.055000", "162329.545000", "162331.035000", "162332.525000", "162334.015000", "162335.505000", "162336.995000", "162338.485000", "162339.975000", "162341.465000", "162342.955000", "162344.445000", "162345.935000", "162347.425000", "162348.915000", "162350.405000", "162351.895000", "162353.385000", "162354.875000", "162356.365000", "162357.855000", "162359.345000", "162400.835000", "162402.325000", "162403.815000", "162405.305000", "162406.795000", "162408.285000", "162409.775000", "162411.265000", "162412.755000", "162414.245000", "162415.735000", "162417.225000", "162418.715000", "162420.205000", "162421.695000", "162423.185000", "162424.675000", "162426.165000", "162427.655000", "162429.145000", "162430.635000", "162432.125000", "162433.615000", "162435.105000", "162436.595000", "162438.085000", "162439.575000", "162441.065000", "162442.555000", "162444.045000", "162445.535000", "162447.025000", "162448.515000", "162450.005000", "162451.495000", "162452.985000", "162454.475000", "162455.965000", "162457.455000", "162458.945000", "162500.435000", "162501.925000", "162503.415000", "162504.905000", "162506.395000", "162507.885000", "162509.375000", "162510.865000", "162512.355000", "162513.845000", "162515.335000", "162516.825000", "162518.315000", "162519.805000", "162521.295000", "162522.785000", "162524.275000", "162525.765000", "162527.255000", "162528.745000", "162530.235000", "162531.725000", "162533.215000", "162534.705000", "162536.195000", "162537.685000", "162539.175000", "162540.665000", "162542.155000", "162543.645000", "162545.135000", "162546.625000", "162548.115000", "162549.605000", "162551.095000", "162552.585000", "162554.075000", "162555.565000", "162557.055000", "162558.545000", "162600.035000", "162601.525000", "162603.015000", "162604.505000", "162605.995000", "162607.485000", "162608.975000", "162610.465000", "162611.955000", "162613.445000", "162614.935000", "162616.425000", "162617.915000", "162619.405000", "162620.895000", "162622.385000", "162623.875000", "162625.365000", "162626.855000", "162628.345000", "162629.835000", "162631.325000", "162632.815000", "162634.305000", "162635.795000", "162637.285000", "162638.775000", "162640.265000", "162641.755000", "162643.245000", "162644.735000", "162646.225000", "162647.715000", "162649.205000", "162650.695000", "162652.185000", "162653.675000", "162655.165000", "162656.655000", "162658.145000", "162659.635000", "162701.125000", "162702.615000", "162704.105000", "162705.595000", "162707.085000", "162708.575000", "162710.065000", "162711.555000", "162713.045000", "162714.535000", "162716.025000", "162717.515000", "162719.005000", "162720.495000", "162721.985000", "162723.475000", "162724.965000", "162726.455000", "162727.945000", "162729.435000", "162730.925000", "162732.415000", "162733.905000", "162735.395000", "162736.885000", "162738.375000", "162739.865000", "162741.355000", "162742.845000", "162744.335000", "162745.825000", "162747.315000", "162748.805000", "162750.295000", "162751.785000", "162753.275000", "162754.765000", "162756.255000", "162757.745000", "162759.235000", "162800.725000", "162802.215000", "162803.705000", "162805.195000", "162806.685000", "162808.175000", "162809.665000", "162811.155000", "162812.645000", "162814.135000", "162815.625000", "162817.115000", "162818.605000", "162820.095000", "162821.585000", "162823.075000", "162824.565000", "162826.055000", "162827.545000", "162829.035000", "162830.525000", "162832.015000", "162833.505000", "162834.995000", "162836.485000", "162837.975000", "162839.465000", "162840.955000", "162842.445000", "162843.935000", "162845.425000", "162846.915000", "162848.405000"],
      "ContentTime": ["161852.352000", "161852.355000", "161852.357000", "161852.365000", "161852.367000", "161852.377000", "161852.380000", "161852.382000", "161852.385000", "161852.387000", "161912.344000", "161912.346000", "161912.349000", "161912.351000", "161912.358000", "161912.360000", "161912.363000", "161912.365000", "161912.367000", "161912.370000", "161912.372000", "161912.375000", "161912.377000", "161912.380000", "161912.382000", "161912.385000", "161912.387000", "161912.390000", "161912.392000", "161912.395000", "161932.355000", "161932.358000", "161932.360000", "161932.363000", "161932.366000", "161932.368000", "161932.371000", "161932.374000", "161932.376000", "161932.379000", "161932.381000", "161932.384000", "161932.386000", "161932.389000", "161932.391000", "161932.394000", "161932.396000", "161932.398000", "161932.401000", "161932.403000", "161952.359000", "161952.361000", "161952.364000", "161952.366000", "161952.369000", "161952.371000", "161952.374000", "161952.376000", "161952.379000", "161952.381000", "161952.385000", "161952.388000", "161952.390000", "161952.392000", "161952.395000", "161952.397000", "161952.400000", "161952.403000", "161952.405000", "161952.408000", "161952.410000", "162012.375000", "162012.378000", "162012.380000", "162012.383000", "162012.385000", "162012.388000", "162012.390000", "162012.392000", "162012.395000", "162012.398000", "162012.400000", "162012.403000", "162012.405000", "162012.408000", "162012.410000", "162012.413000", "162012.415000", "162012.417000", "162012.420000", "162012.422000", "162052.401000", "162052.404000", "162052.407000", "162052.409000", "162052.412000", "162052.414000", "162052.417000", "162052.419000", "162052.422000", "162052.424000", "162052.426000", "162052.429000", "162052.431000", "162052.434000", "162052.436000", "162052.439000", "162052.441000", "162052.444000", "162052.446000", "162052.449000", "162052.451000", "162052.454000", "162052.456000", "162052.459000", "162052.461000", "162052.464000", "162052.466000", "162052.469000", "162052.471000", "162052.474000", "162052.476000", "162132.374000", "162132.377000", "162132.380000", "162132.382000", "162132.385000", "162132.387000", "162132.390000", "162132.392000", "162132.395000", "162132.397000", "162132.400000", "162132.402000", "162132.405000", "162132.407000", "162132.410000", "162132.412000", "162132.415000", "162132.417000", "162132.420000", "162132.422000", "162132.425000", "162132.427000", "162132.430000", "162132.432000", "162132.435000", "162132.437000", "162212.370000", "162212.373000", "162212.375000", "162212.378000", "162212.380000", "162212.383000", "162212.385000", "162212.388000", "162212.390000", "162212.393000", "162212.395000", "162212.398000", "162212.400000", "162212.403000", "162212.405000", "162212.408000", "162212.410000", "162212.413000", "162212.415000", "162212.418000", "162212.420000", "162212.423000", "162212.425000", "162212.428000", "162212.430000", "162212.433000", "162212.435000", "162252.372000", "162252.375000", "162252.377000", "162252.380000", "162252.382000", "162252.385000", "162252.387000", "162252.390000", "162252.392000", "162252.395000", "162252.397000", "162252.400000", "162252.402000", "162252.405000", "162252.407000", "162252.410000", "162252.420000", "162252.423000", "162252.425000", "162252.428000", "162252.430000", "162252.433000", "162252.435000", "162252.438000", "162252.440000", "162252.443000", "162252.445000", "162332.386000", "162332.389000", "162332.391000", "162332.394000", "162332.396000", "162332.399000", "162332.402000", "162332.404000", "162332.407000", "162332.409000", "162332.411000", "162332.414000", "162332.416000", "162332.419000", "162332.421000", "162332.424000", "162332.426000", "162332.429000", "162332.431000", "162332.434000", "162332.436000", "162332.439000", "162332.441000", "162332.444000", "162332.446000", "162332.449000", "162332.451000", "162412.388000", "162412.391000", "162412.394000", "162412.396000", "162412.399000", "162412.401000", "162412.404000", "162412.406000", "162412.409000", "162412.411000", "162412.414000", "162412.416000", "162412.419000", "162412.421000", "162412.423000", "162412.426000", "162412.429000", "162412.431000", "162412.434000", "162412.436000", "162412.439000", "162412.441000", "162412.444000", "162412.446000", "162412.449000", "162412.451000", "162412.454000", "162452.374000", "162452.376000", "162452.379000", "162452.381000", "162452.384000", "162452.386000", "162452.389000", "162452.391000", "162452.394000", "162452.396000", "162452.399000", "162452.401000", "162452.404000", "162452.406000", "162452.409000", "162452.411000", "162452.414000", "162452.416000", "162452.419000", "162452.421000", "162452.424000", "162452.426000", "162452.429000", "162452.431000", "162452.434000", "162452.436000", "162452.439000", "162532.408000", "162532.410000", "162532.413000", "162532.415000", "162532.418000", "162532.420000", "162532.423000", "162532.425000", "162532.428000", "162532.430000", "162532.433000", "162532.435000", "162532.438000", "162532.440000", "162532.443000", "162532.445000", "162532.448000", "162532.451000", "162532.453000", "162532.456000", "162532.458000", "162532.461000", "162532.463000", "162532.466000", "162532.468000", "162532.471000", "162612.378000", "162612.380000", "162612.383000", "162612.394000", "162612.397000", "162612.399000", "162612.402000", "162612.404000", "162612.407000", "162612.409000", "162612.412000", "162612.414000", "162612.417000", "162612.419000", "162612.422000", "162612.424000", "162612.427000", "162612.429000", "162612.432000", "162612.434000", "162612.437000", "162612.439000", "162612.442000", "162612.444000", "162612.447000", "162612.450000", "162612.452000", "162652.368000", "162652.371000", "162652.374000", "162652.376000", "162652.379000", "162652.381000", "162652.384000", "162652.386000", "162652.389000", "162652.391000", "162652.394000", "162652.396000", "162652.399000", "162652.401000", "162652.404000", "162652.406000", "162652.409000", "162652.411000", "162652.414000", "162652.416000", "162652.419000", "162652.421000", "162652.424000", "162652.426000", "162652.429000", "162652.431000", "162652.434000", "162732.388000", "162732.391000", "162732.393000", "162732.396000", "162732.398000", "162732.401000", "162732.403000", "162732.406000", "162732.408000", "162732.411000", "162732.413000", "162732.416000", "162732.418000", "162732.421000", "162732.423000", "162732.426000", "162732.428000", "162732.431000", "162732.433000", "162732.436000", "162732.438000", "162732.441000", "162732.443000", "162732.446000", "162732.448000", "162732.451000", "162732.453000", "162812.363000", "162812.366000", "162812.368000", "162812.371000", "162812.373000", "162812.376000", "162812.378000", "162812.381000", "162812.383000", "162812.386000", "162812.388000", "162812.391000", "162812.393000", "162812.396000", "162812.398000", "162812.401000", "162812.403000", "162812.406000", "162812.408000", "162812.411000", "162812.413000", "162812.416000", "162812.418000", "162812.421000", "162812.423000", "162812.426000", "162812.429000", "162851.145000", "162851.148000", "162851.150000", "162851.153000", "162851.155000", "162851.158000", "162851.160000", "162851.163000", "162851.165000", "162851.168000", "162851.170000", "162851.173000", "162851.175000", "162851.178000", "162851.180000", "162851.183000", "162851.185000", "162851.188000", "162851.190000", "162851.193000", "162851.195000", "162851.198000", "162851.200000", "162851.203000", "162851.205000", "162851.208000"],
