{
  "AcquisitionMatrixPE": 104,
  "AcquisitionNumber": 1,
  "AcquisitionTime": "18:00:24.845000",
  "BandwidthPerPixelPhaseEncode": 17.17,
  "BaseResolution": 104,
  "BodyPartExamined": "BRAIN",
  "CoilString": "HC1-7;NC1_2",
  "ConsistencyInfo": "N4_VE11C_LATEST_20160120",
  "ConversionSoftware": "dcm2niix",
  "ConversionSoftwareVersion": "v1.0.20190902",
  "DerivedVendorReportedEchoSpacing": 0.000560011,
  "DeviceSerialNumber": "167006",
  "DwellTime": 2.1e-06,
  "EchoTime": 0.037,
  "EchoTrainLength": 104,
  "EffectiveEchoSpacing": 0.000560011,
  "FlipAngle": 52,
  "HeudiconvVersion": "0.10.0",
  "ImageComments": "Unaliased_MB4_PE3_LB",
  "ImageOrientationPatientDICOM": [0.999543, -0.00868814, 0.0289603, 0.0157021, 0.967695, -0.251635],
  "ImageType": [
    "ORIGINAL",
    "PRIMARY",
    "M",
    "MB",
    "ND",
    "MOSAIC"
],
  "ImagingFrequency": 123.259,
  "InPlanePhaseEncodingDirectionDICOM": "COL",
  "InstitutionAddress": "Chemin_Queen-Mary_4565_Montreal_District_CA_H3W_1W5",
  "InstitutionName": "IUGM",
  "InstitutionalDepartmentName": "Department",
  "MRAcquisitionType": "2D",
  "MagneticFieldStrength": 3,
  "Manufacturer": "Siemens",
  "ManufacturersModelName": "Prisma_fit",
  "Modality": "MR",
  "MultibandAccelerationFactor": 4,
  "PartialFourier": 1,
  "PatientPosition": "HFS",
  "PercentPhaseFOV": 100,
  "PhaseEncodingDirection": "j",
  "PhaseEncodingSteps": 104,
  "PhaseResolution": 1,
  "PixelBandwidth": 2290,
  "ProcedureStepDescription": "games_mario",
  "ProtocolName": "func_task-mario_run-02",
  "PulseSequenceDetails": "%CustomerSeq%_cmrr_mbep2d_bold",
  "ReceiveCoilActiveElements": "HC1-7;NC1,2",
  "ReceiveCoilName": "HeadNeck_64",
  "ReconMatrixPE": 104,
  "RepetitionTime": 1.49,
  "SAR": 0.0429173,
  "ScanOptions": "FS",
  "ScanningSequence": "EP",
  "SequenceName": "epfid2d1_104",
  "SequenceVariant": "SK_SS",
  "SeriesDescription": "func_task-mario_run-02",
  "SeriesNumber": 13,
  "ShimSetting": [635, -7207, -8794, 714, 23, 5, 74, -8],
  "SliceThickness": 2,
  "SliceTiming": [0, 0.785, 0.1, 0.8825, 0.1975, 0.98, 0.295, 1.0775, 0.3925, 1.1775, 0.49, 1.275, 0.5875, 1.3725, 0.6875, 0, 0.785, 0.1, 0.8825, 0.1975, 0.98, 0.295, 1.0775, 0.3925, 1.1775, 0.49, 1.275, 0.5875, 1.3725, 0.6875, 0, 0.785, 0.1, 0.8825, 0.1975, 0.98, 0.295, 1.0775, 0.3925, 1.1775, 0.49, 1.275, 0.5875, 1.3725, 0.6875, 0, 0.785, 0.1, 0.8825, 0.1975, 0.98, 0.295, 1.0775, 0.3925, 1.1775, 0.49, 1.275, 0.5875, 1.3725, 0.6875],
  "SoftwareVersions": "syngo_MR_E11",
  "SpacingBetweenSlices": 2,
  "StationName": "MRC35049",
  "TaskName": "mario",
  "TotalReadoutTime": 0.0576811,
  "TxRefAmp": 227.626,
  "WipMemBlock": "1b5d778d-bef0-4052-99e2-ee981d7a0474||Sequence: R016 ve11c/master r/e634e98; Dec 19 2017 11:00:25 by eja",
  "dcmmeta_affine": [
    [-1.9990856647491455, 0.031404171139001846, 0.051677048206329346, 106.62793731689453],
    [0.017376279458403587, 1.935389518737793, -0.503949761390686, -75.18418884277344],
    [0.0579206682741642, 0.5032703280448914, 1.9347776174545288, -65.16661834716797],
    [0.0, 0.0, 0.0, 1.0]
],
  "dcmmeta_reorient_transform": [
    [0.0, -1.0, 0.0, 103.0],
    [1.0, 0.0, 0.0, 0.0],
    [0.0, 0.0, 1.0, 0.0],
    [0.0, 0.0, 0.0, 1.0]
],
  "dcmmeta_shape": [104, 104, 60, 474],
  "dcmmeta_slice_dim": 2,
  "dcmmeta_version": 0.6,
  "global": {
    "const": {
      "AcquisitionMatrix": [104, 0, 0, 104],
      "AngioFlag": "N",
      "BitsAllocated": 16,
      "BitsStored": 16,
      "BodyPartExamined": "BRAIN",
      "Columns": 832,
      "EchoNumbers": 1,
      "EchoTime": 37.0,
      "EchoTrainLength": 104,
      "FlipAngle": 52.0,
      "HighBit": 15,
      "ImageOrientationPatient": [0.99954280311748, -0.0086881399993, 0.02896033424203, 0.01570208537265, 0.9676947784482, -0.2516351729767],
      "ImagePositionPatient": [-848.96084301846, -822.31777093122, 148.77751264125],
      "ImageType": [
        "ORIGINAL",
        "PRIMARY",
        "M",
        "MB",
        "ND",
        "MOSAIC"
],
      "ImagedNucleus": "1H",
      "ImagingFrequency": 123.258925,
      "InPlanePhaseEncodingDirection": "COL",
      "MRAcquisitionType": "2D",
      "MagneticFieldStrength": 3.0,
      "Manufacturer": "SIEMENS",
      "ManufacturerModelName": "Prisma_fit",
      "Modality": "MR",
      "NumberOfAverages": 1.0,
      "NumberOfPhaseEncodingSteps": 104,
      "PercentPhaseFieldOfView": 100.0,
      "PercentSampling": 100.0,
      "PerformedProcedureStepStartTime": "174413.415000",
      "PhotometricInterpretation": "MONOCHROME2",
      "PixelBandwidth": 2290.0,
      "PixelRepresentation": 0,
      "PixelSpacing": [2.0, 2.0],
      "ProtocolName": "func_task-mario_run-02",
      "RepetitionTime": 1490.0,
      "Rows": 832,
      "SAR": 0.04291725092243,
      "SamplesPerPixel": 1,
      "ScanOptions": "FS",
      "ScanningSequence": "EP",
      "SequenceName": "epfid2d1_104",
      "SequenceVariant": [
        "SK",
        "SS"
],
      "SeriesDescription": "func_task-mario_run-02",
      "SeriesNumber": 13,
      "SeriesTime": "180150.865000",
      "SliceLocation": -41.341818935625,
      "SliceThickness": 2.0,
      "SmallestImagePixelValue": 0,
      "SoftwareVersions": "syngo MR E11",
      "SpacingBetweenSlices": 2.0000000494238,
      "SpecificCharacterSet": "ISO_IR 100",
      "StudyID": "1",
      "StudyTime": "174413.330000",
      "TransmitCoilName": "Body",
      "VariableFlipAngleFlag": "N",
      "WindowCenterWidthExplanation": "Algo1",
      "dBdt": 0.0},
    "slices": {}
  },
  "time": {
    "samples": {
      "AcquisitionNumber": [1, 2, 3, 4, 5, 6, 7, 8, 9, 10, 11, 12, 13, 14, 15, 16, 17, 18, 19, 20, 21, 22, 23, 24, 25, 26, 27, 28, 29, 30, 31, 32, 33, 34, 35, 36, 37, 38, 39, 40, 41, 42, 43, 44, 45, 46, 47, 48, 49, 50, 51, 52, 53, 54, 55, 56, 57, 58, 59, 60, 61, 62, 63, 64, 65, 66, 67, 68, 69, 70, 71, 72, 73, 74, 75, 76, 77, 78, 79, 80, 81, 82, 83, 84, 85, 86, 87, 88, 89, 90, 91, 92, 93, 94, 95, 96, 97, 98, 99, 100, 101, 102, 103, 104, 105, 106, 107, 108, 109, 110, 111, 112, 113, 114, 115, 116, 117, 118, 119, 120, 121, 122, 123, 124, 125, 126, 127, 128, 129, 130, 131, 132, 133, 134, 135, 136, 137, 138, 139, 140, 141, 142, 143, 144, 145, 146, 147, 148, 149, 150, 151, 152, 153, 154, 155, 156, 157, 158, 159, 160, 161, 162, 163, 164, 165, 166, 167, 168, 169, 170, 171, 172, 173, 174, 175, 176, 177, 178, 179, 180, 181, 182, 183, 184, 185, 186, 187, 188, 189, 190, 191, 192, 193, 194, 195, 196, 197, 198, 199, 200, 201, 202, 203, 204, 205, 206, 207, 208, 209, 210, 211, 212, 213, 214, 215, 216, 217, 218, 219, 220, 221, 222, 223, 224, 225, 226, 227, 228, 229, 230, 231, 232, 233, 234, 235, 236, 237, 238, 239, 240, 241, 242, 243, 244, 245, 246, 247, 248, 249, 250, 251, 252, 253, 254, 255, 256, 257, 258, 259, 260, 261, 262, 263, 264, 265, 266, 267, 268, 269, 270, 271, 272, 273, 274, 275, 276, 277, 278, 279, 280, 281, 282, 283, 284, 285, 286, 287, 288, 289, 290, 291, 292, 293, 294, 295, 296, 297, 298, 299, 300, 301, 302, 303, 304, 305, 306, 307, 308, 309, 310, 311, 312, 313, 314, 315, 316, 317, 318, 319, 320, 321, 322, 323, 324, 325, 326, 327, 328, 329, 330, 331, 332, 333, 334, 335, 336, 337, 338, 339, 340, 341, 342, 343, 344, 345, 346, 347, 348, 349, 350, 351, 352, 353, 354, 355, 356, 357, 358, 359, 360, 361, 362, 363, 364, 365, 366, 367, 368, 369, 370, 371, 372, 373, 374, 375, 376, 377, 378, 379, 380, 381, 382, 383, 384, 385, 386, 387, 388, 389, 390, 391, 392, 393, 394, 395, 396, 397, 398, 399, 400, 401, 402, 403, 404, 405, 406, 407, 408, 409, 410, 411, 412, 413, 414, 415, 416, 417, 418, 419, 420, 421, 422, 423, 424, 425, 426, 427, 428, 429, 430, 431, 432, 433, 434, 435, 436, 437, 438, 439, 440, 441, 442, 443, 444, 445, 446, 447, 448, 449, 450, 451, 452, 453, 454, 455, 456, 457, 458, 459, 460, 461, 462, 463, 464, 465, 466, 467, 468, 469, 470, 471, 472, 473, 474],
      "AcquisitionTime": ["180024.845000", "180026.335000", "180027.825000", "180029.315000", "180030.805000", "180032.295000", "180033.785000", "180035.275000", "180036.765000", "180038.255000", "180039.745000", "180041.235000", "180042.725000", "180044.215000", "180045.705000", "180047.195000", "180048.685000", "180050.175000", "180051.665000", "180053.155000", "180054.645000", "180056.135000", "180057.625000", "180059.115000", "180100.605000", "180102.095000", "180103.585000", "180105.075000", "180106.565000", "180108.055000", "180109.545000", "180111.035000", "180112.525000", "180114.015000", "180115.505000", "180116.995000", "180118.485000", "180119.975000", "180121.465000", "180122.955000", "180124.445000", "180125.935000", "180127.425000", "180128.915000", "180130.405000", "180131.895000", "180133.385000", "180134.875000", "180136.365000", "180137.855000", "180139.345000", "180140.835000", "180142.325000", "180143.815000", "180145.305000", "180146.795000", "180148.285000", "180149.775000", "180151.265000", "180152.755000", "180154.245000", "180155.735000", "180157.225000", "180158.715000", "180200.205000", "180201.695000", "180203.185000", "180204.675000", "180206.165000", "180207.655000", "180209.145000", "180210.635000", "180212.125000", "180213.615000", "180215.105000", "180216.595000", "180218.085000", "180219.575000", "180221.065000", "180222.555000", "180224.045000", "180225.535000", "180227.025000", "180228.515000", "180230.005000", "180231.495000", "180232.985000", "180234.475000", "180235.965000", "180237.455000", "180238.945000", "180240.435000", "180241.925000", "180243.415000", "180244.905000", "180246.395000", "180247.885000", "180249.375000", "180250.865000", "180252.355000", "180253.845000", "180255.335000", "180256.825000", "180258.315000", "180259.805000", "180301.295000", "180302.785000", "180304.275000", "180305.765000", "180307.255000", "180308.745000", "180310.235000", "180311.725000", "180313.215000", "180314.705000", "180316.195000", "180317.685000", "180319.175000", "180320.665000", "180322.155000", "180323.645000", "180325.135000", "180326.625000", "180328.115000", "180329.605000", "180331.095000", "180332.585000", "180334.075000", "180335.565000", "180337.055000", "180338.545000", "180340.035000", "180341.525000", "180343.015000", "180344.505000", "180345.995000", "180347.485000", "180348.975000", "180350.465000", "180351.955000", "180353.445000", "180354.935000", "180356.425000", "180357.915000", "180359.405000", "180400.895000", "180402.385000", "180403.875000", "180405.365000", "180406.855000", "180408.345000", "180409.835000", "180411.325000", "180412.815000", "180414.305000", "180415.795000", "180417.285000", "180418.775000", "180420.265000", "180421.755000", "180423.245000", "180424.735000", "180426.225000", "180427.715000", "180429.205000", "180430.695000", "180432.185000", "180433.675000", "180435.165000", "180436.655000", "180438.145000", "180439.635000", "180441.125000", "180442.615000", "180444.105000", "180445.595000", "180447.085000", "180448.575000", "180450.065000", "180451.555000", "180453.045000", "180454.535000", "180456.025000", "180457.515000", "180459.005000", "180500.495000", "180501.985000", "180503.475000", "180504.965000", "180506.455000", "180507.945000", "180509.435000", "180510.925000", "180512.415000", "180513.905000", "180515.395000", "180516.885000", "180518.375000", "180519.865000", "180521.355000", "180522.845000", "180524.335000", "180525.825000", "180527.315000", "180528.805000", "180530.295000", "180531.785000", "180533.275000", "180534.765000", "180536.255000", "180537.745000", "180539.235000", "180540.725000", "180542.215000", "180543.705000", "180545.195000", "180546.685000", "180548.175000", "180549.665000", "180551.155000", "180552.645000", "180554.135000", "180555.625000", "180557.115000", "180558.605000", "180600.095000", "180601.585000", "180603.075000", "180604.565000", "180606.055000", "180607.545000", "180609.035000", "180610.525000", "180612.015000", "180613.505000", "180614.995000", "180616.485000", "180617.975000", "180619.465000", "180620.955000", "180622.445000", "180623.935000", "180625.425000", "180626.915000", "180628.405000", "180629.895000", "180631.385000", "180632.875000", "180634.365000", "180635.855000", "180637.345000", "180638.835000", "180640.325000", "180641.815000", "180643.305000", "180644.795000", "180646.285000", "180647.775000", "180649.265000", "180650.755000", "180652.245000", "180653.735000", "180655.225000", "180656.715000", "180658.205000", "180659.695000", "180701.185000", "180702.675000", "180704.165000", "180705.655000", "180707.145000", "180708.635000", "180710.125000", "180711.615000", "180713.105000", "180714.595000", "180716.085000", "180717.575000", "180719.065000", "180720.555000", "180722.045000", "180723.535000", "180725.025000", "180726.515000", "180728.005000", "180729.495000", "180730.985000", "180732.475000", "180733.965000", "180735.455000", "180736.945000", "180738.435000", "180739.925000", "180741.415000", "180742.905000", "180744.395000", "180745.885000", "180747.375000", "180748.865000", "180750.355000", "180751.845000", "180753.335000", "180754.825000", "180756.315000", "180757.805000", "180759.295000", "180800.785000", "180802.275000", "180803.765000", "180805.255000", "180806.745000", "180808.235000", "180809.725000", "180811.215000", "180812.705000", "180814.195000", "180815.685000", "180817.175000", "180818.665000", "180820.155000", "180821.645000", "180823.135000", "180824.625000", "180826.115000", "180827.605000", "180829.095000", "180830.585000", "180832.075000", "180833.565000", "180835.055000", "180836.545000", "180838.035000", "180839.525000", "180841.015000", "180842.505000", "180843.995000", "180845.485000", "180846.975000", "180848.465000", "180849.955000", "180851.445000", "180852.935000", "180854.425000", "180855.915000", "180857.405000", "180858.895000", "180900.385000", "180901.875000", "180903.365000", "180904.855000", "180906.345000", "180907.835000", "180909.325000", "180910.815000", "180912.305000", "180913.795000", "180915.285000", "180916.775000", "180918.265000", "180919.755000", "180921.245000", "180922.735000", "180924.225000", "180925.715000", "180927.205000", "180928.695000", "180930.185000", "180931.675000", "180933.165000", "180934.655000", "180936.145000", "180937.635000", "180939.125000", "180940.615000", "180942.105000", "180943.595000", "180945.085000", "180946.575000", "180948.065000", "180949.555000", "180951.045000", "180952.535000", "180954.025000", "180955.515000", "180957.005000", "180958.495000", "180959.985000", "181001.475000", "181002.965000", "181004.455000", "181005.945000", "181007.435000", "181008.925000", "181010.415000", "181011.905000", "181013.395000", "181014.885000", "181016.375000", "181017.865000", "181019.355000", "181020.845000", "181022.335000", "181023.825000", "181025.315000", "181026.805000", "181028.295000", "181029.785000", "181031.275000", "181032.765000", "181034.255000", "181035.745000", "181037.235000", "181038.725000", "181040.215000", "181041.705000", "181043.195000", "181044.685000", "181046.175000", "181047.665000", "181049.155000", "181050.645000", "181052.135000", "181053.625000", "181055.115000", "181056.605000", "181058.095000", "181059.585000", "181101.075000", "181102.565000", "181104.055000", "181105.545000", "181107.035000", "181108.525000", "181110.015000", "181111.505000", "181112.995000", "181114.485000", "181115.975000", "181117.465000", "181118.955000", "181120.445000", "181121.935000", "181123.425000", "181124.915000", "181126.405000", "181127.895000", "181129.385000", "181130.875000", "181132.365000", "181133.855000", "181135.345000", "181136.835000", "181138.325000", "181139.815000", "181141.305000", "181142.795000", "181144.285000", "181145.775000", "181147.265000", "181148.755000", "181150.245000", "181151.735000", "181153.225000", "181154.715000", "181156.205000", "181157.695000", "181159.185000", "181200.675000", "181202.165000", "181203.655000", "181205.145000", "181206.635000", "181208.125000", "181209.615000"],
      "ContentTime": ["180150.870000", "180150.874000", "180150.877000", "180150.881000", "180150.884000", "180150.887000", "180150.915000", "180150.919000", "180150.922000", "180150.925000", "180150.928000", "180150.932000", "180150.935000", "180150.938000", "180150.941000", "180150.945000", "180150.948000", "180150.951000", "180150.954000", "180150.958000", "180150.961000", "180150.964000", "180150.967000", "180150.970000", "180150.974000", "180150.977000", "180150.980000", "180150.983000", "180150.986000", "180150.990000", "180150.993000", "180210.833000", "180210.837000", "180210.840000", "180210.843000", "180210.846000", "180210.850000", "180210.853000", "180210.856000", "180210.859000", "180210.863000", "180210.866000", "180210.869000", "180210.872000", "180210.875000", "180210.878000", "180210.882000", "180210.885000", "180210.888000", "180210.892000", "180210.895000", "180210.898000", "180230.832000", "180230.836000", "180230.839000", "180230.848000", "180230.851000", "180230.854000", "180230.857000", "180230.873000", "180230.876000", "180230.880000", "180230.883000", "180230.886000", "180230.889000", "180230.892000", "180230.896000", "180230.899000", "180230.902000", "180230.905000", "180230.909000", "180230.912000", "180250.833000", "180250.837000", "180250.840000", "180250.843000", "180250.846000", "180250.850000", "180250.853000", "180250.856000", "180250.859000", "180250.862000", "180250.866000", "180250.869000", "180250.872000", "180250.875000", "180250.878000", "180250.882000", "180250.885000", "180250.888000", "180250.891000", "180250.895000", "180330.833000", "180330.837000", "180330.840000", "180330.843000", "180330.846000", "180330.850000", "180330.853000", "180330.856000", "180330.859000", "180330.863000", "180330.866000", "180330.869000", "180330.872000", "180330.875000", "180330.879000", "180330.882000", "180330.885000", "180330.888000", "180330.892000", "180330.895000", "180330.898000", "180330.901000", "180330.905000", "180330.908000", "180330.911000", "180330.914000", "180330.918000", "180330.921000", "180330.924000", "180330.927000", "180330.930000", "180330.934000", "180410.833000", "180410.837000", "180410.840000", "180410.843000", "180410.846000", "180410.849000", "180410.853000", "180410.856000", "180410.859000", "180410.863000", "180410.866000", "180410.869000", "180410.872000", "180410.876000", "180410.879000", "180410.882000", "180410.885000", "180410.888000", "180410.892000", "180410.895000", "180410.898000", "180410.901000", "180410.904000", "180410.908000", "180410.911000", "180410.914000", "180410.917000", "180450.832000", "180450.836000", "180450.839000", "180450.842000", "180450.845000", "180450.849000", "180450.852000", "180450.855000", "180450.858000", "180450.873000", "180450.876000", "180450.879000", "180450.882000", "180450.886000", "180450.889000", "180450.892000", "180450.895000", "180450.899000", "180450.902000", "180450.905000", "180450.908000", "180450.911000", "180450.915000", "180450.918000", "180450.921000", "180450.924000", "180450.928000", "180530.833000", "180530.837000", "180530.840000", "180530.843000", "180530.847000", "180530.850000", "180530.853000", "180530.856000", "180530.860000", "180530.863000", "180530.866000", "180530.869000", "180530.872000", "180530.876000", "180530.879000", "180530.882000", "180530.886000", "180530.889000", "180530.892000", "180530.895000", "180530.898000", "180530.902000", "180530.905000", "180530.908000", "180530.911000", "180530.915000", "180530.918000", "180610.833000", "180610.837000", "180610.840000", "180610.843000", "180610.846000", "180610.849000", "180610.853000", "180610.856000", "180610.859000", "180610.862000", "180610.866000", "180610.869000", "180610.872000", "180610.875000", "180610.879000", "180610.882000", "180610.885000", "180610.888000", "180610.892000", "180610.895000", "180610.898000", "180610.901000", "180610.905000", "180610.908000", "180610.911000", "180610.914000", "180610.917000", "180650.833000", "180650.837000", "180650.840000", "180650.843000", "180650.856000", "180650.859000", "180650.862000", "180650.866000", "180650.869000", "180650.872000", "180650.875000", "180650.879000", "180650.882000", "180650.885000", "180650.888000", "180650.892000", "180650.895000", "180650.898000", "180650.901000", "180650.905000", "180650.908000", "180650.912000", "180650.915000", "180650.918000", "180650.921000", "180650.925000", "180730.833000", "180730.848000", "180730.851000", "180730.854000", "180730.857000", "180730.860000", "180730.864000", "180730.867000", "180730.870000", "180730.874000", "180730.877000", "180730.880000", "180730.883000", "180730.886000", "180730.890000", "180730.893000", "180730.896000", "180730.900000", "180730.903000", "180730.906000", "180730.909000", "180730.912000", "180730.916000", "180730.919000", "180730.922000", "180730.926000", "180730.929000", "180810.833000", "180810.837000", "180810.840000", "180810.843000", "180810.847000", "180810.850000", "180810.853000", "180810.856000", "180810.859000", "180810.863000", "180810.866000", "180810.869000", "180810.872000", "180810.876000", "180810.879000", "180810.883000", "180810.886000", "180810.889000", "180810.893000", "180810.896000", "180810.899000", "180810.902000", "180810.905000", "180810.909000", "180810.912000", "180810.915000", "180810.918000", "180830.833000", "180830.837000", "180830.840000", "180830.844000", "180830.847000", "180830.850000", "180830.853000", "180830.856000", "180830.860000", "180830.863000", "180830.866000", "180830.870000", "180830.873000", "180830.876000", "180910.832000", "180910.836000", "180910.839000", "180910.842000", "180910.846000", "180910.849000", "180910.852000", "180910.856000", "180910.859000", "180910.862000", "180910.865000", "180910.869000", "180910.872000", "180910.875000", "180910.878000", "180910.882000", "180910.885000", "180910.888000", "180910.892000", "180910.895000", "180910.898000", "180910.901000", "180910.904000", "180910.908000", "180910.912000", "180910.915000", "180950.833000", "180950.848000", "180950.852000", "180950.855000", "180950.858000", "180950.862000", "180950.865000", "180950.868000", "180950.871000", "180950.875000", "180950.878000", "180950.881000", "180950.885000", "180950.888000", "180950.891000", "180950.894000", "180950.898000", "180950.901000", "180950.904000", "180950.907000", "180950.910000", "180950.914000", "180950.917000", "180950.920000", "180950.924000", "180950.927000", "180950.930000", "181030.833000", "181030.837000", "181030.840000", "181030.843000", "181030.847000", "181030.850000", "181030.853000", "181030.856000", "181030.859000", "181030.863000", "181030.866000", "181030.869000", "181030.872000", "181030.876000", "181030.879000", "181030.882000", "181030.885000", "181030.889000", "181030.892000", "181030.895000", "181030.898000", "181030.902000", "181030.905000", "181030.908000", "181030.911000", "181030.915000", "181030.918000", "181110.833000", "181110.837000", "181110.840000", "181110.843000", "181110.847000", "181110.850000", "181110.853000", "181110.856000", "181110.860000", "181110.863000", "181110.866000", "181110.870000", "181110.873000", "181110.876000", "181110.879000", "181110.883000", "181110.886000", "181110.889000", "181110.892000", "181110.896000", "181110.899000", "181110.902000", "181110.905000", "181110.909000", "181110.912000", "181110.915000", "181110.918000", "181150.832000", "181150.836000", "181150.839000", "181150.842000", "181150.846000", "181150.849000", "181150.852000", "181150.865000", "181150.868000", "181150.872000", "181150.875000", "181150.878000", "181150.881000", "181150.885000", "181150.888000", "181150.891000", "181150.894000", "181150.898000", "181150.901000", "181150.904000", "181150.907000", "181150.910000", "181150.914000", "181150.917000", "181150.920000", "181150.923000", "181150.927000", "181211.852000", "181211.855000", "181211.858000", "181211.862000", "181211.865000", "181211.868000", "181211.872000", "181211.875000", "181211.878000", "181211.881000", "181211.885000", "181211.888000", "181211.891000", "181211.894000"],
