{
  "AcquisitionMatrixPE": 104,
  "AcquisitionNumber": 1,
  "AcquisitionTime": "17:47:44.947500",
  "BandwidthPerPixelPhaseEncode": 17.17,
  "BaseResolution": 104,
  "BodyPartExamined": "BRAIN",
  "CoilString": "HC1-7;NC1_2",
  "ConsistencyInfo": "N4_VE11C_LATEST_20160120",
  "ConversionSoftware": "dcm2niix",
  "ConversionSoftwareVersion": "v1.0.20190902",
  "DerivedVendorReportedEchoSpacing": 0.000560011,
  "DeviceSerialNumber": "167006",
  "DwellTime": 2.1e-06,
  "EchoTime": 0.037,
  "EchoTrainLength": 104,
  "EffectiveEchoSpacing": 0.000560011,
  "FlipAngle": 52,
  "HeudiconvVersion": "0.10.0",
  "ImageComments": "Unaliased_MB4_PE3_LB",
  "ImageOrientationPatientDICOM": [0.999543, -0.00868814, 0.0289603, 0.0157021, 0.967695, -0.251635],
  "ImageType": [
    "ORIGINAL",
    "PRIMARY",
    "P",
    "MB",
    "ND",
    "MOSAIC"
],
  "ImagingFrequency": 123.259,
  "InPlanePhaseEncodingDirectionDICOM": "COL",
  "InstitutionAddress": "Chemin_Queen-Mary_4565_Montreal_District_CA_H3W_1W5",
  "InstitutionName": "IUGM",
  "InstitutionalDepartmentName": "Department",
  "MRAcquisitionType": "2D",
  "MagneticFieldStrength": 3,
  "Manufacturer": "Siemens",
  "ManufacturersModelName": "Prisma_fit",
  "Modality": "MR",
  "MultibandAccelerationFactor": 4,
  "PartialFourier": 1,
  "PatientPosition": "HFS",
  "PercentPhaseFOV": 100,
  "PhaseEncodingDirection": "j",
  "PhaseEncodingSteps": 104,
  "PhaseResolution": 1,
  "PixelBandwidth": 2290,
  "ProcedureStepDescription": "games_mario",
  "ProtocolName": "func_task-mario_run-01",
  "PulseSequenceDetails": "%CustomerSeq%_cmrr_mbep2d_bold",
  "ReceiveCoilActiveElements": "HC1-7;NC1,2",
  "ReceiveCoilName": "HeadNeck_64",
  "ReconMatrixPE": 104,
  "RepetitionTime": 1.49,
  "SAR": 0.0429173,
  "ScanOptions": "FS",
  "ScanningSequence": "EP",
  "SequenceName": "epfid2d1_104",
  "SequenceVariant": "SK_SS",
  "SeriesDescription": "func_task-mario_run-01",
  "SeriesNumber": 11,
  "ShimSetting": [635, -7207, -8794, 714, 23, 5, 74, -8],
  "SliceThickness": 2,
  "SliceTiming": [0, 0.785, 0.0975, 0.8825, 0.1975, 0.98, 0.295, 1.0775, 0.3925, 1.1775, 0.49, 1.275, 0.5875, 1.3725, 0.6875, 0, 0.785, 0.0975, 0.8825, 0.1975, 0.98, 0.295, 1.0775, 0.3925, 1.1775, 0.49, 1.275, 0.5875, 1.3725, 0.6875, 0, 0.785, 0.0975, 0.8825, 0.1975, 0.98, 0.295, 1.0775, 0.3925, 1.1775, 0.49, 1.275, 0.5875, 1.3725, 0.6875, 0, 0.785, 0.0975, 0.8825, 0.1975, 0.98, 0.295, 1.0775, 0.3925, 1.1775, 0.49, 1.275, 0.5875, 1.3725, 0.6875],
  "SoftwareVersions": "syngo_MR_E11",
  "SpacingBetweenSlices": 2,
  "StationName": "MRC35049",
  "TaskName": "mario",
  "TotalReadoutTime": 0.0576811,
  "TxRefAmp": 227.626,
  "WipMemBlock": "e9f6ad1f-1087-43e6-ad00-5939f1edfa05||Sequence: R016 ve11c/master r/e634e98; Dec 19 2017 11:00:25 by eja",
  "dcmmeta_affine": [
    [-1.9990856647491455, 0.031404171139001846, 0.051677048206329346, 106.62793731689453],
    [0.017376279458403587, 1.935389518737793, -0.503949761390686, -75.18418884277344],
    [0.0579206682741642, 0.5032703280448914, 1.9347776174545288, -65.16661834716797],
    [0.0, 0.0, 0.0, 1.0]
],
  "dcmmeta_reorient_transform": [
    [0.0, -1.0, 0.0, 103.0],
    [1.0, 0.0, 0.0, 0.0],
    [0.0, 0.0, 1.0, 0.0],
    [0.0, 0.0, 0.0, 1.0]
],
  "dcmmeta_shape": [104, 104, 60, 452],
  "dcmmeta_slice_dim": 2,
  "dcmmeta_version": 0.6,
  "global": {
    "const": {
      "AcquisitionMatrix": [104, 0, 0, 104],
      "AngioFlag": "N",
      "BitsAllocated": 16,
      "BitsStored": 16,
      "BodyPartExamined": "BRAIN",
      "Columns": 832,
      "EchoNumbers": 1,
      "EchoTime": 37.0,
      "EchoTrainLength": 104,
      "FlipAngle": 52.0,
      "HighBit": 15,
      "ImageOrientationPatient": [0.99954280311748, -0.0086881399993, 0.02896033424203, 0.01570208537265, 0.9676947784482, -0.2516351729767],
      "ImagePositionPatient": [-848.96084301846, -822.31777093122, 148.77751264125],
      "ImageType": [
        "ORIGINAL",
        "PRIMARY",
        "P",
        "MB",
        "ND",
        "MOSAIC"
],
      "ImagedNucleus": "1H",
      "ImagingFrequency": 123.258913,
      "InPlanePhaseEncodingDirection": "COL",
      "LargestImagePixelValue": 4095,
      "MRAcquisitionType": "2D",
      "MagneticFieldStrength": 3.0,
      "Manufacturer": "SIEMENS",
      "ManufacturerModelName": "Prisma_fit",
      "Modality": "MR",
      "NumberOfAverages": 1.0,
      "NumberOfPhaseEncodingSteps": 104,
      "PercentPhaseFieldOfView": 100.0,
      "PercentSampling": 100.0,
      "PerformedProcedureStepStartTime": "174413.415000",
      "PhotometricInterpretation": "MONOCHROME2",
      "PixelBandwidth": 2290.0,
      "PixelRepresentation": 0,
      "PixelSpacing": [2.0, 2.0],
      "ProtocolName": "func_task-mario_run-01",
      "RepetitionTime": 1490.0,
      "RescaleIntercept": -4096.0,
      "RescaleSlope": 2.0,
      "RescaleType": "US",
      "Rows": 832,
      "SAR": 0.04291725092243,
      "SamplesPerPixel": 1,
      "ScanOptions": "FS",
      "ScanningSequence": "EP",
      "SequenceName": "epfid2d1_104",
      "SequenceVariant": [
        "SK",
        "SS"
],
      "SeriesDescription": "func_task-mario_run-01",
      "SeriesNumber": 11,
      "SeriesTime": "174847.072000",
      "SliceLocation": -41.341818935625,
      "SliceThickness": 2.0,
      "SmallestImagePixelValue": 0,
      "SoftwareVersions": "syngo MR E11",
      "SpacingBetweenSlices": 2.0000000494238,
      "SpecificCharacterSet": "ISO_IR 100",
      "StudyID": "1",
      "StudyTime": "174413.330000",
      "TransmitCoilName": "Body",
      "VariableFlipAngleFlag": "N",
      "WindowCenterWidthExplanation": "Algo1",
      "dBdt": 0.0},
    "slices": {}
  },
  "time": {
    "samples": {
      "AcquisitionNumber": [1, 2, 3, 4, 5, 6, 7, 8, 9, 10, 11, 12, 13, 14, 15, 16, 17, 18, 19, 20, 21, 22, 23, 24, 25, 26, 27, 28, 29, 30, 31, 32, 33, 34, 35, 36, 37, 38, 39, 40, 41, 42, 43, 44, 45, 46, 47, 48, 49, 50, 51, 52, 53, 54, 55, 56, 57, 58, 59, 60, 61, 62, 63, 64, 65, 66, 67, 68, 69, 70, 71, 72, 73, 74, 75, 76, 77, 78, 79, 80, 81, 82, 83, 84, 85, 86, 87, 88, 89, 90, 91, 92, 93, 94, 95, 96, 97, 98, 99, 100, 101, 102, 103, 104, 105, 106, 107, 108, 109, 110, 111, 112, 113, 114, 115, 116, 117, 118, 119, 120, 121, 122, 123, 124, 125, 126, 127, 128, 129, 130, 131, 132, 133, 134, 135, 136, 137, 138, 139, 140, 141, 142, 143, 144, 145, 146, 147, 148, 149, 150, 151, 152, 153, 154, 155, 156, 157, 158, 159, 160, 161, 162, 163, 164, 165, 166, 167, 168, 169, 170, 171, 172, 173, 174, 175, 176, 177, 178, 179, 180, 181, 182, 183, 184, 185, 186, 187, 188, 189, 190, 191, 192, 193, 194, 195, 196, 197, 198, 199, 200, 201, 202, 203, 204, 205, 206, 207, 208, 209, 210, 211, 212, 213, 214, 215, 216, 217, 218, 219, 220, 221, 222, 223, 224, 225, 226, 227, 228, 229, 230, 231, 232, 233, 234, 235, 236, 237, 238, 239, 240, 241, 242, 243, 244, 245, 246, 247, 248, 249, 250, 251, 252, 253, 254, 255, 256, 257, 258, 259, 260, 261, 262, 263, 264, 265, 266, 267, 268, 269, 270, 271, 272, 273, 274, 275, 276, 277, 278, 279, 280, 281, 282, 283, 284, 285, 286, 287, 288, 289, 290, 291, 292, 293, 294, 295, 296, 297, 298, 299, 300, 301, 302, 303, 304, 305, 306, 307, 308, 309, 310, 311, 312, 313, 314, 315, 316, 317, 318, 319, 320, 321, 322, 323, 324, 325, 326, 327, 328, 329, 330, 331, 332, 333, 334, 335, 336, 337, 338, 339, 340, 341, 342, 343, 344, 345, 346, 347, 348, 349, 350, 351, 352, 353, 354, 355, 356, 357, 358, 359, 360, 361, 362, 363, 364, 365, 366, 367, 368, 369, 370, 371, 372, 373, 374, 375, 376, 377, 378, 379, 380, 381, 382, 383, 384, 385, 386, 387, 388, 389, 390, 391, 392, 393, 394, 395, 396, 397, 398, 399, 400, 401, 402, 403, 404, 405, 406, 407, 408, 409, 410, 411, 412, 413, 414, 415, 416, 417, 418, 419, 420, 421, 422, 423, 424, 425, 426, 427, 428, 429, 430, 431, 432, 433, 434, 435, 436, 437, 438, 439, 440, 441, 442, 443, 444, 445, 446, 447, 448, 449, 450, 451, 452],
      "AcquisitionTime": ["174744.947500", "174746.437500", "174747.927500", "174749.417500", "174750.907500", "174752.397500", "174753.887500", "174755.377500", "174756.867500", "174758.357500", "174759.847500", "174801.337500", "174802.827500", "174804.317500", "174805.807500", "174807.297500", "174808.787500", "174810.277500", "174811.767500", "174813.257500", "174814.747500", "174816.237500", "174817.727500", "174819.217500", "174820.707500", "174822.197500", "174823.687500", "174825.177500", "174826.667500", "174828.157500", "174829.647500", "174831.137500", "174832.627500", "174834.117500", "174835.607500", "174837.097500", "174838.587500", "174840.077500", "174841.567500", "174843.057500", "174844.547500", "174846.037500", "174847.527500", "174849.017500", "174850.507500", "174851.997500", "174853.487500", "174854.977500", "174856.467500", "174857.957500", "174859.447500", "174900.937500", "174902.427500", "174903.917500", "174905.407500", "174906.897500", "174908.387500", "174909.877500", "174911.367500", "174912.857500", "174914.347500", "174915.837500", "174917.327500", "174918.817500", "174920.307500", "174921.797500", "174923.287500", "174924.777500", "174926.267500", "174927.757500", "174929.247500", "174930.737500", "174932.227500", "174933.717500", "174935.207500", "174936.697500", "174938.187500", "174939.677500", "174941.167500", "174942.657500", "174944.147500", "174945.637500", "174947.127500", "174948.617500", "174950.107500", "174951.597500", "174953.087500", "174954.577500", "174956.067500", "174957.557500", "174959.047500", "175000.537500", "175002.027500", "175003.517500", "175005.007500", "175006.497500", "175007.987500", "175009.477500", "175010.967500", "175012.457500", "175013.947500", "175015.437500", "175016.927500", "175018.417500", "175019.907500", "175021.397500", "175022.887500", "175024.377500", "175025.867500", "175027.357500", "175028.847500", "175030.337500", "175031.827500", "175033.317500", "175034.807500", "175036.297500", "175037.787500", "175039.277500", "175040.767500", "175042.257500", "175043.747500", "175045.237500", "175046.727500", "175048.217500", "175049.707500", "175051.197500", "175052.687500", "175054.177500", "175055.667500", "175057.157500", "175058.647500", "175100.137500", "175101.627500", "175103.117500", "175104.607500", "175106.097500", "175107.587500", "175109.077500", "175110.567500", "175112.057500", "175113.547500", "175115.037500", "175116.527500", "175118.017500", "175119.507500", "175120.997500", "175122.487500", "175123.977500", "175125.467500", "175126.957500", "175128.447500", "175129.937500", "175131.427500", "175132.917500", "175134.407500", "175135.897500", "175137.387500", "175138.877500", "175140.367500", "175141.857500", "175143.347500", "175144.837500", "175146.327500", "175147.817500", "175149.307500", "175150.797500", "175152.287500", "175153.777500", "175155.267500", "175156.757500", "175158.247500", "175159.737500", "175201.227500", "175202.717500", "175204.207500", "175205.697500", "175207.187500", "175208.677500", "175210.167500", "175211.657500", "175213.147500", "175214.637500", "175216.127500", "175217.617500", "175219.107500", "175220.597500", "175222.087500", "175223.577500", "175225.067500", "175226.557500", "175228.047500", "175229.537500", "175231.027500", "175232.517500", "175234.007500", "175235.497500", "175236.987500", "175238.477500", "175239.967500", "175241.457500", "175242.947500", "175244.437500", "175245.927500", "175247.417500", "175248.907500", "175250.397500", "175251.887500", "175253.377500", "175254.867500", "175256.357500", "175257.847500", "175259.337500", "175300.827500", "175302.317500", "175303.807500", "175305.297500", "175306.787500", "175308.277500", "175309.767500", "175311.257500", "175312.747500", "175314.237500", "175315.727500", "175317.217500", "175318.707500", "175320.197500", "175321.687500", "175323.177500", "175324.667500", "175326.157500", "175327.647500", "175329.137500", "175330.627500", "175332.117500", "175333.607500", "175335.097500", "175336.587500", "175338.077500", "175339.567500", "175341.057500", "175342.547500", "175344.037500", "175345.527500", "175347.017500", "175348.507500", "175349.997500", "175351.487500", "175352.977500", "175354.467500", "175355.957500", "175357.447500", "175358.937500", "175400.427500", "175401.917500", "175403.407500", "175404.897500", "175406.387500", "175407.877500", "175409.367500", "175410.857500", "175412.347500", "175413.837500", "175415.327500", "175416.817500", "175418.307500", "175419.797500", "175421.287500", "175422.777500", "175424.267500", "175425.757500", "175427.247500", "175428.737500", "175430.227500", "175431.717500", "175433.207500", "175434.697500", "175436.187500", "175437.677500", "175439.167500", "175440.657500", "175442.147500", "175443.637500", "175445.127500", "175446.617500", "175448.107500", "175449.597500", "175451.087500", "175452.577500", "175454.067500", "175455.557500", "175457.047500", "175458.537500", "175500.027500", "175501.517500", "175503.007500", "175504.497500", "175505.987500", "175507.477500", "175508.967500", "175510.457500", "175511.947500", "175513.437500", "175514.927500", "175516.417500", "175517.907500", "175519.397500", "175520.887500", "175522.377500", "175523.867500", "175525.357500", "175526.847500", "175528.337500", "175529.827500", "175531.317500", "175532.807500", "175534.297500", "175535.787500", "175537.277500", "175538.767500", "175540.257500", "175541.747500", "175543.237500", "175544.727500", "175546.217500", "175547.707500", "175549.197500", "175550.687500", "175552.177500", "175553.667500", "175555.157500", "175556.647500", "175558.137500", "175559.627500", "175601.117500", "175602.607500", "175604.097500", "175605.587500", "175607.077500", "175608.567500", "175610.057500", "175611.547500", "175613.037500", "175614.527500", "175616.017500", "175617.507500", "175618.997500", "175620.487500", "175621.977500", "175623.467500", "175624.957500", "175626.447500", "175627.937500", "175629.427500", "175630.917500", "175632.407500", "175633.897500", "175635.387500", "175636.877500", "175638.367500", "175639.857500", "175641.347500", "175642.837500", "175644.327500", "175645.817500", "175647.307500", "175648.797500", "175650.287500", "175651.777500", "175653.267500", "175654.757500", "175656.247500", "175657.737500", "175659.227500", "175700.717500", "175702.207500", "175703.697500", "175705.187500", "175706.677500", "175708.167500", "175709.657500", "175711.147500", "175712.637500", "175714.127500", "175715.617500", "175717.107500", "175718.597500", "175720.087500", "175721.577500", "175723.067500", "175724.557500", "175726.047500", "175727.537500", "175729.027500", "175730.517500", "175732.007500", "175733.497500", "175734.987500", "175736.477500", "175737.967500", "175739.457500", "175740.947500", "175742.437500", "175743.927500", "175745.417500", "175746.907500", "175748.397500", "175749.887500", "175751.377500", "175752.867500", "175754.357500", "175755.847500", "175757.337500", "175758.827500", "175800.317500", "175801.807500", "175803.297500", "175804.787500", "175806.277500", "175807.767500", "175809.257500", "175810.747500", "175812.237500", "175813.727500", "175815.217500", "175816.707500", "175818.197500", "175819.687500", "175821.177500", "175822.667500", "175824.157500", "175825.647500", "175827.137500", "175828.627500", "175830.117500", "175831.607500", "175833.097500", "175834.587500", "175836.077500", "175837.567500", "175839.057500", "175840.547500", "175842.037500", "175843.527500", "175845.017500", "175846.507500", "175847.997500", "175849.487500", "175850.977500", "175852.467500", "175853.957500", "175855.447500", "175856.937500"],
      "ContentTime": ["174847.074000", "174847.076000", "174847.079000", "174847.081000", "174847.084000", "174847.086000", "174847.089000", "174907.101000", "174907.104000", "174907.106000", "174907.109000", "174907.111000", "174907.114000", "174907.116000", "174907.118000", "174907.121000", "174907.123000", "174907.126000", "174907.128000", "174907.131000", "174907.133000", "174907.136000", "174907.138000", "174907.141000", "174907.143000", "174907.145000", "174907.148000", "174927.118000", "174927.120000", "174927.123000", "174927.125000", "174927.128000", "174927.130000", "174927.133000", "174927.135000", "174927.137000", "174927.140000", "174927.142000", "174927.145000", "174927.147000", "174927.150000", "174927.152000", "174927.154000", "174927.157000", "174927.159000", "174927.162000", "174927.164000", "174947.112000", "174947.114000", "174947.117000", "174947.119000", "174947.122000", "174947.124000", "174947.127000", "174947.129000", "174947.132000", "174947.134000", "174947.137000", "174947.139000", "174947.142000", "174947.144000", "174947.146000", "174947.149000", "174947.151000", "174947.154000", "174947.156000", "174947.159000", "174947.161000", "175007.104000", "175007.107000", "175007.109000", "175007.112000", "175007.114000", "175007.117000", "175007.120000", "175007.122000", "175007.125000", "175007.127000", "175007.130000", "175007.132000", "175007.135000", "175007.137000", "175007.140000", "175007.142000", "175007.145000", "175007.147000", "175007.149000", "175007.152000", "175027.103000", "175027.106000", "175027.108000", "175027.111000", "175027.113000", "175027.116000", "175027.118000", "175027.121000", "175027.131000", "175027.133000", "175027.136000", "175027.138000", "175027.141000", "175027.143000", "175027.145000", "175027.148000", "175027.150000", "175027.153000", "175027.155000", "175027.158000", "175107.128000", "175107.131000", "175107.133000", "175107.136000", "175107.138000", "175107.141000", "175107.143000", "175107.145000", "175107.148000", "175107.150000", "175107.153000", "175107.155000", "175107.158000", "175107.160000", "175107.163000", "175107.165000", "175107.167000", "175107.170000", "175107.172000", "175107.175000", "175107.177000", "175107.180000", "175107.182000", "175107.185000", "175107.187000", "175107.190000", "175107.192000", "175147.164000", "175147.167000", "175147.170000", "175147.172000", "175147.175000", "175147.177000", "175147.180000", "175147.182000", "175147.184000", "175147.187000", "175147.189000", "175147.192000", "175147.194000", "175147.197000", "175147.199000", "175147.202000", "175147.204000", "175147.207000", "175147.209000", "175147.212000", "175147.214000", "175147.216000", "175147.219000", "175147.221000", "175147.224000", "175147.226000", "175227.121000", "175227.124000", "175227.126000", "175227.128000", "175227.131000", "175227.133000", "175227.136000", "175227.138000", "175227.141000", "175227.143000", "175227.146000", "175227.148000", "175227.151000", "175227.153000", "175227.156000", "175227.158000", "175227.160000", "175227.163000", "175227.165000", "175227.168000", "175227.170000", "175227.173000", "175227.176000", "175227.179000", "175227.181000", "175227.184000", "175227.186000", "175307.807000", "175307.810000", "175307.813000", "175307.815000", "175307.817000", "175307.820000", "175307.822000", "175307.825000", "175307.827000", "175307.830000", "175307.832000", "175307.835000", "175307.837000", "175307.839000", "175307.842000", "175307.844000", "175307.847000", "175307.850000", "175307.852000", "175307.854000", "175307.857000", "175307.859000", "175307.862000", "175307.864000", "175307.867000", "175307.869000", "175307.872000", "175347.131000", "175347.134000", "175347.136000", "175347.139000", "175347.141000", "175347.144000", "175347.146000", "175347.149000", "175347.151000", "175347.171000", "175347.174000", "175347.177000", "175347.179000", "175347.182000", "175347.184000", "175347.187000", "175347.189000", "175347.192000", "175347.194000", "175347.197000", "175347.200000", "175347.202000", "175347.205000", "175347.207000", "175347.210000", "175347.212000", "175347.223000", "175427.133000", "175427.136000", "175427.139000", "175427.141000", "175427.144000", "175427.146000", "175427.148000", "175427.151000", "175427.153000", "175427.156000", "175427.158000", "175427.161000", "175427.163000", "175427.166000", "175427.168000", "175427.171000", "175427.173000", "175427.176000", "175427.178000", "175427.181000", "175427.183000", "175427.186000", "175427.188000", "175427.191000", "175427.193000", "175427.195000", "175427.198000", "175507.118000", "175507.121000", "175507.124000", "175507.126000", "175507.129000", "175507.131000", "175507.134000", "175507.136000", "175507.138000", "175507.141000", "175507.143000", "175507.146000", "175507.148000", "175507.151000", "175507.153000", "175507.156000", "175507.158000", "175507.160000", "175507.163000", "175507.165000", "175507.168000", "175507.170000", "175507.173000", "175507.175000", "175507.178000", "175507.180000", "175507.183000", "175547.136000", "175547.139000", "175547.142000", "175547.144000", "175547.147000", "175547.149000", "175547.152000", "175547.154000", "175547.157000", "175547.159000", "175547.161000", "175547.164000", "175547.166000", "175547.169000", "175547.171000", "175547.174000", "175547.176000", "175547.179000", "175547.181000", "175547.184000", "175547.186000", "175547.189000", "175547.191000", "175547.194000", "175547.196000", "175547.199000", "175547.201000", "175627.134000", "175627.137000", "175627.139000", "175627.142000", "175627.144000", "175627.147000", "175627.149000", "175627.152000", "175627.154000", "175627.157000", "175627.159000", "175627.162000", "175627.164000", "175627.167000", "175627.169000", "175627.172000", "175627.174000", "175627.177000", "175627.179000", "175627.182000", "175627.184000", "175627.187000", "175627.190000", "175627.192000", "175627.195000", "175627.198000", "175707.131000", "175707.133000", "175707.136000", "175707.138000", "175707.141000", "175707.143000", "175707.146000", "175707.148000", "175707.151000", "175707.153000", "175707.156000", "175707.158000", "175707.161000", "175707.163000", "175707.166000", "175707.168000", "175707.171000", "175707.173000", "175707.176000", "175707.178000", "175707.180000", "175707.183000", "175707.185000", "175707.188000", "175707.190000", "175707.193000", "175707.195000", "175747.146000", "175747.148000", "175747.151000", "175747.153000", "175747.156000", "175747.158000", "175747.161000", "175747.163000", "175747.166000", "175747.168000", "175747.171000", "175747.173000", "175747.176000", "175747.178000", "175747.180000", "175747.183000", "175747.185000", "175747.188000", "175747.190000", "175747.193000", "175747.195000", "175747.198000", "175747.200000", "175747.203000", "175747.205000", "175747.208000", "175747.210000", "175827.130000", "175827.133000", "175827.135000", "175827.138000", "175827.140000", "175827.143000", "175827.145000", "175827.148000", "175827.150000", "175827.152000", "175827.155000", "175827.157000", "175827.160000", "175827.162000", "175827.165000", "175827.167000", "175827.170000", "175827.172000", "175827.175000", "175827.177000", "175827.180000", "175827.182000", "175827.185000", "175827.187000", "175827.190000", "175827.200000", "175827.203000", "175859.621000", "175859.623000", "175859.626000", "175859.628000", "175859.631000", "175859.633000", "175859.636000", "175859.638000", "175859.641000", "175859.643000", "175859.646000", "175859.648000", "175859.651000", "175859.653000", "175859.656000", "175859.658000", "175859.661000", "175859.663000", "175859.666000", "175859.668000", "175859.671000", "175859.673000"],
