{
  "AcquisitionMatrixPE": 104,
  "AcquisitionNumber": 1,
  "AcquisitionTime": "18:13:31.092500",
  "BandwidthPerPixelPhaseEncode": 17.17,
  "BaseResolution": 104,
  "BodyPartExamined": "BRAIN",
  "CoilString": "HC1-7;NC1_2",
  "ConsistencyInfo": "N4_VE11C_LATEST_20160120",
  "ConversionSoftware": "dcm2niix",
  "ConversionSoftwareVersion": "v1.0.20190902",
  "DerivedVendorReportedEchoSpacing": 0.000560011,
  "DeviceSerialNumber": "167006",
  "DwellTime": 2.1e-06,
  "EchoTime": 0.037,
  "EchoTrainLength": 104,
  "EffectiveEchoSpacing": 0.000560011,
  "FlipAngle": 52,
  "HeudiconvVersion": "0.10.0",
  "ImageComments": "Unaliased_MB4_PE3_LB",
  "ImageOrientationPatientDICOM": [0.999543, -0.00868814, 0.0289603, 0.0157021, 0.967695, -0.251635],
  "ImageType": [
    "ORIGINAL",
    "PRIMARY",
    "M",
    "MB",
    "ND",
    "MOSAIC"
],
  "ImagingFrequency": 123.259,
  "InPlanePhaseEncodingDirectionDICOM": "COL",
  "InstitutionAddress": "Chemin_Queen-Mary_4565_Montreal_District_CA_H3W_1W5",
  "InstitutionName": "IUGM",
  "InstitutionalDepartmentName": "Department",
  "MRAcquisitionType": "2D",
  "MagneticFieldStrength": 3,
  "Manufacturer": "Siemens",
  "ManufacturersModelName": "Prisma_fit",
  "Modality": "MR",
  "MultibandAccelerationFactor": 4,
  "PartialFourier": 1,
  "PatientPosition": "HFS",
  "PercentPhaseFOV": 100,
  "PhaseEncodingDirection": "j",
  "PhaseEncodingSteps": 104,
  "PhaseResolution": 1,
  "PixelBandwidth": 2290,
  "ProcedureStepDescription": "games_mario",
  "ProtocolName": "func_task-mario_run-03",
  "PulseSequenceDetails": "%CustomerSeq%_cmrr_mbep2d_bold",
  "ReceiveCoilActiveElements": "HC1-7;NC1,2",
  "ReceiveCoilName": "HeadNeck_64",
  "ReconMatrixPE": 104,
  "RepetitionTime": 1.49,
  "SAR": 0.0429173,
  "ScanOptions": "FS",
  "ScanningSequence": "EP",
  "SequenceName": "epfid2d1_104",
  "SequenceVariant": "SK_SS",
  "SeriesDescription": "func_task-mario_run-03",
  "SeriesNumber": 16,
  "ShimSetting": [635, -7207, -8794, 714, 23, 5, 74, -8],
  "SliceThickness": 2,
  "SliceTiming": [0, 0.7825, 0.0975, 0.88, 0.195, 0.98, 0.2925, 1.0775, 0.3925, 1.175, 0.49, 1.2725, 0.5875, 1.37, 0.685, 0, 0.7825, 0.0975, 0.88, 0.195, 0.98, 0.2925, 1.0775, 0.3925, 1.175, 0.49, 1.2725, 0.5875, 1.37, 0.685, 0, 0.7825, 0.0975, 0.88, 0.195, 0.98, 0.2925, 1.0775, 0.3925, 1.175, 0.49, 1.2725, 0.5875, 1.37, 0.685, 0, 0.7825, 0.0975, 0.88, 0.195, 0.98, 0.2925, 1.0775, 0.3925, 1.175, 0.49, 1.2725, 0.5875, 1.37, 0.685],
  "SoftwareVersions": "syngo_MR_E11",
  "SpacingBetweenSlices": 2,
  "StationName": "MRC35049",
  "TaskName": "mario",
  "TotalReadoutTime": 0.0576811,
  "TxRefAmp": 227.626,
  "WipMemBlock": "023d0c62-bfb2-4efc-a667-15e10bfa211e||Sequence: R016 ve11c/master r/e634e98; Dec 19 2017 11:00:25 by eja",
  "dcmmeta_affine": [
    [-1.9990856647491455, 0.031404171139001846, 0.051677048206329346, 106.62793731689453],
    [0.017376279458403587, 1.935389518737793, -0.503949761390686, -75.18418884277344],
    [0.0579206682741642, 0.5032703280448914, 1.9347776174545288, -65.16661834716797],
    [0.0, 0.0, 0.0, 1.0]
],
  "dcmmeta_reorient_transform": [
    [0.0, -1.0, 0.0, 103.0],
    [1.0, 0.0, 0.0, 0.0],
    [0.0, 0.0, 1.0, 0.0],
    [0.0, 0.0, 0.0, 1.0]
],
  "dcmmeta_shape": [104, 104, 60, 454],
  "dcmmeta_slice_dim": 2,
  "dcmmeta_version": 0.6,
  "global": {
    "const": {
      "AcquisitionMatrix": [104, 0, 0, 104],
      "AngioFlag": "N",
      "BitsAllocated": 16,
      "BitsStored": 16,
      "BodyPartExamined": "BRAIN",
      "Columns": 832,
      "EchoNumbers": 1,
      "EchoTime": 37.0,
      "EchoTrainLength": 104,
      "FlipAngle": 52.0,
      "HighBit": 15,
      "ImageOrientationPatient": [0.99954280311748, -0.0086881399993, 0.02896033424203, 0.01570208537265, 0.9676947784482, -0.2516351729767],
      "ImagePositionPatient": [-848.96084301846, -822.31777093122, 148.77751264125],
      "ImageType": [
        "ORIGINAL",
        "PRIMARY",
        "M",
        "MB",
        "ND",
        "MOSAIC"
],
      "ImagedNucleus": "1H",
      "ImagingFrequency": 123.258935,
      "InPlanePhaseEncodingDirection": "COL",
      "MRAcquisitionType": "2D",
      "MagneticFieldStrength": 3.0,
      "Manufacturer": "SIEMENS",
      "ManufacturerModelName": "Prisma_fit",
      "Modality": "MR",
      "NumberOfAverages": 1.0,
      "NumberOfPhaseEncodingSteps": 104,
      "PercentPhaseFieldOfView": 100.0,
      "PercentSampling": 100.0,
      "PerformedProcedureStepStartTime": "174413.415000",
      "PhotometricInterpretation": "MONOCHROME2",
      "PixelBandwidth": 2290.0,
      "PixelRepresentation": 0,
      "PixelSpacing": [2.0, 2.0],
      "ProtocolName": "func_task-mario_run-03",
      "RepetitionTime": 1490.0,
      "Rows": 832,
      "SAR": 0.04291725092243,
      "SamplesPerPixel": 1,
      "ScanOptions": "FS",
      "ScanningSequence": "EP",
      "SequenceName": "epfid2d1_104",
      "SequenceVariant": [
        "SK",
        "SS"
],
      "SeriesDescription": "func_task-mario_run-03",
      "SeriesNumber": 16,
      "SeriesTime": "181504.142000",
      "SliceLocation": -41.341818935625,
      "SliceThickness": 2.0,
      "SmallestImagePixelValue": 0,
      "SoftwareVersions": "syngo MR E11",
      "SpacingBetweenSlices": 2.0000000494238,
      "SpecificCharacterSet": "ISO_IR 100",
      "StudyID": "1",
      "StudyTime": "174413.330000",
      "TransmitCoilName": "Body",
      "VariableFlipAngleFlag": "N",
      "WindowCenterWidthExplanation": "Algo1",
      "dBdt": 0.0},
    "slices": {}
  },
  "time": {
    "samples": {
      "AcquisitionNumber": [1, 2, 3, 4, 5, 6, 7, 8, 9, 10, 11, 12, 13, 14, 15, 16, 17, 18, 19, 20, 21, 22, 23, 24, 25, 26, 27, 28, 29, 30, 31, 32, 33, 34, 35, 36, 37, 38, 39, 40, 41, 42, 43, 44, 45, 46, 47, 48, 49, 50, 51, 52, 53, 54, 55, 56, 57, 58, 59, 60, 61, 62, 63, 64, 65, 66, 67, 68, 69, 70, 71, 72, 73, 74, 75, 76, 77, 78, 79, 80, 81, 82, 83, 84, 85, 86, 87, 88, 89, 90, 91, 92, 93, 94, 95, 96, 97, 98, 99, 100, 101, 102, 103, 104, 105, 106, 107, 108, 109, 110, 111, 112, 113, 114, 115, 116, 117, 118, 119, 120, 121, 122, 123, 124, 125, 126, 127, 128, 129, 130, 131, 132, 133, 134, 135, 136, 137, 138, 139, 140, 141, 142, 143, 144, 145, 146, 147, 148, 149, 150, 151, 152, 153, 154, 155, 156, 157, 158, 159, 160, 161, 162, 163, 164, 165, 166, 167, 168, 169, 170, 171, 172, 173, 174, 175, 176, 177, 178, 179, 180, 181, 182, 183, 184, 185, 186, 187, 188, 189, 190, 191, 192, 193, 194, 195, 196, 197, 198, 199, 200, 201, 202, 203, 204, 205, 206, 207, 208, 209, 210, 211, 212, 213, 214, 215, 216, 217, 218, 219, 220, 221, 222, 223, 224, 225, 226, 227, 228, 229, 230, 231, 232, 233, 234, 235, 236, 237, 238, 239, 240, 241, 242, 243, 244, 245, 246, 247, 248, 249, 250, 251, 252, 253, 254, 255, 256, 257, 258, 259, 260, 261, 262, 263, 264, 265, 266, 267, 268, 269, 270, 271, 272, 273, 274, 275, 276, 277, 278, 279, 280, 281, 282, 283, 284, 285, 286, 287, 288, 289, 290, 291, 292, 293, 294, 295, 296, 297, 298, 299, 300, 301, 302, 303, 304, 305, 306, 307, 308, 309, 310, 311, 312, 313, 314, 315, 316, 317, 318, 319, 320, 321, 322, 323, 324, 325, 326, 327, 328, 329, 330, 331, 332, 333, 334, 335, 336, 337, 338, 339, 340, 341, 342, 343, 344, 345, 346, 347, 348, 349, 350, 351, 352, 353, 354, 355, 356, 357, 358, 359, 360, 361, 362, 363, 364, 365, 366, 367, 368, 369, 370, 371, 372, 373, 374, 375, 376, 377, 378, 379, 380, 381, 382, 383, 384, 385, 386, 387, 388, 389, 390, 391, 392, 393, 394, 395, 396, 397, 398, 399, 400, 401, 402, 403, 404, 405, 406, 407, 408, 409, 410, 411, 412, 413, 414, 415, 416, 417, 418, 419, 420, 421, 422, 423, 424, 425, 426, 427, 428, 429, 430, 431, 432, 433, 434, 435, 436, 437, 438, 439, 440, 441, 442, 443, 444, 445, 446, 447, 448, 449, 450, 451, 452, 453, 454],
      "AcquisitionTime": ["181331.092500", "181332.582500", "181334.072500", "181335.562500", "181337.052500", "181338.542500", "181340.032500", "181341.522500", "181343.012500", "181344.502500", "181345.992500", "181347.482500", "181348.972500", "181350.462500", "181351.952500", "181353.442500", "181354.932500", "181356.422500", "181357.912500", "181359.402500", "181400.892500", "181402.382500", "181403.872500", "181405.362500", "181406.852500", "181408.342500", "181409.832500", "181411.322500", "181412.812500", "181414.302500", "181415.792500", "181417.282500", "181418.772500", "181420.262500", "181421.752500", "181423.242500", "181424.732500", "181426.222500", "181427.712500", "181429.202500", "181430.692500", "181432.182500", "181433.672500", "181435.162500", "181436.652500", "181438.142500", "181439.632500", "181441.122500", "181442.612500", "181444.102500", "181445.592500", "181447.082500", "181448.572500", "181450.062500", "181451.552500", "181453.042500", "181454.532500", "181456.022500", "181457.512500", "181459.002500", "181500.492500", "181501.982500", "181503.472500", "181504.962500", "181506.452500", "181507.942500", "181509.432500", "181510.922500", "181512.412500", "181513.902500", "181515.392500", "181516.882500", "181518.372500", "181519.862500", "181521.352500", "181522.842500", "181524.332500", "181525.822500", "181527.312500", "181528.802500", "181530.292500", "181531.782500", "181533.272500", "181534.762500", "181536.252500", "181537.742500", "181539.232500", "181540.722500", "181542.212500", "181543.702500", "181545.192500", "181546.682500", "181548.172500", "181549.662500", "181551.152500", "181552.642500", "181554.132500", "181555.622500", "181557.112500", "181558.602500", "181600.092500", "181601.582500", "181603.072500", "181604.562500", "181606.052500", "181607.542500", "181609.032500", "181610.522500", "181612.012500", "181613.502500", "181614.992500", "181616.482500", "181617.972500", "181619.462500", "181620.952500", "181622.442500", "181623.932500", "181625.422500", "181626.912500", "181628.402500", "181629.892500", "181631.382500", "181632.872500", "181634.362500", "181635.852500", "181637.342500", "181638.832500", "181640.322500", "181641.812500", "181643.302500", "181644.792500", "181646.282500", "181647.772500", "181649.262500", "181650.752500", "181652.242500", "181653.732500", "181655.222500", "181656.712500", "181658.202500", "181659.692500", "181701.182500", "181702.672500", "181704.162500", "181705.652500", "181707.142500", "181708.632500", "181710.122500", "181711.612500", "181713.102500", "181714.592500", "181716.082500", "181717.572500", "181719.062500", "181720.552500", "181722.042500", "181723.532500", "181725.022500", "181726.512500", "181728.002500", "181729.492500", "181730.982500", "181732.472500", "181733.962500", "181735.452500", "181736.942500", "181738.432500", "181739.922500", "181741.412500", "181742.902500", "181744.392500", "181745.882500", "181747.372500", "181748.862500", "181750.352500", "181751.842500", "181753.332500", "181754.822500", "181756.312500", "181757.802500", "181759.292500", "181800.782500", "181802.272500", "181803.762500", "181805.252500", "181806.742500", "181808.232500", "181809.722500", "181811.212500", "181812.702500", "181814.192500", "181815.682500", "181817.172500", "181818.662500", "181820.152500", "181821.642500", "181823.132500", "181824.622500", "181826.112500", "181827.602500", "181829.092500", "181830.582500", "181832.072500", "181833.562500", "181835.052500", "181836.542500", "181838.032500", "181839.522500", "181841.012500", "181842.502500", "181843.992500", "181845.482500", "181846.972500", "181848.462500", "181849.952500", "181851.442500", "181852.932500", "181854.422500", "181855.912500", "181857.402500", "181858.892500", "181900.382500", "181901.872500", "181903.362500", "181904.852500", "181906.342500", "181907.832500", "181909.322500", "181910.812500", "181912.302500", "181913.792500", "181915.282500", "181916.772500", "181918.262500", "181919.752500", "181921.242500", "181922.732500", "181924.222500", "181925.712500", "181927.202500", "181928.692500", "181930.182500", "181931.672500", "181933.162500", "181934.652500", "181936.142500", "181937.632500", "181939.122500", "181940.612500", "181942.102500", "181943.592500", "181945.082500", "181946.572500", "181948.062500", "181949.552500", "181951.042500", "181952.532500", "181954.022500", "181955.512500", "181957.002500", "181958.492500", "181959.982500", "182001.472500", "182002.962500", "182004.452500", "182005.942500", "182007.432500", "182008.922500", "182010.412500", "182011.902500", "182013.392500", "182014.882500", "182016.372500", "182017.862500", "182019.352500", "182020.842500", "182022.332500", "182023.822500", "182025.312500", "182026.802500", "182028.292500", "182029.782500", "182031.272500", "182032.762500", "182034.252500", "182035.742500", "182037.232500", "182038.722500", "182040.212500", "182041.702500", "182043.192500", "182044.682500", "182046.172500", "182047.662500", "182049.152500", "182050.642500", "182052.132500", "182053.622500", "182055.112500", "182056.602500", "182058.092500", "182059.582500", "182101.072500", "182102.562500", "182104.052500", "182105.542500", "182107.032500", "182108.522500", "182110.012500", "182111.502500", "182112.992500", "182114.482500", "182115.972500", "182117.462500", "182118.952500", "182120.442500", "182121.932500", "182123.422500", "182124.912500", "182126.402500", "182127.892500", "182129.382500", "182130.872500", "182132.362500", "182133.852500", "182135.342500", "182136.832500", "182138.322500", "182139.812500", "182141.302500", "182142.792500", "182144.282500", "182145.772500", "182147.262500", "182148.752500", "182150.242500", "182151.732500", "182153.222500", "182154.712500", "182156.202500", "182157.692500", "182159.182500", "182200.672500", "182202.162500", "182203.652500", "182205.142500", "182206.632500", "182208.122500", "182209.612500", "182211.102500", "182212.592500", "182214.082500", "182215.572500", "182217.062500", "182218.552500", "182220.042500", "182221.532500", "182223.022500", "182224.512500", "182226.002500", "182227.492500", "182228.982500", "182230.472500", "182231.962500", "182233.452500", "182234.942500", "182236.432500", "182237.922500", "182239.412500", "182240.902500", "182242.392500", "182243.882500", "182245.372500", "182246.862500", "182248.352500", "182249.842500", "182251.332500", "182252.822500", "182254.312500", "182255.802500", "182257.292500", "182258.782500", "182300.272500", "182301.762500", "182303.252500", "182304.742500", "182306.232500", "182307.722500", "182309.212500", "182310.702500", "182312.192500", "182313.682500", "182315.172500", "182316.662500", "182318.152500", "182319.642500", "182321.132500", "182322.622500", "182324.112500", "182325.602500", "182327.092500", "182328.582500", "182330.072500", "182331.562500", "182333.052500", "182334.542500", "182336.032500", "182337.522500", "182339.012500", "182340.502500", "182341.992500", "182343.482500", "182344.972500", "182346.462500", "182347.952500", "182349.442500", "182350.932500", "182352.422500", "182353.912500", "182355.402500", "182356.892500", "182358.382500", "182359.872500", "182401.362500", "182402.852500", "182404.342500", "182405.832500", "182407.322500", "182408.812500", "182410.302500", "182411.792500", "182413.282500", "182414.772500", "182416.262500", "182417.752500", "182419.242500", "182420.732500", "182422.222500", "182423.712500", "182425.202500", "182426.692500", "182428.182500", "182429.672500", "182431.162500", "182432.652500", "182434.142500", "182435.632500", "182437.122500", "182438.612500", "182440.102500", "182441.592500", "182443.082500", "182444.572500", "182446.062500"],
      "ContentTime": ["181504.145000", "181504.149000", "181504.153000", "181504.156000", "181504.159000", "181504.162000", "181504.165000", "181504.169000", "181504.172000", "181504.175000", "181504.178000", "181504.182000", "181504.185000", "181504.188000", "181504.191000", "181504.194000", "181504.198000", "181504.201000", "181504.204000", "181504.207000", "181504.211000", "181504.214000", "181504.224000", "181504.228000", "181504.231000", "181504.234000", "181504.237000", "181504.240000", "181504.244000", "181504.247000", "181504.250000", "181504.253000", "181504.257000", "181504.260000", "181504.263000", "181504.266000", "181504.270000", "181504.273000", "181504.276000", "181524.109000", "181524.113000", "181524.116000", "181524.119000", "181524.122000", "181524.126000", "181524.129000", "181524.141000", "181524.144000", "181524.147000", "181524.151000", "181524.154000", "181524.157000", "181524.160000", "181524.163000", "181524.167000", "181524.170000", "181524.173000", "181524.176000", "181524.179000", "181544.109000", "181544.113000", "181544.116000", "181544.119000", "181544.122000", "181544.125000", "181544.129000", "181544.132000", "181544.135000", "181544.138000", "181544.142000", "181544.145000", "181544.148000", "181544.151000", "181544.154000", "181544.158000", "181544.161000", "181544.164000", "181544.167000", "181544.171000", "181544.174000", "181604.109000", "181604.113000", "181604.116000", "181604.119000", "181604.122000", "181604.125000", "181604.129000", "181604.132000", "181604.135000", "181604.138000", "181604.142000", "181604.145000", "181604.148000", "181604.151000", "181604.155000", "181604.158000", "181604.161000", "181604.164000", "181604.167000", "181604.171000", "181644.109000", "181644.113000", "181644.116000", "181644.119000", "181644.122000", "181644.125000", "181644.129000", "181644.132000", "181644.135000", "181644.139000", "181644.142000", "181644.145000", "181644.148000", "181644.151000", "181644.155000", "181644.158000", "181644.161000", "181644.165000", "181644.168000", "181644.171000", "181644.174000", "181644.177000", "181644.181000", "181644.184000", "181644.187000", "181644.191000", "181644.194000", "181644.197000", "181644.200000", "181724.110000", "181724.114000", "181724.117000", "181724.120000", "181724.123000", "181724.127000", "181724.130000", "181724.133000", "181724.136000", "181724.140000", "181724.143000", "181724.146000", "181724.149000", "181724.152000", "181724.156000", "181724.159000", "181724.162000", "181724.165000", "181724.168000", "181724.190000", "181724.193000", "181724.196000", "181724.199000", "181724.203000", "181724.206000", "181724.209000", "181724.212000", "181804.109000", "181804.113000", "181804.116000", "181804.119000", "181804.122000", "181804.126000", "181804.129000", "181804.132000", "181804.135000", "181804.139000", "181804.142000", "181804.145000", "181804.148000", "181804.152000", "181804.155000", "181804.158000", "181804.161000", "181804.165000", "181804.168000", "181804.171000", "181804.174000", "181804.178000", "181804.181000", "181804.184000", "181804.187000", "181804.191000", "181804.194000", "181824.109000", "181824.113000", "181824.116000", "181824.119000", "181824.123000", "181824.126000", "181824.129000", "181824.132000", "181824.135000", "181824.139000", "181824.142000", "181824.145000", "181824.148000", "181904.109000", "181904.113000", "181904.116000", "181904.119000", "181904.122000", "181904.126000", "181904.129000", "181904.132000", "181904.135000", "181904.139000", "181904.142000", "181904.145000", "181904.148000", "181904.151000", "181904.155000", "181904.158000", "181904.161000", "181904.165000", "181904.169000", "181904.172000", "181904.175000", "181904.178000", "181904.182000", "181904.185000", "181904.188000", "181904.191000", "181904.194000", "181944.110000", "181944.114000", "181944.117000", "181944.120000", "181944.124000", "181944.127000", "181944.130000", "181944.133000", "181944.137000", "181944.140000", "181944.143000", "181944.146000", "181944.150000", "181944.153000", "181944.156000", "181944.170000", "181944.173000", "181944.177000", "181944.180000", "181944.183000", "181944.186000", "181944.190000", "181944.193000", "181944.196000", "181944.199000", "181944.202000", "181944.216000", "182024.109000", "182024.113000", "182024.116000", "182024.119000", "182024.122000", "182024.126000", "182024.129000", "182024.132000", "182024.135000", "182024.139000", "182024.142000", "182024.145000", "182024.148000", "182024.152000", "182024.155000", "182024.158000", "182024.161000", "182024.164000", "182024.168000", "182024.171000", "182024.174000", "182024.178000", "182024.181000", "182024.184000", "182024.187000", "182024.191000", "182024.194000", "182104.109000", "182104.113000", "182104.116000", "182104.119000", "182104.123000", "182104.126000", "182104.129000", "182104.132000", "182104.136000", "182104.139000", "182104.142000", "182104.145000", "182104.149000", "182104.152000", "182104.155000", "182104.158000", "182104.163000", "182104.166000", "182104.169000", "182104.173000", "182104.176000", "182104.179000", "182104.182000", "182104.185000", "182104.189000", "182104.192000", "182144.109000", "182144.113000", "182144.116000", "182144.119000", "182144.123000", "182144.126000", "182144.129000", "182144.132000", "182144.136000", "182144.139000", "182144.142000", "182144.146000", "182144.149000", "182144.152000", "182144.155000", "182144.159000", "182144.162000", "182144.165000", "182144.168000", "182144.172000", "182144.175000", "182144.178000", "182144.181000", "182144.184000", "182144.188000", "182144.191000", "182144.194000", "182224.109000", "182224.113000", "182224.116000", "182224.132000", "182224.136000", "182224.139000", "182224.142000", "182224.145000", "182224.149000", "182224.152000", "182224.155000", "182224.159000", "182224.162000", "182224.165000", "182224.168000", "182224.171000", "182224.175000", "182224.178000", "182224.182000", "182224.185000", "182224.188000", "182224.192000", "182224.195000", "182224.198000", "182224.201000", "182224.204000", "182224.208000", "182304.109000", "182304.113000", "182304.116000", "182304.119000", "182304.122000", "182304.126000", "182304.129000", "182304.132000", "182304.135000", "182304.139000", "182304.142000", "182304.145000", "182304.148000", "182304.152000", "182304.155000", "182304.158000", "182304.163000", "182304.166000", "182304.169000", "182304.173000", "182304.176000", "182304.179000", "182304.182000", "182304.186000", "182304.189000", "182304.192000", "182304.195000", "182344.109000", "182344.113000", "182344.116000", "182344.119000", "182344.123000", "182344.126000", "182344.129000", "182344.132000", "182344.136000", "182344.139000", "182344.142000", "182344.145000", "182344.149000", "182344.152000", "182344.155000", "182344.158000", "182344.162000", "182344.165000", "182344.168000", "182344.171000", "182344.175000", "182344.178000", "182344.181000", "182344.184000", "182344.188000", "182344.191000", "182344.194000", "182424.110000", "182424.114000", "182424.117000", "182424.120000", "182424.123000", "182424.127000", "182424.130000", "182424.133000", "182424.136000", "182424.140000", "182424.143000", "182424.146000", "182424.149000", "182424.153000", "182424.156000", "182424.159000", "182424.162000", "182424.175000", "182424.178000", "182424.181000", "182424.184000", "182424.188000", "182424.191000", "182424.194000", "182424.197000", "182424.201000", "182424.204000", "182448.006000", "182448.009000", "182448.013000", "182448.016000", "182448.019000", "182448.023000", "182448.026000", "182448.029000", "182448.033000", "182448.036000", "182448.039000", "182448.042000", "182448.046000", "182448.049000", "182448.052000", "182448.055000"],
