{
  "AcquisitionMatrixPE": 104,
  "AcquisitionNumber": 1,
  "AcquisitionTime": "18:00:24.845000",
  "BandwidthPerPixelPhaseEncode": 17.17,
  "BaseResolution": 104,
  "BodyPartExamined": "BRAIN",
  "CoilString": "HC1-7;NC1_2",
  "ConsistencyInfo": "N4_VE11C_LATEST_20160120",
  "ConversionSoftware": "dcm2niix",
  "ConversionSoftwareVersion": "v1.0.20190902",
  "DerivedVendorReportedEchoSpacing": 0.000560011,
  "DeviceSerialNumber": "167006",
  "DwellTime": 2.1e-06,
  "EchoTime": 0.037,
  "EchoTrainLength": 104,
  "EffectiveEchoSpacing": 0.000560011,
  "FlipAngle": 52,
  "HeudiconvVersion": "0.10.0",
  "ImageComments": "Unaliased_MB4_PE3_LB",
  "ImageOrientationPatientDICOM": [0.999543, -0.00868814, 0.0289603, 0.0157021, 0.967695, -0.251635],
  "ImageType": [
    "ORIGINAL",
    "PRIMARY",
    "P",
    "MB",
    "ND",
    "MOSAIC"
],
  "ImagingFrequency": 123.259,
  "InPlanePhaseEncodingDirectionDICOM": "COL",
  "InstitutionAddress": "Chemin_Queen-Mary_4565_Montreal_District_CA_H3W_1W5",
  "InstitutionName": "IUGM",
  "InstitutionalDepartmentName": "Department",
  "MRAcquisitionType": "2D",
  "MagneticFieldStrength": 3,
  "Manufacturer": "Siemens",
  "ManufacturersModelName": "Prisma_fit",
  "Modality": "MR",
  "MultibandAccelerationFactor": 4,
  "PartialFourier": 1,
  "PatientPosition": "HFS",
  "PercentPhaseFOV": 100,
  "PhaseEncodingDirection": "j",
  "PhaseEncodingSteps": 104,
  "PhaseResolution": 1,
  "PixelBandwidth": 2290,
  "ProcedureStepDescription": "games_mario",
  "ProtocolName": "func_task-mario_run-02",
  "PulseSequenceDetails": "%CustomerSeq%_cmrr_mbep2d_bold",
  "ReceiveCoilActiveElements": "HC1-7;NC1,2",
  "ReceiveCoilName": "HeadNeck_64",
  "ReconMatrixPE": 104,
  "RepetitionTime": 1.49,
  "SAR": 0.0429173,
  "ScanOptions": "FS",
  "ScanningSequence": "EP",
  "SequenceName": "epfid2d1_104",
  "SequenceVariant": "SK_SS",
  "SeriesDescription": "func_task-mario_run-02",
  "SeriesNumber": 14,
  "ShimSetting": [635, -7207, -8794, 714, 23, 5, 74, -8],
  "SliceThickness": 2,
  "SliceTiming": [0, 0.785, 0.1, 0.8825, 0.1975, 0.98, 0.295, 1.0775, 0.3925, 1.1775, 0.49, 1.275, 0.5875, 1.3725, 0.6875, 0, 0.785, 0.1, 0.8825, 0.1975, 0.98, 0.295, 1.0775, 0.3925, 1.1775, 0.49, 1.275, 0.5875, 1.3725, 0.6875, 0, 0.785, 0.1, 0.8825, 0.1975, 0.98, 0.295, 1.0775, 0.3925, 1.1775, 0.49, 1.275, 0.5875, 1.3725, 0.6875, 0, 0.785, 0.1, 0.8825, 0.1975, 0.98, 0.295, 1.0775, 0.3925, 1.1775, 0.49, 1.275, 0.5875, 1.3725, 0.6875],
  "SoftwareVersions": "syngo_MR_E11",
  "SpacingBetweenSlices": 2,
  "StationName": "MRC35049",
  "TaskName": "mario",
  "TotalReadoutTime": 0.0576811,
  "TxRefAmp": 227.626,
  "WipMemBlock": "1b5d778d-bef0-4052-99e2-ee981d7a0474||Sequence: R016 ve11c/master r/e634e98; Dec 19 2017 11:00:25 by eja",
  "dcmmeta_affine": [
    [-1.9990856647491455, 0.031404171139001846, 0.051677048206329346, 106.62793731689453],
    [0.017376279458403587, 1.935389518737793, -0.503949761390686, -75.18418884277344],
    [0.0579206682741642, 0.5032703280448914, 1.9347776174545288, -65.16661834716797],
    [0.0, 0.0, 0.0, 1.0]
],
  "dcmmeta_reorient_transform": [
    [0.0, -1.0, 0.0, 103.0],
    [1.0, 0.0, 0.0, 0.0],
    [0.0, 0.0, 1.0, 0.0],
    [0.0, 0.0, 0.0, 1.0]
],
  "dcmmeta_shape": [104, 104, 60, 474],
  "dcmmeta_slice_dim": 2,
  "dcmmeta_version": 0.6,
  "global": {
    "const": {
      "AcquisitionMatrix": [104, 0, 0, 104],
      "AngioFlag": "N",
      "BitsAllocated": 16,
      "BitsStored": 16,
      "BodyPartExamined": "BRAIN",
      "Columns": 832,
      "EchoNumbers": 1,
      "EchoTime": 37.0,
      "EchoTrainLength": 104,
      "FlipAngle": 52.0,
      "HighBit": 15,
      "ImageOrientationPatient": [0.99954280311748, -0.0086881399993, 0.02896033424203, 0.01570208537265, 0.9676947784482, -0.2516351729767],
      "ImagePositionPatient": [-848.96084301846, -822.31777093122, 148.77751264125],
      "ImageType": [
        "ORIGINAL",
        "PRIMARY",
        "P",
        "MB",
        "ND",
        "MOSAIC"
],
      "ImagedNucleus": "1H",
      "ImagingFrequency": 123.258925,
      "InPlanePhaseEncodingDirection": "COL",
      "LargestImagePixelValue": 4095,
      "MRAcquisitionType": "2D",
      "MagneticFieldStrength": 3.0,
      "Manufacturer": "SIEMENS",
      "ManufacturerModelName": "Prisma_fit",
      "Modality": "MR",
      "NumberOfAverages": 1.0,
      "NumberOfPhaseEncodingSteps": 104,
      "PercentPhaseFieldOfView": 100.0,
      "PercentSampling": 100.0,
      "PerformedProcedureStepStartTime": "174413.415000",
      "PhotometricInterpretation": "MONOCHROME2",
      "PixelBandwidth": 2290.0,
      "PixelRepresentation": 0,
      "PixelSpacing": [2.0, 2.0],
      "ProtocolName": "func_task-mario_run-02",
      "RepetitionTime": 1490.0,
      "RescaleIntercept": -4096.0,
      "RescaleSlope": 2.0,
      "RescaleType": "US",
      "Rows": 832,
      "SAR": 0.04291725092243,
      "SamplesPerPixel": 1,
      "ScanOptions": "FS",
      "ScanningSequence": "EP",
      "SequenceName": "epfid2d1_104",
      "SequenceVariant": [
        "SK",
        "SS"
],
      "SeriesDescription": "func_task-mario_run-02",
      "SeriesNumber": 14,
      "SeriesTime": "180151.035000",
      "SliceLocation": -41.341818935625,
      "SliceThickness": 2.0,
      "SmallestImagePixelValue": 0,
      "SoftwareVersions": "syngo MR E11",
      "SpacingBetweenSlices": 2.0000000494238,
      "SpecificCharacterSet": "ISO_IR 100",
      "StudyID": "1",
      "StudyTime": "174413.330000",
      "TransmitCoilName": "Body",
      "VariableFlipAngleFlag": "N",
      "WindowCenterWidthExplanation": "Algo1",
      "dBdt": 0.0},
    "slices": {}
  },
  "time": {
    "samples": {
      "AcquisitionNumber": [1, 2, 3, 4, 5, 6, 7, 8, 9, 10, 11, 12, 13, 14, 15, 16, 17, 18, 19, 20, 21, 22, 23, 24, 25, 26, 27, 28, 29, 30, 31, 32, 33, 34, 35, 36, 37, 38, 39, 40, 41, 42, 43, 44, 45, 46, 47, 48, 49, 50, 51, 52, 53, 54, 55, 56, 57, 58, 59, 60, 61, 62, 63, 64, 65, 66, 67, 68, 69, 70, 71, 72, 73, 74, 75, 76, 77, 78, 79, 80, 81, 82, 83, 84, 85, 86, 87, 88, 89, 90, 91, 92, 93, 94, 95, 96, 97, 98, 99, 100, 101, 102, 103, 104, 105, 106, 107, 108, 109, 110, 111, 112, 113, 114, 115, 116, 117, 118, 119, 120, 121, 122, 123, 124, 125, 126, 127, 128, 129, 130, 131, 132, 133, 134, 135, 136, 137, 138, 139, 140, 141, 142, 143, 144, 145, 146, 147, 148, 149, 150, 151, 152, 153, 154, 155, 156, 157, 158, 159, 160, 161, 162, 163, 164, 165, 166, 167, 168, 169, 170, 171, 172, 173, 174, 175, 176, 177, 178, 179, 180, 181, 182, 183, 184, 185, 186, 187, 188, 189, 190, 191, 192, 193, 194, 195, 196, 197, 198, 199, 200, 201, 202, 203, 204, 205, 206, 207, 208, 209, 210, 211, 212, 213, 214, 215, 216, 217, 218, 219, 220, 221, 222, 223, 224, 225, 226, 227, 228, 229, 230, 231, 232, 233, 234, 235, 236, 237, 238, 239, 240, 241, 242, 243, 244, 245, 246, 247, 248, 249, 250, 251, 252, 253, 254, 255, 256, 257, 258, 259, 260, 261, 262, 263, 264, 265, 266, 267, 268, 269, 270, 271, 272, 273, 274, 275, 276, 277, 278, 279, 280, 281, 282, 283, 284, 285, 286, 287, 288, 289, 290, 291, 292, 293, 294, 295, 296, 297, 298, 299, 300, 301, 302, 303, 304, 305, 306, 307, 308, 309, 310, 311, 312, 313, 314, 315, 316, 317, 318, 319, 320, 321, 322, 323, 324, 325, 326, 327, 328, 329, 330, 331, 332, 333, 334, 335, 336, 337, 338, 339, 340, 341, 342, 343, 344, 345, 346, 347, 348, 349, 350, 351, 352, 353, 354, 355, 356, 357, 358, 359, 360, 361, 362, 363, 364, 365, 366, 367, 368, 369, 370, 371, 372, 373, 374, 375, 376, 377, 378, 379, 380, 381, 382, 383, 384, 385, 386, 387, 388, 389, 390, 391, 392, 393, 394, 395, 396, 397, 398, 399, 400, 401, 402, 403, 404, 405, 406, 407, 408, 409, 410, 411, 412, 413, 414, 415, 416, 417, 418, 419, 420, 421, 422, 423, 424, 425, 426, 427, 428, 429, 430, 431, 432, 433, 434, 435, 436, 437, 438, 439, 440, 441, 442, 443, 444, 445, 446, 447, 448, 449, 450, 451, 452, 453, 454, 455, 456, 457, 458, 459, 460, 461, 462, 463, 464, 465, 466, 467, 468, 469, 470, 471, 472, 473, 474],
      "AcquisitionTime": ["180024.845000", "180026.335000", "180027.825000", "180029.315000", "180030.805000", "180032.295000", "180033.785000", "180035.275000", "180036.765000", "180038.255000", "180039.745000", "180041.235000", "180042.725000", "180044.215000", "180045.705000", "180047.195000", "180048.685000", "180050.175000", "180051.665000", "180053.155000", "180054.645000", "180056.135000", "180057.625000", "180059.115000", "180100.605000", "180102.095000", "180103.585000", "180105.075000", "180106.565000", "180108.055000", "180109.545000", "180111.035000", "180112.525000", "180114.015000", "180115.505000", "180116.995000", "180118.485000", "180119.975000", "180121.465000", "180122.955000", "180124.445000", "180125.935000", "180127.425000", "180128.915000", "180130.405000", "180131.895000", "180133.385000", "180134.875000", "180136.365000", "180137.855000", "180139.345000", "180140.835000", "180142.325000", "180143.815000", "180145.305000", "180146.795000", "180148.285000", "180149.775000", "180151.265000", "180152.755000", "180154.245000", "180155.735000", "180157.225000", "180158.715000", "180200.205000", "180201.695000", "180203.185000", "180204.675000", "180206.165000", "180207.655000", "180209.145000", "180210.635000", "180212.125000", "180213.615000", "180215.105000", "180216.595000", "180218.085000", "180219.575000", "180221.065000", "180222.555000", "180224.045000", "180225.535000", "180227.025000", "180228.515000", "180230.005000", "180231.495000", "180232.985000", "180234.475000", "180235.965000", "180237.455000", "180238.945000", "180240.435000", "180241.925000", "180243.415000", "180244.905000", "180246.395000", "180247.885000", "180249.375000", "180250.865000", "180252.355000", "180253.845000", "180255.335000", "180256.825000", "180258.315000", "180259.805000", "180301.295000", "180302.785000", "180304.275000", "180305.765000", "180307.255000", "180308.745000", "180310.235000", "180311.725000", "180313.215000", "180314.705000", "180316.195000", "180317.685000", "180319.175000", "180320.665000", "180322.155000", "180323.645000", "180325.135000", "180326.625000", "180328.115000", "180329.605000", "180331.095000", "180332.585000", "180334.075000", "180335.565000", "180337.055000", "180338.545000", "180340.035000", "180341.525000", "180343.015000", "180344.505000", "180345.995000", "180347.485000", "180348.975000", "180350.465000", "180351.955000", "180353.445000", "180354.935000", "180356.425000", "180357.915000", "180359.405000", "180400.895000", "180402.385000", "180403.875000", "180405.365000", "180406.855000", "180408.345000", "180409.835000", "180411.325000", "180412.815000", "180414.305000", "180415.795000", "180417.285000", "180418.775000", "180420.265000", "180421.755000", "180423.245000", "180424.735000", "180426.225000", "180427.715000", "180429.205000", "180430.695000", "180432.185000", "180433.675000", "180435.165000", "180436.655000", "180438.145000", "180439.635000", "180441.125000", "180442.615000", "180444.105000", "180445.595000", "180447.085000", "180448.575000", "180450.065000", "180451.555000", "180453.045000", "180454.535000", "180456.025000", "180457.515000", "180459.005000", "180500.495000", "180501.985000", "180503.475000", "180504.965000", "180506.455000", "180507.945000", "180509.435000", "180510.925000", "180512.415000", "180513.905000", "180515.395000", "180516.885000", "180518.375000", "180519.865000", "180521.355000", "180522.845000", "180524.335000", "180525.825000", "180527.315000", "180528.805000", "180530.295000", "180531.785000", "180533.275000", "180534.765000", "180536.255000", "180537.745000", "180539.235000", "180540.725000", "180542.215000", "180543.705000", "180545.195000", "180546.685000", "180548.175000", "180549.665000", "180551.155000", "180552.645000", "180554.135000", "180555.625000", "180557.115000", "180558.605000", "180600.095000", "180601.585000", "180603.075000", "180604.565000", "180606.055000", "180607.545000", "180609.035000", "180610.525000", "180612.015000", "180613.505000", "180614.995000", "180616.485000", "180617.975000", "180619.465000", "180620.955000", "180622.445000", "180623.935000", "180625.425000", "180626.915000", "180628.405000", "180629.895000", "180631.385000", "180632.875000", "180634.365000", "180635.855000", "180637.345000", "180638.835000", "180640.325000", "180641.815000", "180643.305000", "180644.795000", "180646.285000", "180647.775000", "180649.265000", "180650.755000", "180652.245000", "180653.735000", "180655.225000", "180656.715000", "180658.205000", "180659.695000", "180701.185000", "180702.675000", "180704.165000", "180705.655000", "180707.145000", "180708.635000", "180710.125000", "180711.615000", "180713.105000", "180714.595000", "180716.085000", "180717.575000", "180719.065000", "180720.555000", "180722.045000", "180723.535000", "180725.025000", "180726.515000", "180728.005000", "180729.495000", "180730.985000", "180732.475000", "180733.965000", "180735.455000", "180736.945000", "180738.435000", "180739.925000", "180741.415000", "180742.905000", "180744.395000", "180745.885000", "180747.375000", "180748.865000", "180750.355000", "180751.845000", "180753.335000", "180754.825000", "180756.315000", "180757.805000", "180759.295000", "180800.785000", "180802.275000", "180803.765000", "180805.255000", "180806.745000", "180808.235000", "180809.725000", "180811.215000", "180812.705000", "180814.195000", "180815.685000", "180817.175000", "180818.665000", "180820.155000", "180821.645000", "180823.135000", "180824.625000", "180826.115000", "180827.605000", "180829.095000", "180830.585000", "180832.075000", "180833.565000", "180835.055000", "180836.545000", "180838.035000", "180839.525000", "180841.015000", "180842.505000", "180843.995000", "180845.485000", "180846.975000", "180848.465000", "180849.955000", "180851.445000", "180852.935000", "180854.425000", "180855.915000", "180857.405000", "180858.895000", "180900.385000", "180901.875000", "180903.365000", "180904.855000", "180906.345000", "180907.835000", "180909.325000", "180910.815000", "180912.305000", "180913.795000", "180915.285000", "180916.775000", "180918.265000", "180919.755000", "180921.245000", "180922.735000", "180924.225000", "180925.715000", "180927.205000", "180928.695000", "180930.185000", "180931.675000", "180933.165000", "180934.655000", "180936.145000", "180937.635000", "180939.125000", "180940.615000", "180942.105000", "180943.595000", "180945.085000", "180946.575000", "180948.065000", "180949.555000", "180951.045000", "180952.535000", "180954.025000", "180955.515000", "180957.005000", "180958.495000", "180959.985000", "181001.475000", "181002.965000", "181004.455000", "181005.945000", "181007.435000", "181008.925000", "181010.415000", "181011.905000", "181013.395000", "181014.885000", "181016.375000", "181017.865000", "181019.355000", "181020.845000", "181022.335000", "181023.825000", "181025.315000", "181026.805000", "181028.295000", "181029.785000", "181031.275000", "181032.765000", "181034.255000", "181035.745000", "181037.235000", "181038.725000", "181040.215000", "181041.705000", "181043.195000", "181044.685000", "181046.175000", "181047.665000", "181049.155000", "181050.645000", "181052.135000", "181053.625000", "181055.115000", "181056.605000", "181058.095000", "181059.585000", "181101.075000", "181102.565000", "181104.055000", "181105.545000", "181107.035000", "181108.525000", "181110.015000", "181111.505000", "181112.995000", "181114.485000", "181115.975000", "181117.465000", "181118.955000", "181120.445000", "181121.935000", "181123.425000", "181124.915000", "181126.405000", "181127.895000", "181129.385000", "181130.875000", "181132.365000", "181133.855000", "181135.345000", "181136.835000", "181138.325000", "181139.815000", "181141.305000", "181142.795000", "181144.285000", "181145.775000", "181147.265000", "181148.755000", "181150.245000", "181151.735000", "181153.225000", "181154.715000", "181156.205000", "181157.695000", "181159.185000", "181200.675000", "181202.165000", "181203.655000", "181205.145000", "181206.635000", "181208.125000", "181209.615000"],
      "ContentTime": ["180151.037000", "180151.040000", "180151.042000", "180151.045000", "180151.047000", "180151.050000", "180151.052000", "180151.055000", "180151.057000", "180151.060000", "180151.062000", "180151.065000", "180151.067000", "180151.075000", "180151.078000", "180151.080000", "180151.083000", "180151.085000", "180151.088000", "180151.090000", "180151.092000", "180151.095000", "180151.097000", "180151.100000", "180151.102000", "180151.105000", "180151.107000", "180151.110000", "180151.112000", "180151.114000", "180151.117000", "180210.949000", "180210.952000", "180210.954000", "180210.956000", "180210.959000", "180210.961000", "180210.964000", "180210.966000", "180210.969000", "180210.971000", "180210.974000", "180210.976000", "180210.978000", "180210.981000", "180210.983000", "180210.986000", "180210.988000", "180210.990000", "180210.993000", "180210.995000", "180210.998000", "180230.954000", "180230.956000", "180230.959000", "180230.961000", "180230.964000", "180230.966000", "180230.968000", "180230.971000", "180230.973000", "180230.976000", "180230.978000", "180230.981000", "180230.983000", "180230.986000", "180230.988000", "180230.990000", "180230.993000", "180230.995000", "180230.998000", "180231.001000", "180250.931000", "180250.933000", "180250.936000", "180250.938000", "180250.941000", "180250.943000", "180250.946000", "180250.948000", "180250.951000", "180250.953000", "180250.955000", "180250.958000", "180250.960000", "180250.963000", "180250.965000", "180250.969000", "180250.972000", "180250.974000", "180250.977000", "180250.979000", "180331.008000", "180331.011000", "180331.013000", "180331.016000", "180331.018000", "180331.020000", "180331.023000", "180331.025000", "180331.028000", "180331.030000", "180331.033000", "180331.035000", "180331.038000", "180331.040000", "180331.042000", "180331.045000", "180331.047000", "180331.050000", "180331.052000", "180331.055000", "180331.057000", "180331.060000", "180331.062000", "180331.065000", "180331.067000", "180331.069000", "180331.072000", "180331.074000", "180331.077000", "180331.079000", "180331.082000", "180331.084000", "180410.981000", "180410.983000", "180410.986000", "180410.988000", "180410.991000", "180410.994000", "180410.996000", "180411.000000", "180411.002000", "180411.005000", "180411.007000", "180411.009000", "180411.012000", "180411.014000", "180411.017000", "180411.019000", "180411.022000", "180411.024000", "180411.027000", "180411.029000", "180411.032000", "180411.034000", "180411.037000", "180411.039000", "180411.041000", "180411.044000", "180411.046000", "180451.501000", "180451.504000", "180451.506000", "180451.509000", "180451.511000", "180451.514000", "180451.516000", "180451.519000", "180451.521000", "180451.524000", "180451.526000", "180451.529000", "180451.531000", "180451.534000", "180451.536000", "180451.539000", "180451.541000", "180451.544000", "180451.546000", "180451.548000", "180451.551000", "180451.553000", "180451.556000", "180451.558000", "180451.561000", "180451.563000", "180451.566000", "180530.968000", "180530.971000", "180530.973000", "180530.976000", "180530.978000", "180530.981000", "180530.983000", "180530.985000", "180530.988000", "180530.990000", "180530.993000", "180530.995000", "180530.998000", "180531.001000", "180531.004000", "180531.006000", "180531.009000", "180531.011000", "180531.013000", "180531.016000", "180531.018000", "180531.021000", "180531.023000", "180531.026000", "180531.028000", "180531.031000", "180531.033000", "180610.981000", "180610.984000", "180610.986000", "180610.989000", "180610.991000", "180610.994000", "180610.996000", "180611.000000", "180611.002000", "180611.005000", "180611.007000", "180611.009000", "180611.012000", "180611.014000", "180611.017000", "180611.019000", "180611.022000", "180611.024000", "180611.027000", "180611.029000", "180611.031000", "180611.034000", "180611.036000", "180611.039000", "180611.041000", "180611.044000", "180611.046000", "180650.978000", "180650.980000", "180650.983000", "180650.986000", "180650.988000", "180650.991000", "180650.993000", "180650.996000", "180650.998000", "180651.002000", "180651.004000", "180651.007000", "180651.009000", "180651.012000", "180651.014000", "180651.017000", "180651.019000", "180651.022000", "180651.024000", "180651.027000", "180651.029000", "180651.031000", "180651.034000", "180651.036000", "180651.039000", "180651.041000", "180730.974000", "180730.977000", "180730.980000", "180730.982000", "180730.984000", "180730.987000", "180730.989000", "180730.992000", "180730.994000", "180730.997000", "180731.000000", "180731.003000", "180731.005000", "180731.008000", "180731.010000", "180731.013000", "180731.015000", "180731.017000", "180731.020000", "180731.022000", "180731.025000", "180731.027000", "180731.030000", "180731.032000", "180731.035000", "180731.037000", "180731.040000", "180810.964000", "180810.966000", "180810.969000", "180810.971000", "180810.974000", "180810.976000", "180810.979000", "180810.981000", "180810.984000", "180810.986000", "180810.989000", "180810.991000", "180810.993000", "180810.996000", "180810.998000", "180811.002000", "180811.004000", "180811.007000", "180811.009000", "180811.012000", "180811.014000", "180811.017000", "180811.019000", "180811.022000", "180811.024000", "180811.027000", "180811.029000", "180830.928000", "180830.931000", "180830.933000", "180830.936000", "180830.938000", "180830.941000", "180830.943000", "180830.946000", "180830.948000", "180830.950000", "180830.953000", "180830.955000", "180830.958000", "180910.971000", "180910.974000", "180910.976000", "180910.979000", "180910.981000", "180910.983000", "180910.986000", "180910.988000", "180910.991000", "180910.993000", "180910.996000", "180910.998000", "180911.002000", "180911.004000", "180911.007000", "180911.009000", "180911.012000", "180911.014000", "180911.016000", "180911.019000", "180911.021000", "180911.024000", "180911.026000", "180911.029000", "180911.031000", "180911.034000", "180911.036000", "180950.974000", "180950.976000", "180950.980000", "180950.983000", "180950.985000", "180950.988000", "180950.990000", "180950.993000", "180950.995000", "180950.998000", "180951.001000", "180951.003000", "180951.006000", "180951.008000", "180951.011000", "180951.013000", "180951.016000", "180951.018000", "180951.021000", "180951.023000", "180951.026000", "180951.028000", "180951.031000", "180951.033000", "180951.036000", "180951.038000", "180951.040000", "181030.993000", "181030.996000", "181031.000000", "181031.002000", "181031.005000", "181031.007000", "181031.009000", "181031.012000", "181031.014000", "181031.017000", "181031.019000", "181031.022000", "181031.024000", "181031.027000", "181031.029000", "181031.032000", "181031.034000", "181031.036000", "181031.039000", "181031.041000", "181031.044000", "181031.046000", "181031.049000", "181031.051000", "181031.054000", "181031.056000", "181031.058000", "181110.973000", "181110.976000", "181110.978000", "181110.981000", "181110.983000", "181110.985000", "181110.988000", "181110.990000", "181110.993000", "181110.995000", "181110.998000", "181111.001000", "181111.004000", "181111.006000", "181111.009000", "181111.011000", "181111.013000", "181111.016000", "181111.029000", "181111.031000", "181111.033000", "181111.036000", "181111.038000", "181111.041000", "181111.043000", "181111.046000", "181111.048000", "181150.970000", "181150.972000", "181150.975000", "181150.977000", "181150.980000", "181150.982000", "181150.985000", "181150.987000", "181150.990000", "181150.992000", "181150.995000", "181150.997000", "181151.001000", "181151.003000", "181151.006000", "181151.008000", "181151.010000", "181151.013000", "181151.015000", "181151.018000", "181151.020000", "181151.023000", "181151.025000", "181151.028000", "181151.030000", "181151.032000", "181151.035000", "181211.942000", "181211.945000", "181211.947000", "181211.950000", "181211.952000", "181211.955000", "181211.957000", "181211.960000", "181211.962000", "181211.965000", "181211.967000", "181211.970000", "181211.972000", "181211.975000"],
