{
  "AcquisitionMatrixPE": 104,
  "AcquisitionNumber": 1,
  "AcquisitionTime": "16:11:46.687500",
  "BandwidthPerPixelPhaseEncode": 17.17,
  "BaseResolution": 104,
  "BodyPartExamined": "BRAIN",
  "CoilString": "HC1-7;NC1_2",
  "ConsistencyInfo": "N4_VE11C_LATEST_20160120",
  "ConversionSoftware": "dcm2niix",
  "ConversionSoftwareVersion": "v1.0.20190902",
  "DerivedVendorReportedEchoSpacing": 0.000560011,
  "DeviceSerialNumber": "167006",
  "DwellTime": 2.1e-06,
  "EchoTime": 0.037,
  "EchoTrainLength": 104,
  "EffectiveEchoSpacing": 0.000560011,
  "FlipAngle": 52,
  "HeudiconvVersion": "0.10.0",
  "ImageComments": "Unaliased_MB4_PE3_LB",
  "ImageOrientationPatientDICOM": [0.999027, -0.0423666, 0.0122261, 0.0439679, 0.936015, -0.349202],
  "ImageType": [
    "ORIGINAL",
    "PRIMARY",
    "P",
    "MB",
    "ND",
    "MOSAIC"
],
  "ImagingFrequency": 123.259,
  "InPlanePhaseEncodingDirectionDICOM": "COL",
  "InstitutionAddress": "Chemin_Queen-Mary_4565_Montreal_District_CA_H3W_1W5",
  "InstitutionName": "IUGM",
  "InstitutionalDepartmentName": "Department",
  "MRAcquisitionType": "2D",
  "MagneticFieldStrength": 3,
  "Manufacturer": "Siemens",
  "ManufacturersModelName": "Prisma_fit",
  "Modality": "MR",
  "MultibandAccelerationFactor": 4,
  "PartialFourier": 1,
  "PatientPosition": "HFS",
  "PercentPhaseFOV": 100,
  "PhaseEncodingDirection": "j",
  "PhaseEncodingSteps": 104,
  "PhaseResolution": 1,
  "PixelBandwidth": 2290,
  "ProcedureStepDescription": "games_mario",
  "ProtocolName": "func_task-mario_run-03",
  "PulseSequenceDetails": "%CustomerSeq%_cmrr_mbep2d_bold",
  "ReceiveCoilActiveElements": "HC1-7;NC1,2",
  "ReceiveCoilName": "HeadNeck_64",
  "ReconMatrixPE": 104,
  "RepetitionTime": 1.49,
  "SAR": 0.0485642,
  "ScanOptions": "FS",
  "ScanningSequence": "EP",
  "SequenceName": "epfid2d1_104",
  "SequenceVariant": "SK_SS",
  "SeriesDescription": "func_task-mario_run-03",
  "SeriesNumber": 17,
  "ShimSetting": [626, -7245, -8817, 583, -4, -143, -52, -47],
  "SliceThickness": 2,
  "SliceTiming": [0, 0.785, 0.0975, 0.8825, 0.1975, 0.98, 0.295, 1.0775, 0.3925, 1.1775, 0.49, 1.275, 0.5875, 1.3725, 0.6875, 0, 0.785, 0.0975, 0.8825, 0.1975, 0.98, 0.295, 1.0775, 0.3925, 1.1775, 0.49, 1.275, 0.5875, 1.3725, 0.6875, 0, 0.785, 0.0975, 0.8825, 0.1975, 0.98, 0.295, 1.0775, 0.3925, 1.1775, 0.49, 1.275, 0.5875, 1.3725, 0.6875, 0, 0.785, 0.0975, 0.8825, 0.1975, 0.98, 0.295, 1.0775, 0.3925, 1.1775, 0.49, 1.275, 0.5875, 1.3725, 0.6875],
  "SoftwareVersions": "syngo_MR_E11",
  "SpacingBetweenSlices": 2,
  "StationName": "MRC35049",
  "TaskName": "mario",
  "TotalReadoutTime": 0.0576811,
  "TxRefAmp": 251.105,
  "WipMemBlock": "3b2264a8-d95a-491e-8326-42e0ca75cb78||Sequence: R016 ve11c/master r/e634e98; Dec 19 2017 11:00:25 by eja",
  "dcmmeta_affine": [
    [-1.9980546236038208, 0.08793576061725616, -0.0067014326341450214, 102.32102966308594],
    [0.08473312109708786, 1.8720306158065796, -0.6988000869750977, -68.37184143066406],
    [0.024452118203043938, 0.6984043121337891, 1.8739352226257324, -64.95843505859375],
    [0.0, 0.0, 0.0, 1.0]
],
  "dcmmeta_reorient_transform": [
    [0.0, -1.0, 0.0, 103.0],
    [1.0, 0.0, 0.0, 0.0],
    [0.0, 0.0, 1.0, 0.0],
    [0.0, 0.0, 0.0, 1.0]
],
  "dcmmeta_shape": [104, 104, 60, 453],
  "dcmmeta_slice_dim": 2,
  "dcmmeta_version": 0.6,
  "global": {
    "const": {
      "AcquisitionMatrix": [104, 0, 0, 104],
      "AngioFlag": "N",
      "BitsAllocated": 16,
      "BitsStored": 16,
      "BodyPartExamined": "BRAIN",
      "Columns": 832,
      "EchoNumbers": 1,
      "EchoTime": 37.0,
      "EchoTrainLength": 104,
      "FlipAngle": 52.0,
      "HighBit": 15,
      "ImageOrientationPatient": [0.99902732600264, -0.0423665598037, 0.0122260586622, 0.04396788145632, 0.93601531569178, -0.3492021680784],
      "ImagePositionPatient": [-870.67892445583, -775.02360791648, 252.29581706505],
      "ImageType": [
        "ORIGINAL",
        "PRIMARY",
        "P",
        "MB",
        "ND",
        "MOSAIC"
],
      "ImagedNucleus": "1H",
      "ImagingFrequency": 123.258919,
      "InPlanePhaseEncodingDirection": "COL",
      "LargestImagePixelValue": 4095,
      "MRAcquisitionType": "2D",
      "MagneticFieldStrength": 3.0,
      "Manufacturer": "SIEMENS",
      "ManufacturerModelName": "Prisma_fit",
      "Modality": "MR",
      "NumberOfAverages": 1.0,
      "NumberOfPhaseEncodingSteps": 104,
      "PercentPhaseFieldOfView": 100.0,
      "PercentSampling": 100.0,
      "PerformedProcedureStepStartTime": "151239.256000",
      "PhotometricInterpretation": "MONOCHROME2",
      "PixelBandwidth": 2290.0,
      "PixelRepresentation": 0,
      "PixelSpacing": [2.0, 2.0],
      "ProtocolName": "func_task-mario_run-03",
      "RepetitionTime": 1490.0,
      "RescaleIntercept": -4096.0,
      "RescaleSlope": 2.0,
      "RescaleType": "US",
      "Rows": 832,
      "SAR": 0.04856421535188,
      "SamplesPerPixel": 1,
      "ScanOptions": "FS",
      "ScanningSequence": "EP",
      "SequenceName": "epfid2d1_104",
      "SequenceVariant": [
        "SK",
        "SS"
],
      "SeriesDescription": "func_task-mario_run-03",
      "SeriesNumber": 17,
      "SeriesTime": "161317.753000",
      "SliceLocation": -37.317677110302,
      "SliceThickness": 2.0,
      "SmallestImagePixelValue": 0,
      "SoftwareVersions": "syngo MR E11",
      "SpacingBetweenSlices": 1.9999999619327,
      "SpecificCharacterSet": "ISO_IR 100",
      "StudyID": "1",
      "StudyTime": "151239.205000",
      "TransmitCoilName": "Body",
      "VariableFlipAngleFlag": "N",
      "WindowCenterWidthExplanation": "Algo1",
      "dBdt": 0.0},
    "slices": {}
  },
  "time": {
    "samples": {
      "AcquisitionNumber": [1, 2, 3, 4, 5, 6, 7, 8, 9, 10, 11, 12, 13, 14, 15, 16, 17, 18, 19, 20, 21, 22, 23, 24, 25, 26, 27, 28, 29, 30, 31, 32, 33, 34, 35, 36, 37, 38, 39, 40, 41, 42, 43, 44, 45, 46, 47, 48, 49, 50, 51, 52, 53, 54, 55, 56, 57, 58, 59, 60, 61, 62, 63, 64, 65, 66, 67, 68, 69, 70, 71, 72, 73, 74, 75, 76, 77, 78, 79, 80, 81, 82, 83, 84, 85, 86, 87, 88, 89, 90, 91, 92, 93, 94, 95, 96, 97, 98, 99, 100, 101, 102, 103, 104, 105, 106, 107, 108, 109, 110, 111, 112, 113, 114, 115, 116, 117, 118, 119, 120, 121, 122, 123, 124, 125, 126, 127, 128, 129, 130, 131, 132, 133, 134, 135, 136, 137, 138, 139, 140, 141, 142, 143, 144, 145, 146, 147, 148, 149, 150, 151, 152, 153, 154, 155, 156, 157, 158, 159, 160, 161, 162, 163, 164, 165, 166, 167, 168, 169, 170, 171, 172, 173, 174, 175, 176, 177, 178, 179, 180, 181, 182, 183, 184, 185, 186, 187, 188, 189, 190, 191, 192, 193, 194, 195, 196, 197, 198, 199, 200, 201, 202, 203, 204, 205, 206, 207, 208, 209, 210, 211, 212, 213, 214, 215, 216, 217, 218, 219, 220, 221, 222, 223, 224, 225, 226, 227, 228, 229, 230, 231, 232, 233, 234, 235, 236, 237, 238, 239, 240, 241, 242, 243, 244, 245, 246, 247, 248, 249, 250, 251, 252, 253, 254, 255, 256, 257, 258, 259, 260, 261, 262, 263, 264, 265, 266, 267, 268, 269, 270, 271, 272, 273, 274, 275, 276, 277, 278, 279, 280, 281, 282, 283, 284, 285, 286, 287, 288, 289, 290, 291, 292, 293, 294, 295, 296, 297, 298, 299, 300, 301, 302, 303, 304, 305, 306, 307, 308, 309, 310, 311, 312, 313, 314, 315, 316, 317, 318, 319, 320, 321, 322, 323, 324, 325, 326, 327, 328, 329, 330, 331, 332, 333, 334, 335, 336, 337, 338, 339, 340, 341, 342, 343, 344, 345, 346, 347, 348, 349, 350, 351, 352, 353, 354, 355, 356, 357, 358, 359, 360, 361, 362, 363, 364, 365, 366, 367, 368, 369, 370, 371, 372, 373, 374, 375, 376, 377, 378, 379, 380, 381, 382, 383, 384, 385, 386, 387, 388, 389, 390, 391, 392, 393, 394, 395, 396, 397, 398, 399, 400, 401, 402, 403, 404, 405, 406, 407, 408, 409, 410, 411, 412, 413, 414, 415, 416, 417, 418, 419, 420, 421, 422, 423, 424, 425, 426, 427, 428, 429, 430, 431, 432, 433, 434, 435, 436, 437, 438, 439, 440, 441, 442, 443, 444, 445, 446, 447, 448, 449, 450, 451, 452, 453],
      "AcquisitionTime": ["161146.687500", "161148.177500", "161149.667500", "161151.157500", "161152.647500", "161154.137500", "161155.627500", "161157.117500", "161158.607500", "161200.097500", "161201.587500", "161203.077500", "161204.567500", "161206.057500", "161207.547500", "161209.037500", "161210.527500", "161212.017500", "161213.507500", "161214.997500", "161216.487500", "161217.977500", "161219.467500", "161220.957500", "161222.447500", "161223.937500", "161225.427500", "161226.917500", "161228.407500", "161229.897500", "161231.387500", "161232.877500", "161234.367500", "161235.857500", "161237.347500", "161238.837500", "161240.327500", "161241.817500", "161243.307500", "161244.797500", "161246.287500", "161247.777500", "161249.267500", "161250.757500", "161252.247500", "161253.737500", "161255.227500", "161256.717500", "161258.207500", "161259.697500", "161301.187500", "161302.677500", "161304.167500", "161305.657500", "161307.147500", "161308.637500", "161310.127500", "161311.617500", "161313.107500", "161314.597500", "161316.087500", "161317.577500", "161319.067500", "161320.557500", "161322.047500", "161323.537500", "161325.027500", "161326.517500", "161328.007500", "161329.497500", "161330.987500", "161332.477500", "161333.967500", "161335.457500", "161336.947500", "161338.437500", "161339.927500", "161341.417500", "161342.907500", "161344.397500", "161345.887500", "161347.377500", "161348.867500", "161350.357500", "161351.847500", "161353.337500", "161354.827500", "161356.317500", "161357.807500", "161359.297500", "161400.787500", "161402.277500", "161403.767500", "161405.257500", "161406.747500", "161408.237500", "161409.727500", "161411.217500", "161412.707500", "161414.197500", "161415.687500", "161417.177500", "161418.667500", "161420.157500", "161421.647500", "161423.137500", "161424.627500", "161426.117500", "161427.607500", "161429.097500", "161430.587500", "161432.077500", "161433.567500", "161435.057500", "161436.547500", "161438.037500", "161439.527500", "161441.017500", "161442.507500", "161443.997500", "161445.487500", "161446.977500", "161448.467500", "161449.957500", "161451.447500", "161452.937500", "161454.427500", "161455.917500", "161457.407500", "161458.897500", "161500.387500", "161501.877500", "161503.367500", "161504.857500", "161506.347500", "161507.837500", "161509.327500", "161510.817500", "161512.307500", "161513.797500", "161515.287500", "161516.777500", "161518.267500", "161519.757500", "161521.247500", "161522.737500", "161524.227500", "161525.717500", "161527.207500", "161528.697500", "161530.187500", "161531.677500", "161533.167500", "161534.657500", "161536.147500", "161537.637500", "161539.127500", "161540.617500", "161542.107500", "161543.597500", "161545.087500", "161546.577500", "161548.067500", "161549.557500", "161551.047500", "161552.537500", "161554.027500", "161555.517500", "161557.007500", "161558.497500", "161559.987500", "161601.477500", "161602.967500", "161604.457500", "161605.947500", "161607.437500", "161608.927500", "161610.417500", "161611.907500", "161613.397500", "161614.887500", "161616.377500", "161617.867500", "161619.357500", "161620.847500", "161622.337500", "161623.827500", "161625.317500", "161626.807500", "161628.297500", "161629.787500", "161631.277500", "161632.767500", "161634.257500", "161635.747500", "161637.237500", "161638.727500", "161640.217500", "161641.707500", "161643.197500", "161644.687500", "161646.177500", "161647.667500", "161649.157500", "161650.647500", "161652.137500", "161653.627500", "161655.117500", "161656.607500", "161658.097500", "161659.587500", "161701.077500", "161702.567500", "161704.057500", "161705.547500", "161707.037500", "161708.527500", "161710.017500", "161711.507500", "161712.997500", "161714.487500", "161715.977500", "161717.467500", "161718.957500", "161720.447500", "161721.937500", "161723.427500", "161724.917500", "161726.407500", "161727.897500", "161729.387500", "161730.877500", "161732.367500", "161733.857500", "161735.347500", "161736.837500", "161738.327500", "161739.817500", "161741.307500", "161742.797500", "161744.287500", "161745.777500", "161747.267500", "161748.757500", "161750.247500", "161751.737500", "161753.227500", "161754.717500", "161756.207500", "161757.697500", "161759.187500", "161800.677500", "161802.167500", "161803.657500", "161805.147500", "161806.637500", "161808.127500", "161809.617500", "161811.107500", "161812.597500", "161814.087500", "161815.577500", "161817.067500", "161818.557500", "161820.047500", "161821.537500", "161823.027500", "161824.517500", "161826.007500", "161827.497500", "161828.987500", "161830.477500", "161831.967500", "161833.457500", "161834.947500", "161836.437500", "161837.927500", "161839.417500", "161840.907500", "161842.397500", "161843.887500", "161845.377500", "161846.867500", "161848.357500", "161849.847500", "161851.337500", "161852.827500", "161854.317500", "161855.807500", "161857.297500", "161858.787500", "161900.277500", "161901.767500", "161903.257500", "161904.747500", "161906.237500", "161907.727500", "161909.217500", "161910.707500", "161912.197500", "161913.687500", "161915.177500", "161916.667500", "161918.157500", "161919.647500", "161921.137500", "161922.627500", "161924.117500", "161925.607500", "161927.097500", "161928.587500", "161930.077500", "161931.567500", "161933.057500", "161934.547500", "161936.037500", "161937.527500", "161939.017500", "161940.507500", "161941.997500", "161943.487500", "161944.977500", "161946.467500", "161947.957500", "161949.447500", "161950.937500", "161952.427500", "161953.917500", "161955.407500", "161956.897500", "161958.387500", "161959.877500", "162001.367500", "162002.857500", "162004.347500", "162005.837500", "162007.327500", "162008.817500", "162010.307500", "162011.797500", "162013.287500", "162014.777500", "162016.267500", "162017.757500", "162019.247500", "162020.737500", "162022.227500", "162023.717500", "162025.207500", "162026.697500", "162028.187500", "162029.677500", "162031.167500", "162032.657500", "162034.147500", "162035.637500", "162037.127500", "162038.617500", "162040.107500", "162041.597500", "162043.087500", "162044.577500", "162046.067500", "162047.557500", "162049.047500", "162050.537500", "162052.027500", "162053.517500", "162055.007500", "162056.497500", "162057.987500", "162059.477500", "162100.967500", "162102.457500", "162103.947500", "162105.437500", "162106.927500", "162108.417500", "162109.907500", "162111.397500", "162112.887500", "162114.377500", "162115.867500", "162117.357500", "162118.847500", "162120.337500", "162121.827500", "162123.317500", "162124.807500", "162126.297500", "162127.787500", "162129.277500", "162130.767500", "162132.257500", "162133.747500", "162135.237500", "162136.727500", "162138.217500", "162139.707500", "162141.197500", "162142.687500", "162144.177500", "162145.667500", "162147.157500", "162148.647500", "162150.137500", "162151.627500", "162153.117500", "162154.607500", "162156.097500", "162157.587500", "162159.077500", "162200.567500", "162202.057500", "162203.547500", "162205.037500", "162206.527500", "162208.017500", "162209.507500", "162210.997500", "162212.487500", "162213.977500", "162215.467500", "162216.957500", "162218.447500", "162219.937500", "162221.427500", "162222.917500", "162224.407500", "162225.897500", "162227.387500", "162228.877500", "162230.367500", "162231.857500", "162233.347500", "162234.837500", "162236.327500", "162237.817500", "162239.307500", "162240.797500", "162242.287500", "162243.777500", "162245.267500", "162246.757500", "162248.247500", "162249.737500", "162251.227500", "162252.717500", "162254.207500", "162255.697500", "162257.187500", "162258.677500", "162300.167500"],
      "ContentTime": ["161317.756000", "161317.759000", "161317.762000", "161317.764000", "161317.767000", "161317.770000", "161317.772000", "161317.775000", "161317.777000", "161317.780000", "161317.782000", "161317.785000", "161317.787000", "161317.790000", "161317.792000", "161317.795000", "161317.797000", "161317.800000", "161317.802000", "161317.811000", "161317.814000", "161317.817000", "161317.819000", "161317.821000", "161317.824000", "161317.826000", "161317.829000", "161317.831000", "161317.834000", "161317.836000", "161317.839000", "161317.841000", "161317.844000", "161317.846000", "161317.849000", "161317.851000", "161317.854000", "161337.621000", "161337.624000", "161337.627000", "161337.629000", "161337.632000", "161337.634000", "161337.637000", "161337.639000", "161337.642000", "161337.644000", "161337.646000", "161337.649000", "161337.651000", "161337.654000", "161337.656000", "161337.659000", "161337.661000", "161337.664000", "161337.670000", "161337.672000", "161337.675000", "161357.632000", "161357.634000", "161357.637000", "161357.639000", "161357.642000", "161357.644000", "161357.647000", "161357.649000", "161357.652000", "161357.654000", "161357.657000", "161357.659000", "161357.662000", "161357.664000", "161357.667000", "161357.669000", "161357.672000", "161357.674000", "161357.677000", "161357.679000", "161417.615000", "161417.617000", "161417.620000", "161417.622000", "161417.625000", "161417.627000", "161417.630000", "161417.633000", "161417.636000", "161417.638000", "161417.641000", "161417.643000", "161417.646000", "161417.648000", "161417.651000", "161417.653000", "161417.656000", "161417.658000", "161417.661000", "161417.663000", "161457.657000", "161457.660000", "161457.666000", "161457.669000", "161457.671000", "161457.674000", "161457.676000", "161457.679000", "161457.681000", "161457.684000", "161457.686000", "161457.689000", "161457.691000", "161457.694000", "161457.697000", "161457.699000", "161457.702000", "161457.704000", "161457.707000", "161457.709000", "161457.712000", "161457.715000", "161457.719000", "161457.722000", "161457.724000", "161457.728000", "161457.731000", "161457.734000", "161457.738000", "161537.653000", "161537.656000", "161537.658000", "161537.661000", "161537.671000", "161537.673000", "161537.676000", "161537.678000", "161537.681000", "161537.683000", "161537.686000", "161537.688000", "161537.691000", "161537.694000", "161537.696000", "161537.699000", "161537.701000", "161537.704000", "161537.706000", "161537.709000", "161537.711000", "161537.714000", "161537.716000", "161537.719000", "161537.721000", "161537.724000", "161537.726000", "161617.648000", "161617.650000", "161617.653000", "161617.655000", "161617.658000", "161617.660000", "161617.663000", "161617.665000", "161617.668000", "161617.670000", "161617.673000", "161617.675000", "161617.678000", "161617.681000", "161617.684000", "161617.686000", "161617.689000", "161617.691000", "161617.694000", "161617.696000", "161617.699000", "161617.701000", "161617.704000", "161617.706000", "161617.709000", "161617.711000", "161617.714000", "161657.656000", "161657.659000", "161657.662000", "161657.664000", "161657.667000", "161657.669000", "161657.672000", "161657.674000", "161657.677000", "161657.679000", "161657.682000", "161657.684000", "161657.687000", "161657.690000", "161657.692000", "161657.703000", "161657.706000", "161657.708000", "161657.711000", "161657.713000", "161657.716000", "161657.718000", "161657.721000", "161657.723000", "161657.726000", "161657.728000", "161657.731000", "161737.653000", "161737.655000", "161737.658000", "161737.660000", "161737.663000", "161737.665000", "161737.668000", "161737.670000", "161737.673000", "161737.675000", "161737.678000", "161737.680000", "161737.683000", "161737.685000", "161737.688000", "161737.690000", "161737.693000", "161737.695000", "161737.698000", "161737.700000", "161737.703000", "161737.705000", "161737.708000", "161737.710000", "161737.713000", "161737.715000", "161737.718000", "161817.655000", "161817.657000", "161817.660000", "161817.663000", "161817.665000", "161817.668000", "161817.670000", "161817.672000", "161817.675000", "161817.677000", "161817.680000", "161817.682000", "161817.685000", "161817.687000", "161817.690000", "161817.692000", "161817.695000", "161817.697000", "161817.700000", "161817.702000", "161817.705000", "161817.707000", "161817.710000", "161817.712000", "161817.715000", "161817.717000", "161817.720000", "161857.692000", "161857.695000", "161857.697000", "161857.708000", "161857.710000", "161857.713000", "161857.715000", "161857.718000", "161857.720000", "161857.723000", "161857.725000", "161857.728000", "161857.730000", "161857.733000", "161857.735000", "161857.738000", "161857.740000", "161857.743000", "161857.745000", "161857.748000", "161857.750000", "161857.753000", "161857.755000", "161857.758000", "161857.760000", "161857.763000", "161937.654000", "161937.657000", "161937.659000", "161937.662000", "161937.664000", "161937.667000", "161937.669000", "161937.672000", "161937.674000", "161937.677000", "161937.679000", "161937.682000", "161937.684000", "161937.687000", "161937.689000", "161937.692000", "161937.694000", "161937.697000", "161937.699000", "161937.703000", "161937.705000", "161937.708000", "161937.710000", "161937.713000", "161937.715000", "161937.718000", "161937.720000", "162017.639000", "162017.642000", "162017.644000", "162017.647000", "162017.649000", "162017.652000", "162017.654000", "162017.657000", "162017.659000", "162017.662000", "162017.664000", "162017.667000", "162017.669000", "162017.672000", "162017.674000", "162017.677000", "162017.679000", "162017.682000", "162017.684000", "162017.687000", "162017.689000", "162017.692000", "162017.694000", "162017.697000", "162017.699000", "162017.702000", "162017.704000", "162057.647000", "162057.650000", "162057.653000", "162057.655000", "162057.658000", "162057.660000", "162057.663000", "162057.665000", "162057.668000", "162057.670000", "162057.673000", "162057.675000", "162057.678000", "162057.680000", "162057.683000", "162057.685000", "162057.688000", "162057.690000", "162057.693000", "162057.695000", "162057.698000", "162057.700000", "162057.702000", "162057.705000", "162057.707000", "162057.710000", "162057.712000", "162137.656000", "162137.659000", "162137.662000", "162137.664000", "162137.667000", "162137.669000", "162137.672000", "162137.674000", "162137.677000", "162137.680000", "162137.682000", "162137.685000", "162137.687000", "162137.690000", "162137.692000", "162137.695000", "162137.697000", "162137.700000", "162137.703000", "162137.705000", "162137.708000", "162137.710000", "162137.713000", "162137.715000", "162137.718000", "162137.720000", "162137.723000", "162217.648000", "162217.650000", "162217.653000", "162217.656000", "162217.658000", "162217.660000", "162217.663000", "162217.666000", "162217.668000", "162217.670000", "162217.673000", "162217.676000", "162217.678000", "162217.681000", "162217.683000", "162217.686000", "162217.688000", "162217.691000", "162217.693000", "162217.696000", "162217.698000", "162217.701000", "162217.703000", "162217.706000", "162217.708000", "162217.711000", "162217.714000", "162258.061000", "162258.064000", "162258.066000", "162258.069000", "162258.071000", "162258.074000", "162258.076000", "162258.079000", "162258.081000", "162258.084000", "162258.086000", "162258.089000", "162258.091000", "162258.094000", "162258.096000", "162258.099000", "162258.101000", "162258.104000", "162258.106000", "162258.109000", "162258.111000", "162258.114000", "162258.116000", "162258.118000", "162258.121000", "162258.123000", "162303.214000", "162303.216000", "162303.219000", "162303.221000"],
