{
  "AcquisitionMatrixPE": 104,
  "AcquisitionNumber": 1,
  "AcquisitionTime": "15:59:49.507500",
  "BandwidthPerPixelPhaseEncode": 17.17,
  "BaseResolution": 104,
  "BodyPartExamined": "BRAIN",
  "CoilString": "HC1-7;NC1_2",
  "ConsistencyInfo": "N4_VE11C_LATEST_20160120",
  "ConversionSoftware": "dcm2niix",
  "ConversionSoftwareVersion": "v1.0.20190902",
  "DerivedVendorReportedEchoSpacing": 0.000560011,
  "DeviceSerialNumber": "167006",
  "DwellTime": 2.1e-06,
  "EchoTime": 0.037,
  "EchoTrainLength": 104,
  "EffectiveEchoSpacing": 0.000560011,
  "FlipAngle": 52,
  "HeudiconvVersion": "0.10.0",
  "ImageComments": "Unaliased_MB4_PE3_LB",
  "ImageOrientationPatientDICOM": [0.999027, -0.0423666, 0.0122261, 0.0439679, 0.936015, -0.349202],
  "ImageType": [
    "ORIGINAL",
    "PRIMARY",
    "P",
    "MB",
    "ND",
    "MOSAIC"
],
  "ImagingFrequency": 123.259,
  "InPlanePhaseEncodingDirectionDICOM": "COL",
  "InstitutionAddress": "Chemin_Queen-Mary_4565_Montreal_District_CA_H3W_1W5",
  "InstitutionName": "IUGM",
  "InstitutionalDepartmentName": "Department",
  "MRAcquisitionType": "2D",
  "MagneticFieldStrength": 3,
  "Manufacturer": "Siemens",
  "ManufacturersModelName": "Prisma_fit",
  "Modality": "MR",
  "MultibandAccelerationFactor": 4,
  "PartialFourier": 1,
  "PatientPosition": "HFS",
  "PercentPhaseFOV": 100,
  "PhaseEncodingDirection": "j",
  "PhaseEncodingSteps": 104,
  "PhaseResolution": 1,
  "PixelBandwidth": 2290,
  "ProcedureStepDescription": "games_mario",
  "ProtocolName": "func_task-mario_run-02",
  "PulseSequenceDetails": "%CustomerSeq%_cmrr_mbep2d_bold",
  "ReceiveCoilActiveElements": "HC1-7;NC1,2",
  "ReceiveCoilName": "HeadNeck_64",
  "ReconMatrixPE": 104,
  "RepetitionTime": 1.49,
  "SAR": 0.0485642,
  "ScanOptions": "FS",
  "ScanningSequence": "EP",
  "SequenceName": "epfid2d1_104",
  "SequenceVariant": "SK_SS",
  "SeriesDescription": "func_task-mario_run-02",
  "SeriesNumber": 14,
  "ShimSetting": [626, -7245, -8817, 583, -4, -143, -52, -47],
  "SliceThickness": 2,
  "SliceTiming": [0, 0.7825, 0.0975, 0.8825, 0.195, 0.98, 0.2925, 1.0775, 0.3925, 1.175, 0.49, 1.2725, 0.5875, 1.3725, 0.685, 0, 0.7825, 0.0975, 0.8825, 0.195, 0.98, 0.2925, 1.0775, 0.3925, 1.175, 0.49, 1.2725, 0.5875, 1.3725, 0.685, 0, 0.7825, 0.0975, 0.8825, 0.195, 0.98, 0.2925, 1.0775, 0.3925, 1.175, 0.49, 1.2725, 0.5875, 1.3725, 0.685, 0, 0.7825, 0.0975, 0.8825, 0.195, 0.98, 0.2925, 1.0775, 0.3925, 1.175, 0.49, 1.2725, 0.5875, 1.3725, 0.685],
  "SoftwareVersions": "syngo_MR_E11",
  "SpacingBetweenSlices": 2,
  "StationName": "MRC35049",
  "TaskName": "mario",
  "TotalReadoutTime": 0.0576811,
  "TxRefAmp": 251.105,
  "WipMemBlock": "044c7455-3411-4cda-be40-a70ba2e10341||Sequence: R016 ve11c/master r/e634e98; Dec 19 2017 11:00:25 by eja",
  "dcmmeta_affine": [
    [-1.9980546236038208, 0.08793576061725616, -0.0067014326341450214, 102.32102966308594],
    [0.08473312109708786, 1.8720306158065796, -0.6988000869750977, -68.37184143066406],
    [0.024452118203043938, 0.6984043121337891, 1.8739352226257324, -64.95843505859375],
    [0.0, 0.0, 0.0, 1.0]
],
  "dcmmeta_reorient_transform": [
    [0.0, -1.0, 0.0, 103.0],
    [1.0, 0.0, 0.0, 0.0],
    [0.0, 0.0, 1.0, 0.0],
    [0.0, 0.0, 0.0, 1.0]
],
  "dcmmeta_shape": [104, 104, 60, 429],
  "dcmmeta_slice_dim": 2,
  "dcmmeta_version": 0.6,
  "global": {
    "const": {
      "AcquisitionMatrix": [104, 0, 0, 104],
      "AngioFlag": "N",
      "BitsAllocated": 16,
      "BitsStored": 16,
      "BodyPartExamined": "BRAIN",
      "Columns": 832,
      "EchoNumbers": 1,
      "EchoTime": 37.0,
      "EchoTrainLength": 104,
      "FlipAngle": 52.0,
      "HighBit": 15,
      "ImageOrientationPatient": [0.99902732600264, -0.0423665598037, 0.0122260586622, 0.04396788145632, 0.93601531569178, -0.3492021680784],
      "ImagePositionPatient": [-870.67892445583, -775.02360791648, 252.29581706505],
      "ImageType": [
        "ORIGINAL",
        "PRIMARY",
        "P",
        "MB",
        "ND",
        "MOSAIC"
],
      "ImagedNucleus": "1H",
      "ImagingFrequency": 123.258913,
      "InPlanePhaseEncodingDirection": "COL",
      "LargestImagePixelValue": 4095,
      "MRAcquisitionType": "2D",
      "MagneticFieldStrength": 3.0,
      "Manufacturer": "SIEMENS",
      "ManufacturerModelName": "Prisma_fit",
      "Modality": "MR",
      "NumberOfAverages": 1.0,
      "NumberOfPhaseEncodingSteps": 104,
      "PercentPhaseFieldOfView": 100.0,
      "PercentSampling": 100.0,
      "PerformedProcedureStepStartTime": "151239.256000",
      "PhotometricInterpretation": "MONOCHROME2",
      "PixelBandwidth": 2290.0,
      "PixelRepresentation": 0,
      "PixelSpacing": [2.0, 2.0],
      "ProtocolName": "func_task-mario_run-02",
      "RepetitionTime": 1490.0,
      "RescaleIntercept": -4096.0,
      "RescaleSlope": 2.0,
      "RescaleType": "US",
      "Rows": 832,
      "SAR": 0.04856421535188,
      "SamplesPerPixel": 1,
      "ScanOptions": "FS",
      "ScanningSequence": "EP",
      "SequenceName": "epfid2d1_104",
      "SequenceVariant": [
        "SK",
        "SS"
],
      "SeriesDescription": "func_task-mario_run-02",
      "SeriesNumber": 14,
      "SeriesTime": "160118.058000",
      "SliceLocation": -37.317677110302,
      "SliceThickness": 2.0,
      "SmallestImagePixelValue": 0,
      "SoftwareVersions": "syngo MR E11",
      "SpacingBetweenSlices": 1.9999999619327,
      "SpecificCharacterSet": "ISO_IR 100",
      "StudyID": "1",
      "StudyTime": "151239.205000",
      "TransmitCoilName": "Body",
      "VariableFlipAngleFlag": "N",
      "WindowCenterWidthExplanation": "Algo1",
      "dBdt": 0.0},
    "slices": {}
  },
  "time": {
    "samples": {
      "AcquisitionNumber": [1, 2, 3, 4, 5, 6, 7, 8, 9, 10, 11, 12, 13, 14, 15, 16, 17, 18, 19, 20, 21, 22, 23, 24, 25, 26, 27, 28, 29, 30, 31, 32, 33, 34, 35, 36, 37, 38, 39, 40, 41, 42, 43, 44, 45, 46, 47, 48, 49, 50, 51, 52, 53, 54, 55, 56, 57, 58, 59, 60, 61, 62, 63, 64, 65, 66, 67, 68, 69, 70, 71, 72, 73, 74, 75, 76, 77, 78, 79, 80, 81, 82, 83, 84, 85, 86, 87, 88, 89, 90, 91, 92, 93, 94, 95, 96, 97, 98, 99, 100, 101, 102, 103, 104, 105, 106, 107, 108, 109, 110, 111, 112, 113, 114, 115, 116, 117, 118, 119, 120, 121, 122, 123, 124, 125, 126, 127, 128, 129, 130, 131, 132, 133, 134, 135, 136, 137, 138, 139, 140, 141, 142, 143, 144, 145, 146, 147, 148, 149, 150, 151, 152, 153, 154, 155, 156, 157, 158, 159, 160, 161, 162, 163, 164, 165, 166, 167, 168, 169, 170, 171, 172, 173, 174, 175, 176, 177, 178, 179, 180, 181, 182, 183, 184, 185, 186, 187, 188, 189, 190, 191, 192, 193, 194, 195, 196, 197, 198, 199, 200, 201, 202, 203, 204, 205, 206, 207, 208, 209, 210, 211, 212, 213, 214, 215, 216, 217, 218, 219, 220, 221, 222, 223, 224, 225, 226, 227, 228, 229, 230, 231, 232, 233, 234, 235, 236, 237, 238, 239, 240, 241, 242, 243, 244, 245, 246, 247, 248, 249, 250, 251, 252, 253, 254, 255, 256, 257, 258, 259, 260, 261, 262, 263, 264, 265, 266, 267, 268, 269, 270, 271, 272, 273, 274, 275, 276, 277, 278, 279, 280, 281, 282, 283, 284, 285, 286, 287, 288, 289, 290, 291, 292, 293, 294, 295, 296, 297, 298, 299, 300, 301, 302, 303, 304, 305, 306, 307, 308, 309, 310, 311, 312, 313, 314, 315, 316, 317, 318, 319, 320, 321, 322, 323, 324, 325, 326, 327, 328, 329, 330, 331, 332, 333, 334, 335, 336, 337, 338, 339, 340, 341, 342, 343, 344, 345, 346, 347, 348, 349, 350, 351, 352, 353, 354, 355, 356, 357, 358, 359, 360, 361, 362, 363, 364, 365, 366, 367, 368, 369, 370, 371, 372, 373, 374, 375, 376, 377, 378, 379, 380, 381, 382, 383, 384, 385, 386, 387, 388, 389, 390, 391, 392, 393, 394, 395, 396, 397, 398, 399, 400, 401, 402, 403, 404, 405, 406, 407, 408, 409, 410, 411, 412, 413, 414, 415, 416, 417, 418, 419, 420, 421, 422, 423, 424, 425, 426, 427, 428, 429],
      "AcquisitionTime": ["155949.507500", "155950.997500", "155952.487500", "155953.977500", "155955.467500", "155956.957500", "155958.447500", "155959.937500", "160001.427500", "160002.917500", "160004.407500", "160005.897500", "160007.387500", "160008.877500", "160010.367500", "160011.857500", "160013.347500", "160014.837500", "160016.327500", "160017.817500", "160019.307500", "160020.797500", "160022.287500", "160023.777500", "160025.267500", "160026.757500", "160028.247500", "160029.737500", "160031.227500", "160032.717500", "160034.207500", "160035.697500", "160037.187500", "160038.677500", "160040.167500", "160041.657500", "160043.147500", "160044.637500", "160046.127500", "160047.617500", "160049.107500", "160050.597500", "160052.087500", "160053.577500", "160055.067500", "160056.557500", "160058.047500", "160059.537500", "160101.027500", "160102.517500", "160104.007500", "160105.497500", "160106.987500", "160108.477500", "160109.967500", "160111.457500", "160112.947500", "160114.437500", "160115.927500", "160117.417500", "160118.907500", "160120.397500", "160121.887500", "160123.377500", "160124.867500", "160126.357500", "160127.847500", "160129.337500", "160130.827500", "160132.317500", "160133.807500", "160135.297500", "160136.787500", "160138.277500", "160139.767500", "160141.257500", "160142.747500", "160144.237500", "160145.727500", "160147.217500", "160148.707500", "160150.197500", "160151.687500", "160153.177500", "160154.667500", "160156.157500", "160157.647500", "160159.137500", "160200.627500", "160202.117500", "160203.607500", "160205.097500", "160206.587500", "160208.077500", "160209.567500", "160211.057500", "160212.547500", "160214.037500", "160215.527500", "160217.017500", "160218.507500", "160219.997500", "160221.487500", "160222.977500", "160224.467500", "160225.957500", "160227.447500", "160228.937500", "160230.427500", "160231.917500", "160233.407500", "160234.897500", "160236.387500", "160237.877500", "160239.367500", "160240.857500", "160242.347500", "160243.837500", "160245.327500", "160246.817500", "160248.307500", "160249.797500", "160251.287500", "160252.777500", "160254.267500", "160255.757500", "160257.247500", "160258.737500", "160300.227500", "160301.717500", "160303.207500", "160304.697500", "160306.187500", "160307.677500", "160309.167500", "160310.657500", "160312.147500", "160313.637500", "160315.127500", "160316.617500", "160318.107500", "160319.597500", "160321.087500", "160322.577500", "160324.067500", "160325.557500", "160327.047500", "160328.537500", "160330.027500", "160331.517500", "160333.007500", "160334.497500", "160335.987500", "160337.477500", "160338.967500", "160340.457500", "160341.947500", "160343.437500", "160344.927500", "160346.417500", "160347.907500", "160349.397500", "160350.887500", "160352.377500", "160353.867500", "160355.357500", "160356.847500", "160358.337500", "160359.827500", "160401.317500", "160402.807500", "160404.297500", "160405.787500", "160407.277500", "160408.767500", "160410.257500", "160411.747500", "160413.237500", "160414.727500", "160416.217500", "160417.707500", "160419.197500", "160420.687500", "160422.177500", "160423.667500", "160425.157500", "160426.647500", "160428.137500", "160429.627500", "160431.117500", "160432.607500", "160434.097500", "160435.587500", "160437.077500", "160438.567500", "160440.057500", "160441.547500", "160443.037500", "160444.527500", "160446.017500", "160447.507500", "160448.997500", "160450.487500", "160451.977500", "160453.467500", "160454.957500", "160456.447500", "160457.937500", "160459.427500", "160500.917500", "160502.407500", "160503.897500", "160505.387500", "160506.877500", "160508.367500", "160509.857500", "160511.347500", "160512.837500", "160514.327500", "160515.817500", "160517.307500", "160518.797500", "160520.287500", "160521.777500", "160523.267500", "160524.757500", "160526.247500", "160527.737500", "160529.227500", "160530.717500", "160532.207500", "160533.697500", "160535.187500", "160536.677500", "160538.167500", "160539.657500", "160541.147500", "160542.637500", "160544.127500", "160545.617500", "160547.107500", "160548.597500", "160550.087500", "160551.577500", "160553.067500", "160554.557500", "160556.047500", "160557.537500", "160559.027500", "160600.517500", "160602.007500", "160603.497500", "160604.987500", "160606.477500", "160607.967500", "160609.457500", "160610.947500", "160612.437500", "160613.927500", "160615.417500", "160616.907500", "160618.397500", "160619.887500", "160621.377500", "160622.867500", "160624.357500", "160625.847500", "160627.337500", "160628.827500", "160630.317500", "160631.807500", "160633.297500", "160634.787500", "160636.277500", "160637.767500", "160639.257500", "160640.747500", "160642.237500", "160643.727500", "160645.217500", "160646.707500", "160648.197500", "160649.687500", "160651.177500", "160652.667500", "160654.157500", "160655.647500", "160657.137500", "160658.627500", "160700.117500", "160701.607500", "160703.097500", "160704.587500", "160706.077500", "160707.567500", "160709.057500", "160710.547500", "160712.037500", "160713.527500", "160715.017500", "160716.507500", "160717.997500", "160719.487500", "160720.977500", "160722.467500", "160723.957500", "160725.447500", "160726.937500", "160728.427500", "160729.917500", "160731.407500", "160732.897500", "160734.387500", "160735.877500", "160737.367500", "160738.857500", "160740.347500", "160741.837500", "160743.327500", "160744.817500", "160746.307500", "160747.797500", "160749.287500", "160750.777500", "160752.267500", "160753.757500", "160755.247500", "160756.737500", "160758.227500", "160759.717500", "160801.207500", "160802.697500", "160804.187500", "160805.677500", "160807.167500", "160808.657500", "160810.147500", "160811.637500", "160813.127500", "160814.617500", "160816.107500", "160817.597500", "160819.087500", "160820.577500", "160822.067500", "160823.557500", "160825.047500", "160826.537500", "160828.027500", "160829.517500", "160831.007500", "160832.497500", "160833.987500", "160835.477500", "160836.967500", "160838.457500", "160839.947500", "160841.437500", "160842.927500", "160844.417500", "160845.907500", "160847.397500", "160848.887500", "160850.377500", "160851.867500", "160853.357500", "160854.847500", "160856.337500", "160857.827500", "160859.317500", "160900.807500", "160902.297500", "160903.787500", "160905.277500", "160906.767500", "160908.257500", "160909.747500", "160911.237500", "160912.727500", "160914.217500", "160915.707500", "160917.197500", "160918.687500", "160920.177500", "160921.667500", "160923.157500", "160924.647500", "160926.137500", "160927.627500", "160929.117500", "160930.607500", "160932.097500", "160933.587500", "160935.077500", "160936.567500", "160938.057500", "160939.547500", "160941.037500", "160942.527500", "160944.017500", "160945.507500", "160946.997500", "160948.487500", "160949.977500", "160951.467500", "160952.957500", "160954.447500", "160955.937500", "160957.427500", "160958.917500", "161000.407500", "161001.897500", "161003.387500", "161004.877500", "161006.367500", "161007.857500", "161009.347500", "161010.837500", "161012.327500", "161013.817500", "161015.307500", "161016.797500", "161018.287500", "161019.777500", "161021.267500", "161022.757500", "161024.247500", "161025.737500", "161027.227500"],
      "ContentTime": ["160118.060000", "160118.062000", "160118.065000", "160118.067000", "160118.070000", "160118.072000", "160118.075000", "160118.077000", "160118.080000", "160118.082000", "160118.085000", "160118.087000", "160118.090000", "160118.092000", "160118.095000", "160118.097000", "160118.100000", "160118.102000", "160118.105000", "160118.107000", "160118.110000", "160118.112000", "160118.115000", "160118.117000", "160118.120000", "160118.122000", "160118.125000", "160118.127000", "160118.130000", "160118.132000", "160118.134000", "160118.137000", "160137.572000", "160137.575000", "160137.577000", "160137.580000", "160137.582000", "160137.585000", "160137.587000", "160137.590000", "160137.592000", "160137.594000", "160137.597000", "160137.599000", "160137.602000", "160137.604000", "160137.607000", "160137.609000", "160137.612000", "160137.614000", "160137.617000", "160137.619000", "160157.611000", "160157.614000", "160157.616000", "160157.619000", "160157.621000", "160157.624000", "160157.626000", "160157.629000", "160157.635000", "160157.638000", "160157.640000", "160157.643000", "160157.645000", "160157.648000", "160157.650000", "160157.653000", "160157.655000", "160157.658000", "160157.660000", "160157.663000", "160157.665000", "160217.564000", "160217.567000", "160217.570000", "160217.572000", "160217.575000", "160217.577000", "160217.580000", "160217.582000", "160217.585000", "160217.587000", "160217.590000", "160217.592000", "160217.595000", "160217.597000", "160217.600000", "160217.602000", "160217.605000", "160217.607000", "160217.610000", "160217.612000", "160257.637000", "160257.640000", "160257.643000", "160257.646000", "160257.649000", "160257.654000", "160257.657000", "160257.660000", "160257.663000", "160257.666000", "160257.669000", "160257.671000", "160257.674000", "160257.676000", "160257.679000", "160257.681000", "160257.684000", "160257.686000", "160257.689000", "160257.691000", "160257.694000", "160257.696000", "160257.699000", "160257.701000", "160257.704000", "160257.706000", "160257.709000", "160257.711000", "160257.714000", "160257.716000", "160257.719000", "160257.721000", "160337.603000", "160337.605000", "160337.608000", "160337.610000", "160337.613000", "160337.615000", "160337.618000", "160337.620000", "160337.623000", "160337.625000", "160337.628000", "160337.630000", "160337.633000", "160337.635000", "160337.638000", "160337.640000", "160337.643000", "160337.645000", "160337.648000", "160337.650000", "160337.653000", "160337.655000", "160337.658000", "160337.660000", "160337.663000", "160337.665000", "160337.668000", "160417.627000", "160417.630000", "160417.633000", "160417.635000", "160417.637000", "160417.640000", "160417.642000", "160417.645000", "160417.647000", "160417.650000", "160417.653000", "160417.655000", "160417.657000", "160417.660000", "160417.662000", "160417.665000", "160417.667000", "160417.670000", "160417.672000", "160417.675000", "160417.677000", "160417.680000", "160417.682000", "160417.685000", "160417.687000", "160417.690000", "160417.692000", "160457.607000", "160457.610000", "160457.613000", "160457.615000", "160457.627000", "160457.630000", "160457.641000", "160457.643000", "160457.646000", "160457.648000", "160457.651000", "160457.653000", "160457.656000", "160457.658000", "160457.661000", "160457.663000", "160457.666000", "160457.668000", "160457.671000", "160457.674000", "160457.676000", "160457.678000", "160457.681000", "160457.683000", "160457.686000", "160457.688000", "160457.691000", "160517.554000", "160517.557000", "160517.559000", "160517.562000", "160517.564000", "160517.567000", "160517.569000", "160517.573000", "160517.575000", "160517.578000", "160517.580000", "160517.583000", "160517.585000", "160557.608000", "160557.610000", "160557.613000", "160557.615000", "160557.618000", "160557.620000", "160557.623000", "160557.625000", "160557.628000", "160557.630000", "160557.633000", "160557.635000", "160557.638000", "160557.640000", "160557.643000", "160557.645000", "160557.648000", "160557.650000", "160557.653000", "160557.655000", "160557.658000", "160557.660000", "160557.663000", "160557.665000", "160557.668000", "160557.670000", "160557.673000", "160637.616000", "160637.618000", "160637.621000", "160637.623000", "160637.626000", "160637.628000", "160637.631000", "160637.633000", "160637.636000", "160637.638000", "160637.641000", "160637.643000", "160637.646000", "160637.648000", "160637.651000", "160637.653000", "160637.656000", "160637.658000", "160637.661000", "160637.663000", "160637.666000", "160637.669000", "160637.671000", "160637.674000", "160637.676000", "160637.679000", "160637.682000", "160717.641000", "160717.644000", "160717.647000", "160717.649000", "160717.652000", "160717.654000", "160717.657000", "160717.659000", "160717.662000", "160717.664000", "160717.667000", "160717.669000", "160717.671000", "160717.674000", "160717.677000", "160717.679000", "160717.681000", "160717.684000", "160717.686000", "160717.689000", "160717.691000", "160717.694000", "160717.696000", "160717.699000", "160717.701000", "160717.704000", "160717.706000", "160757.604000", "160757.607000", "160757.609000", "160757.612000", "160757.614000", "160757.616000", "160757.619000", "160757.622000", "160757.624000", "160757.626000", "160757.629000", "160757.632000", "160757.634000", "160757.636000", "160757.639000", "160757.641000", "160757.644000", "160757.646000", "160757.649000", "160757.651000", "160757.654000", "160757.656000", "160757.659000", "160757.661000", "160757.664000", "160757.666000", "160757.669000", "160837.612000", "160837.615000", "160837.618000", "160837.620000", "160837.623000", "160837.625000", "160837.628000", "160837.630000", "160837.632000", "160837.635000", "160837.637000", "160837.640000", "160837.642000", "160837.645000", "160837.647000", "160837.650000", "160837.653000", "160837.655000", "160837.657000", "160837.660000", "160837.662000", "160837.665000", "160837.668000", "160837.670000", "160837.673000", "160837.675000", "160837.678000", "160917.615000", "160917.617000", "160917.620000", "160917.622000", "160917.625000", "160917.627000", "160917.630000", "160917.633000", "160917.635000", "160917.638000", "160917.640000", "160917.643000", "160917.645000", "160917.648000", "160917.650000", "160917.653000", "160917.655000", "160917.658000", "160917.660000", "160917.663000", "160917.665000", "160917.668000", "160917.670000", "160917.672000", "160917.675000", "160917.677000", "160957.589000", "160957.592000", "160957.594000", "160957.597000", "160957.599000", "160957.602000", "160957.604000", "160957.607000", "160957.609000", "160957.612000", "160957.615000", "160957.617000", "160957.620000", "160957.622000", "160957.625000", "160957.627000", "160957.630000", "160957.632000", "160957.635000", "160957.637000", "160957.640000", "160957.642000", "160957.645000", "160957.647000", "160957.649000", "160957.652000", "160957.654000", "161030.046000", "161030.048000", "161030.051000", "161030.053000", "161030.056000", "161030.058000", "161030.061000", "161030.063000", "161030.066000", "161030.069000", "161030.071000", "161030.074000", "161030.076000", "161030.079000", "161030.081000", "161030.084000", "161030.086000", "161030.089000", "161030.104000", "161030.107000", "161030.109000", "161030.112000"],
      "InstanceCreationTime": ["160118.060000", "160118.062000", "160118.065000", "160118.067000", "160118.070000", "160118.072000", "160118.075000", "160118.077000", "160118.080000", "160118.082000", "160118.085000", "160118.087000", "160118.090000", "160118.092000", "160118.095000", "160118.097000", "160118.100000", "160118.102000", "160118.105000", "160118.107000", "160118.110000", "160118.112000", "160118.115000", "160118.117000", "160118.120000", "160118.122000", "160118.125000", "160118.127000", "160118.130000", "160118.132000", "160118.134000", "160118.137000", "160137.572000", "160137.575000", "160137.577000", "160137.580000", "160137.582000", "160137.585000", "160137.587000", "160137.590000", "160137.592000", "160137.594000", "160137.597000", "160137.599000", "160137.602000", "160137.604000", "160137.607000", "160137.609000", "160137.612000", "160137.614000", "160137.617000", "160137.619000", "160157.611000", "160157.614000", "160157.616000", "160157.619000", "160157.621000", "160157.624000", "160157.626000", "160157.629000", "160157.635000", "160157.638000", "160157.640000", "160157.643000", "160157.645000", "160157.648000", "160157.650000", "160157.653000", "160157.655000", "160157.658000", "160157.660000", "160157.663000", "160157.665000", "160217.564000", "160217.567000", "160217.570000", "160217.572000", "160217.575000", "160217.577000", "160217.580000", "160217.582000", "160217.585000", "160217.587000", "160217.590000", "160217.592000", "160217.595000", "160217.597000", "160217.600000", "160217.602000", "160217.605000", "160217.607000", "160217.610000", "160217.612000", "160257.637000", "160257.640000", "160257.643000", "160257.646000", "160257.649000", "160257.654000", "160257.657000", "160257.660000", "160257.663000", "160257.666000", "160257.669000", "160257.671000", "160257.674000", "160257.676000", "160257.679000", "160257.681000", "160257.684000", "160257.686000", "160257.689000", "160257.691000", "160257.694000", "160257.696000", "160257.699000", "160257.701000", "160257.704000", "160257.706000", "160257.709000", "160257.711000", "160257.714000", "160257.716000", "160257.719000", "160257.721000", "160337.603000", "160337.605000", "160337.608000", "160337.610000", "160337.613000", "160337.615000", "160337.618000", "160337.620000", "160337.623000", "160337.625000", "160337.628000", "160337.630000", "160337.633000", "160337.635000", "160337.638000", "160337.640000", "160337.643000", "160337.645000", "160337.648000", "160337.650000", "160337.653000", "160337.655000", "160337.658000", "160337.660000", "160337.663000", "160337.665000", "160337.668000", "160417.627000", "160417.630000", "160417.633000", "160417.635000", "160417.637000", "160417.640000", "160417.642000", "160417.645000", "160417.647000", "160417.650000", "160417.653000", "160417.655000", "160417.657000", "160417.660000", "160417.662000", "160417.665000", "160417.667000", "160417.670000", "160417.672000", "160417.675000", "160417.677000", "160417.680000", "160417.682000", "160417.685000", "160417.687000", "160417.690000", "160417.692000", "160457.607000", "160457.610000", "160457.613000", "160457.615000", "160457.627000", "160457.630000", "160457.641000", "160457.643000", "160457.646000", "160457.648000", "160457.651000", "160457.653000", "160457.656000", "160457.658000", "160457.661000", "160457.663000", "160457.666000", "160457.668000", "160457.671000", "160457.674000", "160457.676000", "160457.678000", "160457.681000", "160457.683000", "160457.686000", "160457.688000", "160457.691000", "160517.554000", "160517.557000", "160517.559000", "160517.562000", "160517.564000", "160517.567000", "160517.569000", "160517.573000", "160517.575000", "160517.578000", "160517.580000", "160517.583000", "160517.585000", "160557.608000", "160557.610000", "160557.613000", "160557.615000", "160557.618000", "160557.620000", "160557.623000", "160557.625000", "160557.628000", "160557.630000", "160557.633000", "160557.635000", "160557.638000", "160557.640000", "160557.643000", "160557.645000", "160557.648000", "160557.650000", "160557.653000", "160557.655000", "160557.658000", "160557.660000", "160557.663000", "160557.665000", "160557.668000", "160557.670000", "160557.673000", "160637.616000", "160637.618000", "160637.621000", "160637.623000", "160637.626000", "160637.628000", "160637.631000", "160637.633000", "160637.636000", "160637.638000", "160637.641000", "160637.643000", "160637.646000", "160637.648000", "160637.651000", "160637.653000", "160637.656000", "160637.658000", "160637.661000", "160637.663000", "160637.666000", "160637.669000", "160637.671000", "160637.674000", "160637.676000", "160637.679000", "160637.682000", "160717.641000", "160717.644000", "160717.647000", "160717.649000", "160717.652000", "160717.654000", "160717.657000", "160717.659000", "160717.662000", "160717.664000", "160717.667000", "160717.669000", "160717.671000", "160717.674000", "160717.677000", "160717.679000", "160717.681000", "160717.684000", "160717.686000", "160717.689000", "160717.691000", "160717.694000", "160717.696000", "160717.699000", "160717.701000", "160717.704000", "160717.706000", "160757.604000", "160757.607000", "160757.609000", "160757.612000", "160757.614000", "160757.616000", "160757.619000", "160757.622000", "160757.624000", "160757.626000", "160757.629000", "160757.632000", "160757.634000", "160757.636000", "160757.639000", "160757.641000", "160757.644000", "160757.646000", "160757.649000", "160757.651000", "160757.654000", "160757.656000", "160757.659000", "160757.661000", "160757.664000", "160757.666000", "160757.669000", "160837.612000", "160837.615000", "160837.618000", "160837.620000", "160837.623000", "160837.625000", "160837.628000", "160837.630000", "160837.632000", "160837.635000", "160837.637000", "160837.640000", "160837.642000", "160837.645000", "160837.647000", "160837.650000", "160837.653000", "160837.655000", "160837.657000", "160837.660000", "160837.662000", "160837.665000", "160837.668000", "160837.670000", "160837.673000", "160837.675000", "160837.678000", "160917.615000", "160917.617000", "160917.620000", "160917.622000", "160917.625000", "160917.627000", "160917.630000", "160917.633000", "160917.635000", "160917.638000", "160917.640000", "160917.643000", "160917.645000", "160917.648000", "160917.650000", "160917.653000", "160917.655000", "160917.658000", "160917.660000", "160917.663000", "160917.665000", "160917.668000", "160917.670000", "160917.672000", "160917.675000", "160917.677000", "160957.589000", "160957.592000", "160957.594000", "160957.597000", "160957.599000", "160957.602000", "160957.604000", "160957.607000", "160957.609000", "160957.612000", "160957.615000", "160957.617000", "160957.620000", "160957.622000", "160957.625000", "160957.627000", "160957.630000", "160957.632000", "160957.635000", "160957.637000", "160957.640000", "160957.642000", "160957.645000", "160957.647000", "160957.649000", "160957.652000", "160957.654000", "161030.046000", "161030.048000", "161030.051000", "161030.053000", "161030.056000", "161030.058000", "161030.061000", "161030.063000", "161030.066000", "161030.069000", "161030.071000", "161030.074000", "161030.076000", "161030.079000", "161030.081000", "161030.084000", "161030.086000", "161030.089000", "161030.104000", "161030.107000", "161030.109000", "161030.112000"],
