{
  "AcquisitionMatrixPE": 104,
  "AcquisitionNumber": 1,
  "AcquisitionTime": "14:15:15.615000",
  "BandwidthPerPixelPhaseEncode": 17.17,
  "BaseResolution": 104,
  "BodyPartExamined": "BRAIN",
  "CoilCombinationMethod": "Sum of Squares",
  "ConsistencyInfo": "N4_VE11C_LATEST_20160120",
  "ConversionSoftware": "dcm2niix",
  "ConversionSoftwareVersion": "v1.0.20211006",
  "DerivedVendorReportedEchoSpacing": 0.000560011,
  "DeviceSerialNumber": "167006",
  "DwellTime": 2.1e-06,
  "EchoTime": 0.037,
  "EchoTime1": 0.037,
  "EchoTime2": 0.001,
  "EchoTrainLength": 104,
  "EffectiveEchoSpacing": 0.000560011,
  "FlipAngle": 52,
  "HeudiconvVersion": "0.5.3.post569+g418601f",
  "ImageComments": "Unaliased MB4/PE3/LB",
  "ImageOrientationPatientDICOM": [0.999972, 0.00605046, 0.0043634, -0.00471228, 0.965791, -0.259278],
  "ImageOrientationText": "Tra>Cor(-15.0)>Sag(0.3)",
  "ImageType": [
    "ORIGINAL",
    "PRIMARY",
    "P",
    "MB",
    "ND",
    "MOSAIC",
    "PHASE"
],
  "ImagingFrequency": 123.259,
  "InPlanePhaseEncodingDirectionDICOM": "COL",
  "InstitutionAddress": "Chemin Queen-Mary 4565,Montreal,District,CA,H3W 1W5",
  "InstitutionName": "IUGM",
  "InstitutionalDepartmentName": "Department",
  "MRAcquisitionType": "2D",
  "MagneticFieldStrength": 3,
  "Manufacturer": "Siemens",
  "ManufacturersModelName": "Prisma_fit",
  "MatrixCoilMode": "SENSE",
  "Modality": "MR",
  "MultibandAccelerationFactor": 4,
  "PartialFourier": 1,
  "PatientPosition": "HFS",
  "PercentPhaseFOV": 100,
  "PercentSampling": 100,
  "PhaseEncodingDirection": "j",
  "PhaseEncodingSteps": 104,
  "PhaseResolution": 1,
  "PixelBandwidth": 2290,
  "ProcedureStepDescription": "games^mario",
  "ProtocolName": "func_task-mario_run-05",
  "PulseSequenceDetails": "%CustomerSeq%\\cmrr_mbep2d_bold",
  "ReceiveCoilActiveElements": "HC1-7;NC1,2",
  "ReceiveCoilName": "HeadNeck_64",
  "ReconMatrixPE": 104,
  "RepetitionTime": 1.49,
  "SAR": 0.060719,
  "ScanOptions": "FS",
  "ScanningSequence": "EP",
  "SequenceName": "epfid2d1_104",
  "SequenceVariant": "SK\\SS",
  "SeriesDescription": "func_task-mario_run-05",
  "SeriesNumber": 23,
  "ShimSetting": [616, -7216, -8763, 704, -12, -19, 75, -17],
  "SliceThickness": 2,
  "SliceTiming": [0, 0.785, 0.1, 0.8825, 0.1975, 0.98, 0.295, 1.08, 0.3925, 1.1775, 0.49, 1.275, 0.59, 1.3725, 0.6875, 0, 0.785, 0.1, 0.8825, 0.1975, 0.98, 0.295, 1.08, 0.3925, 1.1775, 0.49, 1.275, 0.59, 1.3725, 0.6875, 0, 0.785, 0.1, 0.8825, 0.1975, 0.98, 0.295, 1.08, 0.3925, 1.1775, 0.49, 1.275, 0.59, 1.3725, 0.6875, 0, 0.785, 0.1, 0.8825, 0.1975, 0.98, 0.295, 1.08, 0.3925, 1.1775, 0.49, 1.275, 0.59, 1.3725, 0.6875],
  "SoftwareVersions": "syngo MR E11",
  "SpacingBetweenSlices": 2,
  "StationName": "MRC35049",
  "TaskName": "mario",
  "TotalReadoutTime": 0.0576811,
  "TxRefAmp": 241.737,
  "WipMemBlock": "85b5739c-cbc2-49e8-a5b3-0c916b47dddc||Sequence: R016 ve11c/master r/e634e98; Dec 19 2017 11:00:25 by eja",
  "dcmmeta_affine": [
    [-1.9999443292617798, -0.009424557909369469, 0.011565770022571087, 109.12311553955078],
    [-0.012100917287170887, 1.9315826892852783, -0.5184996724128723, -72.98462677001953],
    [0.008726805448532104, 0.518555223941803, 1.9315859079360962, -54.84740447998047],
    [0.0, 0.0, 0.0, 1.0]
],
  "dcmmeta_reorient_transform": [
    [0.0, -1.0, 0.0, 103.0],
    [1.0, 0.0, 0.0, 0.0],
    [0.0, 0.0, 1.0, 0.0],
    [0.0, 0.0, 0.0, 1.0]
],
  "dcmmeta_shape": [104, 104, 60, 421],
  "dcmmeta_slice_dim": 2,
  "dcmmeta_version": 0.6,
  "global": {
    "const": {
      "AcquisitionMatrix": [104, 0, 0, 104],
      "AngioFlag": "N",
      "BitsAllocated": 16,
      "BitsStored": 16,
      "BodyPartExamined": "BRAIN",
      "Columns": 832,
      "EchoNumbers": 1,
      "EchoTime": 37.0,
      "EchoTrainLength": 104,
      "FlipAngle": 52.0,
      "HighBit": 15,
      "ImageOrientationPatient": [0.99997217594613, 0.00605045863346, 0.00436340278876, -0.0047122790254, 0.96579134138679, -0.2592776105426],
      "ImagePositionPatient": [-832.70159232367, -833.46922057339, 184.14132470864],
      "ImageType": [
        "ORIGINAL",
        "PRIMARY",
        "P",
        "MB",
        "ND",
        "MOSAIC"
],
      "ImagedNucleus": "1H",
      "ImagingFrequency": 123.258852,
      "InPlanePhaseEncodingDirection": "COL",
      "LargestImagePixelValue": 4095,
      "MRAcquisitionType": "2D",
      "MagneticFieldStrength": 3.0,
      "Manufacturer": "SIEMENS",
      "ManufacturerModelName": "Prisma_fit",
      "Modality": "MR",
      "NumberOfAverages": 1.0,
      "NumberOfPhaseEncodingSteps": 104,
      "PercentPhaseFieldOfView": 100.0,
      "PercentSampling": 100.0,
      "PerformedProcedureStepStartTime": "131232.486000",
      "PhotometricInterpretation": "MONOCHROME2",
      "PixelBandwidth": 2290.0,
      "PixelRepresentation": 0,
      "PixelSpacing": [2.0, 2.0],
      "ProtocolName": "func_task-mario_run-05",
      "RepetitionTime": 1490.0,
      "RescaleIntercept": -4096.0,
      "RescaleSlope": 2.0,
      "RescaleType": "US",
      "Rows": 832,
      "SAR": 0.06071903111986,
      "SamplesPerPixel": 1,
      "ScanOptions": "FS",
      "ScanningSequence": "EP",
      "SequenceName": "epfid2d1_104",
      "SequenceVariant": [
        "SK",
        "SS"
],
      "SeriesDescription": "func_task-mario_run-05",
      "SeriesNumber": 23,
      "SeriesTime": "141634.085000",
      "SliceLocation": -33.418941293352,
      "SliceThickness": 2.0,
      "SmallestImagePixelValue": 0,
      "SoftwareVersions": "syngo MR E11",
      "SpacingBetweenSlices": 1.9999999713053,
      "SpecificCharacterSet": "ISO_IR 100",
      "StudyID": "1",
      "StudyTime": "131232.360000",
      "TransmitCoilName": "Body",
      "VariableFlipAngleFlag": "N",
      "WindowCenterWidthExplanation": "Algo1",
      "dBdt": 0.0},
    "slices": {}
  },
  "time": {
    "samples": {
      "AcquisitionNumber": [1, 2, 3, 4, 5, 6, 7, 8, 9, 10, 11, 12, 13, 14, 15, 16, 17, 18, 19, 20, 21, 22, 23, 24, 25, 26, 27, 28, 29, 30, 31, 32, 33, 34, 35, 36, 37, 38, 39, 40, 41, 42, 43, 44, 45, 46, 47, 48, 49, 50, 51, 52, 53, 54, 55, 56, 57, 58, 59, 60, 61, 62, 63, 64, 65, 66, 67, 68, 69, 70, 71, 72, 73, 74, 75, 76, 77, 78, 79, 80, 81, 82, 83, 84, 85, 86, 87, 88, 89, 90, 91, 92, 93, 94, 95, 96, 97, 98, 99, 100, 101, 102, 103, 104, 105, 106, 107, 108, 109, 110, 111, 112, 113, 114, 115, 116, 117, 118, 119, 120, 121, 122, 123, 124, 125, 126, 127, 128, 129, 130, 131, 132, 133, 134, 135, 136, 137, 138, 139, 140, 141, 142, 143, 144, 145, 146, 147, 148, 149, 150, 151, 152, 153, 154, 155, 156, 157, 158, 159, 160, 161, 162, 163, 164, 165, 166, 167, 168, 169, 170, 171, 172, 173, 174, 175, 176, 177, 178, 179, 180, 181, 182, 183, 184, 185, 186, 187, 188, 189, 190, 191, 192, 193, 194, 195, 196, 197, 198, 199, 200, 201, 202, 203, 204, 205, 206, 207, 208, 209, 210, 211, 212, 213, 214, 215, 216, 217, 218, 219, 220, 221, 222, 223, 224, 225, 226, 227, 228, 229, 230, 231, 232, 233, 234, 235, 236, 237, 238, 239, 240, 241, 242, 243, 244, 245, 246, 247, 248, 249, 250, 251, 252, 253, 254, 255, 256, 257, 258, 259, 260, 261, 262, 263, 264, 265, 266, 267, 268, 269, 270, 271, 272, 273, 274, 275, 276, 277, 278, 279, 280, 281, 282, 283, 284, 285, 286, 287, 288, 289, 290, 291, 292, 293, 294, 295, 296, 297, 298, 299, 300, 301, 302, 303, 304, 305, 306, 307, 308, 309, 310, 311, 312, 313, 314, 315, 316, 317, 318, 319, 320, 321, 322, 323, 324, 325, 326, 327, 328, 329, 330, 331, 332, 333, 334, 335, 336, 337, 338, 339, 340, 341, 342, 343, 344, 345, 346, 347, 348, 349, 350, 351, 352, 353, 354, 355, 356, 357, 358, 359, 360, 361, 362, 363, 364, 365, 366, 367, 368, 369, 370, 371, 372, 373, 374, 375, 376, 377, 378, 379, 380, 381, 382, 383, 384, 385, 386, 387, 388, 389, 390, 391, 392, 393, 394, 395, 396, 397, 398, 399, 400, 401, 402, 403, 404, 405, 406, 407, 408, 409, 410, 411, 412, 413, 414, 415, 416, 417, 418, 419, 420, 421],
      "AcquisitionTime": ["141515.615000", "141517.105000", "141518.595000", "141520.085000", "141521.575000", "141523.065000", "141524.555000", "141526.045000", "141527.535000", "141529.025000", "141530.515000", "141532.005000", "141533.495000", "141534.985000", "141536.475000", "141537.965000", "141539.455000", "141540.945000", "141542.435000", "141543.925000", "141545.415000", "141546.905000", "141548.395000", "141549.885000", "141551.375000", "141552.865000", "141554.355000", "141555.845000", "141557.335000", "141558.825000", "141600.315000", "141601.805000", "141603.295000", "141604.785000", "141606.275000", "141607.765000", "141609.255000", "141610.745000", "141612.235000", "141613.725000", "141615.215000", "141616.705000", "141618.195000", "141619.685000", "141621.175000", "141622.665000", "141624.155000", "141625.645000", "141627.135000", "141628.625000", "141630.115000", "141631.605000", "141633.095000", "141634.585000", "141636.075000", "141637.565000", "141639.055000", "141640.545000", "141642.035000", "141643.525000", "141645.015000", "141646.505000", "141647.995000", "141649.485000", "141650.975000", "141652.465000", "141653.955000", "141655.445000", "141656.935000", "141658.425000", "141659.915000", "141701.405000", "141702.895000", "141704.385000", "141705.875000", "141707.365000", "141708.855000", "141710.345000", "141711.835000", "141713.325000", "141714.815000", "141716.305000", "141717.795000", "141719.285000", "141720.775000", "141722.265000", "141723.755000", "141725.245000", "141726.735000", "141728.225000", "141729.715000", "141731.205000", "141732.695000", "141734.185000", "141735.675000", "141737.165000", "141738.655000", "141740.145000", "141741.635000", "141743.125000", "141744.615000", "141746.105000", "141747.595000", "141749.085000", "141750.575000", "141752.065000", "141753.555000", "141755.045000", "141756.535000", "141758.025000", "141759.515000", "141801.005000", "141802.495000", "141803.985000", "141805.475000", "141806.965000", "141808.455000", "141809.945000", "141811.435000", "141812.925000", "141814.415000", "141815.905000", "141817.395000", "141818.885000", "141820.375000", "141821.865000", "141823.355000", "141824.845000", "141826.335000", "141827.825000", "141829.315000", "141830.805000", "141832.295000", "141833.785000", "141835.275000", "141836.765000", "141838.255000", "141839.745000", "141841.235000", "141842.725000", "141844.215000", "141845.705000", "141847.195000", "141848.685000", "141850.175000", "141851.665000", "141853.155000", "141854.645000", "141856.135000", "141857.625000", "141859.115000", "141900.605000", "141902.095000", "141903.585000", "141905.075000", "141906.565000", "141908.055000", "141909.545000", "141911.035000", "141912.525000", "141914.015000", "141915.505000", "141916.995000", "141918.485000", "141919.975000", "141921.465000", "141922.955000", "141924.445000", "141925.935000", "141927.425000", "141928.915000", "141930.405000", "141931.895000", "141933.385000", "141934.875000", "141936.365000", "141937.855000", "141939.345000", "141940.835000", "141942.325000", "141943.815000", "141945.305000", "141946.795000", "141948.285000", "141949.775000", "141951.265000", "141952.755000", "141954.245000", "141955.735000", "141957.225000", "141958.715000", "142000.205000", "142001.695000", "142003.185000", "142004.675000", "142006.165000", "142007.655000", "142009.145000", "142010.635000", "142012.125000", "142013.615000", "142015.105000", "142016.595000", "142018.085000", "142019.575000", "142021.065000", "142022.555000", "142024.045000", "142025.535000", "142027.025000", "142028.515000", "142030.005000", "142031.495000", "142032.985000", "142034.475000", "142035.965000", "142037.455000", "142038.945000", "142040.435000", "142041.925000", "142043.415000", "142044.905000", "142046.395000", "142047.885000", "142049.375000", "142050.865000", "142052.355000", "142053.845000", "142055.335000", "142056.825000", "142058.315000", "142059.805000", "142101.295000", "142102.785000", "142104.275000", "142105.765000", "142107.255000", "142108.745000", "142110.235000", "142111.725000", "142113.215000", "142114.705000", "142116.195000", "142117.685000", "142119.175000", "142120.665000", "142122.155000", "142123.645000", "142125.135000", "142126.625000", "142128.115000", "142129.605000", "142131.095000", "142132.585000", "142134.075000", "142135.565000", "142137.055000", "142138.545000", "142140.035000", "142141.525000", "142143.015000", "142144.505000", "142145.995000", "142147.485000", "142148.975000", "142150.465000", "142151.955000", "142153.445000", "142154.935000", "142156.425000", "142157.915000", "142159.405000", "142200.895000", "142202.385000", "142203.875000", "142205.365000", "142206.855000", "142208.345000", "142209.835000", "142211.325000", "142212.815000", "142214.305000", "142215.795000", "142217.285000", "142218.775000", "142220.265000", "142221.755000", "142223.245000", "142224.735000", "142226.225000", "142227.715000", "142229.205000", "142230.695000", "142232.185000", "142233.675000", "142235.165000", "142236.655000", "142238.145000", "142239.635000", "142241.125000", "142242.615000", "142244.105000", "142245.595000", "142247.085000", "142248.575000", "142250.065000", "142251.555000", "142253.045000", "142254.535000", "142256.025000", "142257.515000", "142259.005000", "142300.495000", "142301.985000", "142303.475000", "142304.965000", "142306.455000", "142307.945000", "142309.435000", "142310.925000", "142312.415000", "142313.905000", "142315.395000", "142316.885000", "142318.375000", "142319.865000", "142321.355000", "142322.845000", "142324.335000", "142325.825000", "142327.315000", "142328.805000", "142330.295000", "142331.785000", "142333.275000", "142334.765000", "142336.255000", "142337.745000", "142339.235000", "142340.725000", "142342.215000", "142343.705000", "142345.195000", "142346.685000", "142348.175000", "142349.665000", "142351.155000", "142352.645000", "142354.135000", "142355.625000", "142357.115000", "142358.605000", "142400.095000", "142401.585000", "142403.075000", "142404.565000", "142406.055000", "142407.545000", "142409.035000", "142410.525000", "142412.015000", "142413.505000", "142414.995000", "142416.485000", "142417.975000", "142419.465000", "142420.955000", "142422.445000", "142423.935000", "142425.425000", "142426.915000", "142428.405000", "142429.895000", "142431.385000", "142432.875000", "142434.365000", "142435.855000", "142437.345000", "142438.835000", "142440.325000", "142441.815000", "142443.305000", "142444.795000", "142446.285000", "142447.775000", "142449.265000", "142450.755000", "142452.245000", "142453.735000", "142455.225000", "142456.715000", "142458.205000", "142459.695000", "142501.185000", "142502.675000", "142504.165000", "142505.655000", "142507.145000", "142508.635000", "142510.125000", "142511.615000", "142513.105000", "142514.595000", "142516.085000", "142517.575000", "142519.065000", "142520.555000", "142522.045000", "142523.535000", "142525.025000", "142526.515000", "142528.005000", "142529.495000", "142530.985000", "142532.475000", "142533.965000", "142535.455000", "142536.945000", "142538.435000", "142539.925000", "142541.415000"],
      "ContentTime": ["141634.087000", "141634.090000", "141634.092000", "141634.095000", "141634.097000", "141634.100000", "141634.102000", "141634.105000", "141634.107000", "141634.110000", "141634.112000", "141634.115000", "141634.117000", "141634.119000", "141634.122000", "141634.124000", "141634.127000", "141634.129000", "141634.132000", "141634.134000", "141634.137000", "141634.139000", "141634.142000", "141634.144000", "141653.987000", "141653.990000", "141653.992000", "141653.995000", "141653.997000", "141654.001000", "141654.003000", "141654.006000", "141654.008000", "141654.011000", "141654.013000", "141654.016000", "141654.018000", "141654.021000", "141654.023000", "141654.026000", "141654.028000", "141654.043000", "141654.046000", "141654.048000", "141714.014000", "141714.017000", "141714.020000", "141714.022000", "141714.025000", "141714.027000", "141714.030000", "141714.032000", "141714.034000", "141714.037000", "141714.039000", "141714.042000", "141714.049000", "141714.051000", "141714.054000", "141714.056000", "141714.059000", "141714.061000", "141714.064000", "141714.067000", "141733.997000", "141734.000000", "141734.003000", "141734.005000", "141734.008000", "141734.010000", "141734.013000", "141734.019000", "141734.022000", "141734.024000", "141734.027000", "141734.029000", "141734.032000", "141734.034000", "141734.037000", "141734.039000", "141734.042000", "141734.044000", "141734.047000", "141734.049000", "141754.002000", "141754.005000", "141754.008000", "141754.011000", "141754.013000", "141754.016000", "141754.018000", "141754.021000", "141754.023000", "141754.025000", "141754.028000", "141754.031000", "141754.033000", "141754.042000", "141754.044000", "141754.047000", "141754.049000", "141754.052000", "141754.054000", "141754.057000", "141754.059000", "141834.033000", "141834.035000", "141834.038000", "141834.040000", "141834.043000", "141834.045000", "141834.048000", "141834.050000", "141834.053000", "141834.055000", "141834.058000", "141834.061000", "141834.063000", "141834.072000", "141834.074000", "141834.077000", "141834.079000", "141834.082000", "141834.084000", "141834.087000", "141834.089000", "141834.092000", "141834.094000", "141834.097000", "141834.099000", "141834.102000", "141834.104000", "141914.029000", "141914.032000", "141914.034000", "141914.037000", "141914.039000", "141914.042000", "141914.044000", "141914.047000", "141914.049000", "141914.052000", "141914.054000", "141914.057000", "141914.059000", "141914.062000", "141914.064000", "141914.067000", "141914.069000", "141914.072000", "141914.074000", "141914.077000", "141914.079000", "141914.082000", "141914.084000", "141914.087000", "141914.089000", "141914.092000", "141914.094000", "141954.048000", "141954.050000", "141954.053000", "141954.056000", "141954.058000", "141954.061000", "141954.063000", "141954.065000", "141954.068000", "141954.070000", "141954.073000", "141954.075000", "141954.078000", "141954.080000", "141954.083000", "141954.085000", "141954.088000", "141954.090000", "141954.093000", "141954.096000", "141954.098000", "141954.101000", "141954.103000", "141954.106000", "141954.108000", "141954.111000", "141954.113000", "142034.044000", "142034.047000", "142034.049000", "142034.052000", "142034.060000", "142034.063000", "142034.065000", "142034.068000", "142034.070000", "142034.073000", "142034.075000", "142034.078000", "142034.080000", "142034.083000", "142034.085000", "142034.088000", "142034.090000", "142034.093000", "142034.095000", "142034.098000", "142034.100000", "142034.103000", "142034.106000", "142034.108000", "142034.110000", "142034.113000", "142034.116000", "142114.030000", "142114.032000", "142114.035000", "142114.037000", "142114.040000", "142114.043000", "142114.045000", "142114.048000", "142114.050000", "142114.053000", "142114.055000", "142114.058000", "142114.060000", "142114.063000", "142114.065000", "142114.068000", "142114.070000", "142114.073000", "142114.075000", "142114.078000", "142114.080000", "142114.083000", "142114.085000", "142114.088000", "142114.090000", "142114.105000", "142114.108000", "142154.032000", "142154.035000", "142154.037000", "142154.040000", "142154.042000", "142154.045000", "142154.047000", "142154.050000", "142154.052000", "142154.055000", "142154.057000", "142154.060000", "142154.062000", "142154.065000", "142154.067000", "142154.070000", "142154.072000", "142154.075000", "142154.077000", "142154.080000", "142154.082000", "142154.085000", "142154.087000", "142154.090000", "142154.097000", "142154.099000", "142234.005000", "142234.008000", "142234.011000", "142234.013000", "142234.015000", "142234.018000", "142234.029000", "142234.032000", "142234.034000", "142234.037000", "142234.039000", "142234.042000", "142234.044000", "142234.047000", "142234.049000", "142234.052000", "142234.054000", "142234.057000", "142234.059000", "142234.062000", "142234.064000", "142234.068000", "142234.071000", "142234.074000", "142234.076000", "142234.079000", "142234.081000", "142314.020000", "142314.023000", "142314.025000", "142314.028000", "142314.030000", "142314.033000", "142314.035000", "142314.038000", "142314.040000", "142314.043000", "142314.045000", "142314.048000", "142314.050000", "142314.053000", "142314.055000", "142314.058000", "142314.060000", "142314.063000", "142314.065000", "142314.068000", "142314.071000", "142314.073000", "142314.076000", "142314.078000", "142314.081000", "142314.083000", "142314.086000", "142354.056000", "142354.059000", "142354.062000", "142354.064000", "142354.067000", "142354.070000", "142354.072000", "142354.075000", "142354.077000", "142354.080000", "142354.082000", "142354.085000", "142354.087000", "142354.090000", "142354.093000", "142354.095000", "142354.098000", "142354.100000", "142354.103000", "142354.105000", "142354.108000", "142354.110000", "142354.113000", "142354.115000", "142354.118000", "142354.120000", "142354.123000", "142434.042000", "142434.044000", "142434.047000", "142434.049000", "142434.052000", "142434.054000", "142434.057000", "142434.059000", "142434.062000", "142434.064000", "142434.067000", "142434.069000", "142434.072000", "142434.074000", "142434.077000", "142434.079000", "142434.082000", "142434.084000", "142434.087000", "142434.089000", "142434.092000", "142434.094000", "142434.097000", "142434.099000", "142434.102000", "142434.105000", "142434.107000", "142514.027000", "142514.030000", "142514.032000", "142514.035000", "142514.037000", "142514.040000", "142514.042000", "142514.045000", "142514.047000", "142514.050000", "142514.052000", "142514.055000", "142514.057000", "142514.060000", "142514.062000", "142514.065000", "142514.067000", "142514.070000", "142514.072000", "142514.075000", "142514.078000", "142514.080000", "142514.083000", "142514.085000", "142514.088000", "142514.090000", "142514.093000", "142544.447000", "142544.450000", "142544.452000", "142544.455000", "142544.458000", "142544.460000", "142544.463000", "142544.465000", "142544.468000", "142544.470000", "142544.473000", "142544.475000", "142544.478000", "142544.480000", "142544.483000", "142544.485000", "142544.488000", "142544.490000", "142544.493000", "142544.495000"],
      "InstanceCreationTime": ["141634.087000", "141634.090000", "141634.092000", "141634.095000", "141634.097000", "141634.100000", "141634.102000", "141634.105000", "141634.107000", "141634.110000", "141634.112000", "141634.115000", "141634.117000", "141634.119000", "141634.122000", "141634.124000", "141634.127000", "141634.129000", "141634.132000", "141634.134000", "141634.137000", "141634.139000", "141634.142000", "141634.144000", "141653.987000", "141653.990000", "141653.992000", "141653.995000", "141653.997000", "141654.001000", "141654.003000", "141654.006000", "141654.008000", "141654.011000", "141654.013000", "141654.016000", "141654.018000", "141654.021000", "141654.023000", "141654.026000", "141654.028000", "141654.043000", "141654.046000", "141654.048000", "141714.014000", "141714.017000", "141714.020000", "141714.022000", "141714.025000", "141714.027000", "141714.030000", "141714.032000", "141714.034000", "141714.037000", "141714.039000", "141714.042000", "141714.049000", "141714.051000", "141714.054000", "141714.056000", "141714.059000", "141714.061000", "141714.064000", "141714.067000", "141733.997000", "141734.000000", "141734.003000", "141734.005000", "141734.008000", "141734.010000", "141734.013000", "141734.019000", "141734.022000", "141734.024000", "141734.027000", "141734.029000", "141734.032000", "141734.034000", "141734.037000", "141734.039000", "141734.042000", "141734.044000", "141734.047000", "141734.049000", "141754.002000", "141754.005000", "141754.008000", "141754.011000", "141754.013000", "141754.016000", "141754.018000", "141754.021000", "141754.023000", "141754.025000", "141754.028000", "141754.031000", "141754.033000", "141754.042000", "141754.044000", "141754.047000", "141754.049000", "141754.052000", "141754.054000", "141754.057000", "141754.059000", "141834.033000", "141834.035000", "141834.038000", "141834.040000", "141834.043000", "141834.045000", "141834.048000", "141834.050000", "141834.053000", "141834.055000", "141834.058000", "141834.061000", "141834.063000", "141834.072000", "141834.074000", "141834.077000", "141834.079000", "141834.082000", "141834.084000", "141834.087000", "141834.089000", "141834.092000", "141834.094000", "141834.097000", "141834.099000", "141834.102000", "141834.104000", "141914.029000", "141914.032000", "141914.034000", "141914.037000", "141914.039000", "141914.042000", "141914.044000", "141914.047000", "141914.049000", "141914.052000", "141914.054000", "141914.057000", "141914.059000", "141914.062000", "141914.064000", "141914.067000", "141914.069000", "141914.072000", "141914.074000", "141914.077000", "141914.079000", "141914.082000", "141914.084000", "141914.087000", "141914.089000", "141914.092000", "141914.094000", "141954.048000", "141954.050000", "141954.053000", "141954.056000", "141954.058000", "141954.061000", "141954.063000", "141954.065000", "141954.068000", "141954.070000", "141954.073000", "141954.075000", "141954.078000", "141954.080000", "141954.083000", "141954.085000", "141954.088000", "141954.090000", "141954.093000", "141954.096000", "141954.098000", "141954.101000", "141954.103000", "141954.106000", "141954.108000", "141954.111000", "141954.113000", "142034.044000", "142034.047000", "142034.049000", "142034.052000", "142034.060000", "142034.063000", "142034.065000", "142034.068000", "142034.070000", "142034.073000", "142034.075000", "142034.078000", "142034.080000", "142034.083000", "142034.085000", "142034.088000", "142034.090000", "142034.093000", "142034.095000", "142034.098000", "142034.100000", "142034.103000", "142034.106000", "142034.108000", "142034.110000", "142034.113000", "142034.116000", "142114.030000", "142114.032000", "142114.035000", "142114.037000", "142114.040000", "142114.043000", "142114.045000", "142114.048000", "142114.050000", "142114.053000", "142114.055000", "142114.058000", "142114.060000", "142114.063000", "142114.065000", "142114.068000", "142114.070000", "142114.073000", "142114.075000", "142114.078000", "142114.080000", "142114.083000", "142114.085000", "142114.088000", "142114.090000", "142114.105000", "142114.108000", "142154.032000", "142154.035000", "142154.037000", "142154.040000", "142154.042000", "142154.045000", "142154.047000", "142154.050000", "142154.052000", "142154.055000", "142154.057000", "142154.060000", "142154.062000", "142154.065000", "142154.067000", "142154.070000", "142154.072000", "142154.075000", "142154.077000", "142154.080000", "142154.082000", "142154.085000", "142154.087000", "142154.090000", "142154.097000", "142154.099000", "142234.005000", "142234.008000", "142234.011000", "142234.013000", "142234.015000", "142234.018000", "142234.029000", "142234.032000", "142234.034000", "142234.037000", "142234.039000", "142234.042000", "142234.044000", "142234.047000", "142234.049000", "142234.052000", "142234.054000", "142234.057000", "142234.059000", "142234.062000", "142234.064000", "142234.068000", "142234.071000", "142234.074000", "142234.076000", "142234.079000", "142234.081000", "142314.020000", "142314.023000", "142314.025000", "142314.028000", "142314.030000", "142314.033000", "142314.035000", "142314.038000", "142314.040000", "142314.043000", "142314.045000", "142314.048000", "142314.050000", "142314.053000", "142314.055000", "142314.058000", "142314.060000", "142314.063000", "142314.065000", "142314.068000", "142314.071000", "142314.073000", "142314.076000", "142314.078000", "142314.081000", "142314.083000", "142314.086000", "142354.056000", "142354.059000", "142354.062000", "142354.064000", "142354.067000", "142354.070000", "142354.072000", "142354.075000", "142354.077000", "142354.080000", "142354.082000", "142354.085000", "142354.087000", "142354.090000", "142354.093000", "142354.095000", "142354.098000", "142354.100000", "142354.103000", "142354.105000", "142354.108000", "142354.110000", "142354.113000", "142354.115000", "142354.118000", "142354.120000", "142354.123000", "142434.042000", "142434.044000", "142434.047000", "142434.049000", "142434.052000", "142434.054000", "142434.057000", "142434.059000", "142434.062000", "142434.064000", "142434.067000", "142434.069000", "142434.072000", "142434.074000", "142434.077000", "142434.079000", "142434.082000", "142434.084000", "142434.087000", "142434.089000", "142434.092000", "142434.094000", "142434.097000", "142434.099000", "142434.102000", "142434.105000", "142434.107000", "142514.027000", "142514.030000", "142514.032000", "142514.035000", "142514.037000", "142514.040000", "142514.042000", "142514.045000", "142514.047000", "142514.050000", "142514.052000", "142514.055000", "142514.057000", "142514.060000", "142514.062000", "142514.065000", "142514.067000", "142514.070000", "142514.072000", "142514.075000", "142514.078000", "142514.080000", "142514.083000", "142514.085000", "142514.088000", "142514.090000", "142514.093000", "142544.447000", "142544.450000", "142544.452000", "142544.455000", "142544.458000", "142544.460000", "142544.463000", "142544.465000", "142544.468000", "142544.470000", "142544.473000", "142544.475000", "142544.478000", "142544.480000", "142544.483000", "142544.485000", "142544.488000", "142544.490000", "142544.493000", "142544.495000"],
