{
  "AcquisitionMatrixPE": 104,
  "AcquisitionNumber": 1,
  "AcquisitionTime": "13:34:26.852500",
  "BandwidthPerPixelPhaseEncode": 17.17,
  "BaseResolution": 104,
  "BodyPartExamined": "BRAIN",
  "CoilCombinationMethod": "Sum of Squares",
  "ConsistencyInfo": "N4_VE11C_LATEST_20160120",
  "ConversionSoftware": "dcm2niix",
  "ConversionSoftwareVersion": "v1.0.20211006",
  "DerivedVendorReportedEchoSpacing": 0.000560011,
  "DeviceSerialNumber": "167006",
  "DwellTime": 2.1e-06,
  "EchoTime": 0.037,
  "EchoTrainLength": 104,
  "EffectiveEchoSpacing": 0.000560011,
  "FlipAngle": 52,
  "HeudiconvVersion": "0.5.3.post569+g418601f",
  "ImageComments": "Unaliased MB4/PE3/LB",
  "ImageOrientationPatientDICOM": [0.999972, 0.00605046, 0.0043634, -0.00471228, 0.965791, -0.259278],
  "ImageOrientationText": "Tra>Cor(-15.0)>Sag(0.3)",
  "ImageType": [
    "ORIGINAL",
    "PRIMARY",
    "M",
    "MB",
    "ND",
    "MOSAIC"
],
  "ImagingFrequency": 123.259,
  "InPlanePhaseEncodingDirectionDICOM": "COL",
  "InstitutionAddress": "Chemin Queen-Mary 4565,Montreal,District,CA,H3W 1W5",
  "InstitutionName": "IUGM",
  "InstitutionalDepartmentName": "Department",
  "MRAcquisitionType": "2D",
  "MagneticFieldStrength": 3,
  "Manufacturer": "Siemens",
  "ManufacturersModelName": "Prisma_fit",
  "MatrixCoilMode": "SENSE",
  "Modality": "MR",
  "MultibandAccelerationFactor": 4,
  "PartialFourier": 1,
  "PatientPosition": "HFS",
  "PercentPhaseFOV": 100,
  "PercentSampling": 100,
  "PhaseEncodingDirection": "j",
  "PhaseEncodingSteps": 104,
  "PhaseResolution": 1,
  "PixelBandwidth": 2290,
  "ProcedureStepDescription": "games^mario",
  "ProtocolName": "func_task-mario_run-02",
  "PulseSequenceDetails": "%CustomerSeq%\\cmrr_mbep2d_bold",
  "ReceiveCoilActiveElements": "HC1-7;NC1,2",
  "ReceiveCoilName": "HeadNeck_64",
  "ReconMatrixPE": 104,
  "RepetitionTime": 1.49,
  "SAR": 0.060719,
  "ScanOptions": "FS",
  "ScanningSequence": "EP",
  "SequenceName": "epfid2d1_104",
  "SequenceVariant": "SK\\SS",
  "SeriesDescription": "func_task-mario_run-02",
  "SeriesNumber": 13,
  "ShimSetting": [616, -7216, -8763, 704, -12, -19, 75, -17],
  "SliceThickness": 2,
  "SliceTiming": [0, 0.785, 0.1, 0.8825, 0.1975, 0.98, 0.295, 1.08, 0.3925, 1.1775, 0.49, 1.275, 0.59, 1.3725, 0.6875, 0, 0.785, 0.1, 0.8825, 0.1975, 0.98, 0.295, 1.08, 0.3925, 1.1775, 0.49, 1.275, 0.59, 1.3725, 0.6875, 0, 0.785, 0.1, 0.8825, 0.1975, 0.98, 0.295, 1.08, 0.3925, 1.1775, 0.49, 1.275, 0.59, 1.3725, 0.6875, 0, 0.785, 0.1, 0.8825, 0.1975, 0.98, 0.295, 1.08, 0.3925, 1.1775, 0.49, 1.275, 0.59, 1.3725, 0.6875],
  "SoftwareVersions": "syngo MR E11",
  "SpacingBetweenSlices": 2,
  "StationName": "MRC35049",
  "TaskName": "mario",
  "TotalReadoutTime": 0.0576811,
  "TxRefAmp": 241.737,
  "WipMemBlock": "39c8c380-952d-41cd-9693-1733dd92852d||Sequence: R016 ve11c/master r/e634e98; Dec 19 2017 11:00:25 by eja",
  "dcmmeta_affine": [
    [-1.9999443292617798, -0.009424557909369469, 0.011565770022571087, 109.12311553955078],
    [-0.012100917287170887, 1.9315826892852783, -0.5184996724128723, -72.98462677001953],
    [0.008726805448532104, 0.518555223941803, 1.9315859079360962, -54.84740447998047],
    [0.0, 0.0, 0.0, 1.0]
],
  "dcmmeta_reorient_transform": [
    [0.0, -1.0, 0.0, 103.0],
    [1.0, 0.0, 0.0, 0.0],
    [0.0, 0.0, 1.0, 0.0],
    [0.0, 0.0, 0.0, 1.0]
],
  "dcmmeta_shape": [104, 104, 60, 497],
  "dcmmeta_slice_dim": 2,
  "dcmmeta_version": 0.6,
  "global": {
    "const": {
      "AcquisitionMatrix": [104, 0, 0, 104],
      "AngioFlag": "N",
      "BitsAllocated": 16,
      "BitsStored": 16,
      "BodyPartExamined": "BRAIN",
      "Columns": 832,
      "EchoNumbers": 1,
      "EchoTime": 37.0,
      "EchoTrainLength": 104,
      "FlipAngle": 52.0,
      "HighBit": 15,
      "ImageOrientationPatient": [0.99997217594613, 0.00605045863346, 0.00436340278876, -0.0047122790254, 0.96579134138679, -0.2592776105426],
      "ImagePositionPatient": [-832.70159232367, -833.46922057339, 184.14132470864],
      "ImageType": [
        "ORIGINAL",
        "PRIMARY",
        "M",
        "MB",
        "ND",
        "MOSAIC"
],
      "ImagedNucleus": "1H",
      "ImagingFrequency": 123.258838,
      "InPlanePhaseEncodingDirection": "COL",
      "MRAcquisitionType": "2D",
      "MagneticFieldStrength": 3.0,
      "Manufacturer": "SIEMENS",
      "ManufacturerModelName": "Prisma_fit",
      "Modality": "MR",
      "NumberOfAverages": 1.0,
      "NumberOfPhaseEncodingSteps": 104,
      "PercentPhaseFieldOfView": 100.0,
      "PercentSampling": 100.0,
      "PerformedProcedureStepStartTime": "131232.486000",
      "PhotometricInterpretation": "MONOCHROME2",
      "PixelBandwidth": 2290.0,
      "PixelRepresentation": 0,
      "PixelSpacing": [2.0, 2.0],
      "ProtocolName": "func_task-mario_run-02",
      "RepetitionTime": 1490.0,
      "Rows": 832,
      "SAR": 0.06071903111986,
      "SamplesPerPixel": 1,
      "ScanOptions": "FS",
      "ScanningSequence": "EP",
      "SequenceName": "epfid2d1_104",
      "SequenceVariant": [
        "SK",
        "SS"
],
      "SeriesDescription": "func_task-mario_run-02",
      "SeriesNumber": 13,
      "SeriesTime": "133553.911000",
      "SliceLocation": -33.418941293352,
      "SliceThickness": 2.0,
      "SmallestImagePixelValue": 0,
      "SoftwareVersions": "syngo MR E11",
      "SpacingBetweenSlices": 1.9999999713053,
      "SpecificCharacterSet": "ISO_IR 100",
      "StudyID": "1",
      "StudyTime": "131232.360000",
      "TransmitCoilName": "Body",
      "VariableFlipAngleFlag": "N",
      "WindowCenterWidthExplanation": "Algo1",
      "dBdt": 0.0},
    "slices": {}
  },
  "time": {
    "samples": {
      "AcquisitionNumber": [1, 2, 3, 4, 5, 6, 7, 8, 9, 10, 11, 12, 13, 14, 15, 16, 17, 18, 19, 20, 21, 22, 23, 24, 25, 26, 27, 28, 29, 30, 31, 32, 33, 34, 35, 36, 37, 38, 39, 40, 41, 42, 43, 44, 45, 46, 47, 48, 49, 50, 51, 52, 53, 54, 55, 56, 57, 58, 59, 60, 61, 62, 63, 64, 65, 66, 67, 68, 69, 70, 71, 72, 73, 74, 75, 76, 77, 78, 79, 80, 81, 82, 83, 84, 85, 86, 87, 88, 89, 90, 91, 92, 93, 94, 95, 96, 97, 98, 99, 100, 101, 102, 103, 104, 105, 106, 107, 108, 109, 110, 111, 112, 113, 114, 115, 116, 117, 118, 119, 120, 121, 122, 123, 124, 125, 126, 127, 128, 129, 130, 131, 132, 133, 134, 135, 136, 137, 138, 139, 140, 141, 142, 143, 144, 145, 146, 147, 148, 149, 150, 151, 152, 153, 154, 155, 156, 157, 158, 159, 160, 161, 162, 163, 164, 165, 166, 167, 168, 169, 170, 171, 172, 173, 174, 175, 176, 177, 178, 179, 180, 181, 182, 183, 184, 185, 186, 187, 188, 189, 190, 191, 192, 193, 194, 195, 196, 197, 198, 199, 200, 201, 202, 203, 204, 205, 206, 207, 208, 209, 210, 211, 212, 213, 214, 215, 216, 217, 218, 219, 220, 221, 222, 223, 224, 225, 226, 227, 228, 229, 230, 231, 232, 233, 234, 235, 236, 237, 238, 239, 240, 241, 242, 243, 244, 245, 246, 247, 248, 249, 250, 251, 252, 253, 254, 255, 256, 257, 258, 259, 260, 261, 262, 263, 264, 265, 266, 267, 268, 269, 270, 271, 272, 273, 274, 275, 276, 277, 278, 279, 280, 281, 282, 283, 284, 285, 286, 287, 288, 289, 290, 291, 292, 293, 294, 295, 296, 297, 298, 299, 300, 301, 302, 303, 304, 305, 306, 307, 308, 309, 310, 311, 312, 313, 314, 315, 316, 317, 318, 319, 320, 321, 322, 323, 324, 325, 326, 327, 328, 329, 330, 331, 332, 333, 334, 335, 336, 337, 338, 339, 340, 341, 342, 343, 344, 345, 346, 347, 348, 349, 350, 351, 352, 353, 354, 355, 356, 357, 358, 359, 360, 361, 362, 363, 364, 365, 366, 367, 368, 369, 370, 371, 372, 373, 374, 375, 376, 377, 378, 379, 380, 381, 382, 383, 384, 385, 386, 387, 388, 389, 390, 391, 392, 393, 394, 395, 396, 397, 398, 399, 400, 401, 402, 403, 404, 405, 406, 407, 408, 409, 410, 411, 412, 413, 414, 415, 416, 417, 418, 419, 420, 421, 422, 423, 424, 425, 426, 427, 428, 429, 430, 431, 432, 433, 434, 435, 436, 437, 438, 439, 440, 441, 442, 443, 444, 445, 446, 447, 448, 449, 450, 451, 452, 453, 454, 455, 456, 457, 458, 459, 460, 461, 462, 463, 464, 465, 466, 467, 468, 469, 470, 471, 472, 473, 474, 475, 476, 477, 478, 479, 480, 481, 482, 483, 484, 485, 486, 487, 488, 489, 490, 491, 492, 493, 494, 495, 496, 497],
      "AcquisitionTime": ["133426.852500", "133428.342500", "133429.832500", "133431.322500", "133432.812500", "133434.302500", "133435.792500", "133437.282500", "133438.772500", "133440.262500", "133441.752500", "133443.242500", "133444.732500", "133446.222500", "133447.712500", "133449.202500", "133450.692500", "133452.182500", "133453.672500", "133455.162500", "133456.652500", "133458.142500", "133459.632500", "133501.122500", "133502.612500", "133504.102500", "133505.592500", "133507.082500", "133508.572500", "133510.062500", "133511.552500", "133513.042500", "133514.532500", "133516.022500", "133517.512500", "133519.002500", "133520.492500", "133521.982500", "133523.472500", "133524.962500", "133526.452500", "133527.942500", "133529.432500", "133530.922500", "133532.412500", "133533.902500", "133535.392500", "133536.882500", "133538.372500", "133539.862500", "133541.352500", "133542.842500", "133544.332500", "133545.822500", "133547.312500", "133548.802500", "133550.292500", "133551.782500", "133553.272500", "133554.762500", "133556.252500", "133557.742500", "133559.232500", "133600.722500", "133602.212500", "133603.702500", "133605.192500", "133606.682500", "133608.172500", "133609.662500", "133611.152500", "133612.642500", "133614.132500", "133615.622500", "133617.112500", "133618.602500", "133620.092500", "133621.582500", "133623.072500", "133624.562500", "133626.052500", "133627.542500", "133629.032500", "133630.522500", "133632.012500", "133633.502500", "133634.992500", "133636.482500", "133637.972500", "133639.462500", "133640.952500", "133642.442500", "133643.932500", "133645.422500", "133646.912500", "133648.402500", "133649.892500", "133651.382500", "133652.872500", "133654.362500", "133655.852500", "133657.342500", "133658.832500", "133700.322500", "133701.812500", "133703.302500", "133704.792500", "133706.282500", "133707.772500", "133709.262500", "133710.752500", "133712.242500", "133713.732500", "133715.222500", "133716.712500", "133718.202500", "133719.692500", "133721.182500", "133722.672500", "133724.162500", "133725.652500", "133727.142500", "133728.632500", "133730.122500", "133731.612500", "133733.102500", "133734.592500", "133736.082500", "133737.572500", "133739.062500", "133740.552500", "133742.042500", "133743.532500", "133745.022500", "133746.512500", "133748.002500", "133749.492500", "133750.982500", "133752.472500", "133753.962500", "133755.452500", "133756.942500", "133758.432500", "133759.922500", "133801.412500", "133802.902500", "133804.392500", "133805.882500", "133807.372500", "133808.862500", "133810.352500", "133811.842500", "133813.332500", "133814.822500", "133816.312500", "133817.802500", "133819.292500", "133820.782500", "133822.272500", "133823.762500", "133825.252500", "133826.742500", "133828.232500", "133829.722500", "133831.212500", "133832.702500", "133834.192500", "133835.682500", "133837.172500", "133838.662500", "133840.152500", "133841.642500", "133843.132500", "133844.622500", "133846.112500", "133847.602500", "133849.092500", "133850.582500", "133852.072500", "133853.562500", "133855.052500", "133856.542500", "133858.032500", "133859.522500", "133901.012500", "133902.502500", "133903.992500", "133905.482500", "133906.972500", "133908.462500", "133909.952500", "133911.442500", "133912.932500", "133914.422500", "133915.912500", "133917.402500", "133918.892500", "133920.382500", "133921.872500", "133923.362500", "133924.852500", "133926.342500", "133927.832500", "133929.322500", "133930.812500", "133932.302500", "133933.792500", "133935.282500", "133936.772500", "133938.262500", "133939.752500", "133941.242500", "133942.732500", "133944.222500", "133945.712500", "133947.202500", "133948.692500", "133950.182500", "133951.672500", "133953.162500", "133954.652500", "133956.142500", "133957.632500", "133959.122500", "134000.612500", "134002.102500", "134003.592500", "134005.082500", "134006.572500", "134008.062500", "134009.552500", "134011.042500", "134012.532500", "134014.022500", "134015.512500", "134017.002500", "134018.492500", "134019.982500", "134021.472500", "134022.962500", "134024.452500", "134025.942500", "134027.432500", "134028.922500", "134030.412500", "134031.902500", "134033.392500", "134034.882500", "134036.372500", "134037.862500", "134039.352500", "134040.842500", "134042.332500", "134043.822500", "134045.312500", "134046.802500", "134048.292500", "134049.782500", "134051.272500", "134052.762500", "134054.252500", "134055.742500", "134057.232500", "134058.722500", "134100.212500", "134101.702500", "134103.192500", "134104.682500", "134106.172500", "134107.662500", "134109.152500", "134110.642500", "134112.132500", "134113.622500", "134115.112500", "134116.602500", "134118.092500", "134119.582500", "134121.072500", "134122.562500", "134124.052500", "134125.542500", "134127.032500", "134128.522500", "134130.012500", "134131.502500", "134132.992500", "134134.482500", "134135.972500", "134137.462500", "134138.952500", "134140.442500", "134141.932500", "134143.422500", "134144.912500", "134146.402500", "134147.892500", "134149.382500", "134150.872500", "134152.362500", "134153.852500", "134155.342500", "134156.832500", "134158.322500", "134159.812500", "134201.302500", "134202.792500", "134204.282500", "134205.772500", "134207.262500", "134208.752500", "134210.242500", "134211.732500", "134213.222500", "134214.712500", "134216.202500", "134217.692500", "134219.182500", "134220.672500", "134222.162500", "134223.652500", "134225.142500", "134226.632500", "134228.122500", "134229.612500", "134231.102500", "134232.592500", "134234.082500", "134235.572500", "134237.062500", "134238.552500", "134240.042500", "134241.532500", "134243.022500", "134244.512500", "134246.002500", "134247.492500", "134248.982500", "134250.472500", "134251.962500", "134253.452500", "134254.942500", "134256.432500", "134257.922500", "134259.412500", "134300.902500", "134302.392500", "134303.882500", "134305.372500", "134306.862500", "134308.352500", "134309.842500", "134311.332500", "134312.822500", "134314.312500", "134315.802500", "134317.292500", "134318.782500", "134320.272500", "134321.762500", "134323.252500", "134324.742500", "134326.232500", "134327.722500", "134329.212500", "134330.702500", "134332.192500", "134333.682500", "134335.172500", "134336.662500", "134338.152500", "134339.642500", "134341.132500", "134342.622500", "134344.112500", "134345.602500", "134347.092500", "134348.582500", "134350.072500", "134351.562500", "134353.052500", "134354.542500", "134356.032500", "134357.522500", "134359.012500", "134400.502500", "134401.992500", "134403.482500", "134404.972500", "134406.462500", "134407.952500", "134409.442500", "134410.932500", "134412.422500", "134413.912500", "134415.402500", "134416.892500", "134418.382500", "134419.872500", "134421.362500", "134422.852500", "134424.342500", "134425.832500", "134427.322500", "134428.812500", "134430.302500", "134431.792500", "134433.282500", "134434.772500", "134436.262500", "134437.752500", "134439.242500", "134440.732500", "134442.222500", "134443.712500", "134445.202500", "134446.692500", "134448.182500", "134449.672500", "134451.162500", "134452.652500", "134454.142500", "134455.632500", "134457.122500", "134458.612500", "134500.102500", "134501.592500", "134503.082500", "134504.572500", "134506.062500", "134507.552500", "134509.042500", "134510.532500", "134512.022500", "134513.512500", "134515.002500", "134516.492500", "134517.982500", "134519.472500", "134520.962500", "134522.452500", "134523.942500", "134525.432500", "134526.922500", "134528.412500", "134529.902500", "134531.392500", "134532.882500", "134534.372500", "134535.862500", "134537.352500", "134538.842500", "134540.332500", "134541.822500", "134543.312500", "134544.802500", "134546.292500", "134547.782500", "134549.272500", "134550.762500", "134552.252500", "134553.742500", "134555.232500", "134556.722500", "134558.212500", "134559.702500", "134601.192500", "134602.682500", "134604.172500", "134605.662500", "134607.152500", "134608.642500", "134610.132500", "134611.622500", "134613.112500", "134614.602500", "134616.092500", "134617.582500", "134619.072500", "134620.562500", "134622.052500", "134623.542500", "134625.032500", "134626.522500", "134628.012500", "134629.502500", "134630.992500", "134632.482500", "134633.972500", "134635.462500", "134636.952500", "134638.442500", "134639.932500", "134641.422500", "134642.912500", "134644.402500", "134645.892500"],
      "ContentTime": ["133553.914000", "133553.918000", "133553.922000", "133553.925000", "133553.928000", "133553.932000", "133553.935000", "133553.938000", "133553.942000", "133553.945000", "133553.948000", "133553.952000", "133553.955000", "133553.958000", "133553.962000", "133553.965000", "133553.968000", "133553.972000", "133553.975000", "133553.978000", "133553.982000", "133553.985000", "133553.988000", "133553.992000", "133553.995000", "133553.998000", "133554.003000", "133554.006000", "133554.009000", "133554.012000", "133554.016000", "133554.019000", "133554.022000", "133613.875000", "133613.879000", "133613.882000", "133613.885000", "133613.889000", "133613.892000", "133613.895000", "133613.899000", "133613.902000", "133613.905000", "133613.908000", "133613.912000", "133613.915000", "133613.918000", "133613.922000", "133613.925000", "133613.928000", "133613.932000", "133613.935000", "133613.938000", "133633.875000", "133633.879000", "133633.882000", "133633.886000", "133633.889000", "133633.892000", "133633.895000", "133633.899000", "133633.902000", "133633.905000", "133633.909000", "133633.912000", "133633.915000", "133633.919000", "133633.922000", "133633.925000", "133633.929000", "133633.932000", "133633.935000", "133633.939000", "133633.942000", "133653.876000", "133653.880000", "133653.883000", "133653.886000", "133653.890000", "133653.893000", "133653.896000", "133653.899000", "133653.903000", "133653.906000", "133653.910000", "133653.913000", "133653.916000", "133653.919000", "133653.923000", "133653.926000", "133653.929000", "133653.932000", "133653.949000", "133653.952000", "133733.876000", "133733.880000", "133733.883000", "133733.887000", "133733.890000", "133733.893000", "133733.896000", "133733.900000", "133733.903000", "133733.906000", "133733.910000", "133733.913000", "133733.916000", "133733.920000", "133733.923000", "133733.926000", "133733.930000", "133733.933000", "133733.936000", "133733.940000", "133733.943000", "133733.946000", "133733.950000", "133733.953000", "133733.956000", "133733.960000", "133733.963000", "133733.966000", "133733.970000", "133733.973000", "133813.875000", "133813.879000", "133813.882000", "133813.886000", "133813.889000", "133813.892000", "133813.896000", "133813.899000", "133813.902000", "133813.906000", "133813.909000", "133813.912000", "133813.915000", "133813.919000", "133813.922000", "133813.926000", "133813.929000", "133813.932000", "133813.936000", "133813.939000", "133813.942000", "133813.946000", "133813.949000", "133813.952000", "133813.956000", "133813.959000", "133813.962000", "133853.875000", "133853.879000", "133853.882000", "133853.886000", "133853.889000", "133853.892000", "133853.896000", "133853.899000", "133853.902000", "133853.906000", "133853.909000", "133853.912000", "133853.916000", "133853.919000", "133853.922000", "133853.926000", "133853.929000", "133853.932000", "133853.936000", "133853.939000", "133853.942000", "133853.946000", "133853.949000", "133853.952000", "133853.956000", "133853.959000", "133853.962000", "133913.876000", "133913.880000", "133913.883000", "133913.887000", "133913.890000", "133913.894000", "133913.897000", "133913.900000", "133913.904000", "133913.907000", "133913.911000", "133913.927000", "133913.930000", "133953.876000", "133953.880000", "133953.883000", "133953.887000", "133953.890000", "133953.893000", "133953.897000", "133953.900000", "133953.903000", "133953.907000", "133953.910000", "133953.913000", "133953.917000", "133953.920000", "133953.923000", "133953.926000", "133953.930000", "133953.937000", "133953.940000", "133953.944000", "133953.947000", "133953.950000", "133953.954000", "133953.957000", "133953.960000", "133953.964000", "133953.967000", "134033.875000", "134033.879000", "134033.882000", "134033.886000", "134033.889000", "134033.893000", "134033.896000", "134033.899000", "134033.903000", "134033.906000", "134033.909000", "134033.913000", "134033.916000", "134033.919000", "134033.923000", "134033.926000", "134033.929000", "134033.933000", "134033.936000", "134033.939000", "134033.943000", "134033.946000", "134033.949000", "134033.953000", "134033.956000", "134033.959000", "134033.962000", "134113.875000", "134113.879000", "134113.882000", "134113.886000", "134113.889000", "134113.892000", "134113.896000", "134113.899000", "134113.902000", "134113.906000", "134113.909000", "134113.922000", "134113.925000", "134113.929000", "134113.932000", "134113.935000", "134113.939000", "134113.942000", "134113.945000", "134113.949000", "134113.952000", "134113.955000", "134113.959000", "134113.962000", "134113.965000", "134113.969000", "134113.972000", "134153.886000", "134153.890000", "134153.893000", "134153.897000", "134153.900000", "134153.903000", "134153.907000", "134153.910000", "134153.914000", "134153.917000", "134153.920000", "134153.924000", "134153.927000", "134153.930000", "134153.934000", "134153.937000", "134153.940000", "134153.944000", "134153.947000", "134153.950000", "134153.954000", "134153.957000", "134153.960000", "134153.964000", "134153.967000", "134153.970000", "134153.974000", "134233.876000", "134233.880000", "134233.883000", "134233.887000", "134233.890000", "134233.893000", "134233.897000", "134233.910000", "134233.913000", "134233.916000", "134233.920000", "134233.923000", "134233.926000", "134233.930000", "134233.933000", "134233.936000", "134233.940000", "134233.943000", "134233.946000", "134233.950000", "134233.953000", "134233.956000", "134233.960000", "134233.963000", "134233.966000", "134233.970000", "134233.973000", "134313.876000", "134313.880000", "134313.883000", "134313.887000", "134313.890000", "134313.893000", "134313.897000", "134313.900000", "134313.903000", "134313.907000", "134313.910000", "134313.913000", "134313.917000", "134313.920000", "134313.923000", "134313.927000", "134313.930000", "134313.933000", "134313.937000", "134313.940000", "134313.943000", "134313.947000", "134313.950000", "134313.953000", "134313.957000", "134313.960000", "134313.963000", "134353.876000", "134353.880000", "134353.883000", "134353.887000", "134353.890000", "134353.893000", "134353.897000", "134353.900000", "134353.903000", "134353.907000", "134353.910000", "134353.913000", "134353.929000", "134353.932000", "134353.935000", "134353.939000", "134353.942000", "134353.945000", "134353.949000", "134353.954000", "134353.958000", "134353.961000", "134353.965000", "134353.968000", "134353.971000", "134353.975000", "134433.876000", "134433.880000", "134433.883000", "134433.887000", "134433.890000", "134433.893000", "134433.897000", "134433.900000", "134433.903000", "134433.907000", "134433.910000", "134433.913000", "134433.917000", "134433.920000", "134433.923000", "134433.926000", "134433.930000", "134433.933000", "134433.936000", "134433.956000", "134433.960000", "134433.963000", "134433.966000", "134433.970000", "134433.973000", "134433.976000", "134433.979000", "134513.875000", "134513.879000", "134513.882000", "134513.886000", "134513.889000", "134513.892000", "134513.896000", "134513.899000", "134513.902000", "134513.906000", "134513.909000", "134513.912000", "134513.916000", "134513.919000", "134513.922000", "134513.926000", "134513.929000", "134513.932000", "134513.936000", "134513.939000", "134513.942000", "134513.946000", "134513.949000", "134513.952000", "134513.956000", "134513.959000", "134513.962000", "134553.875000", "134553.879000", "134553.882000", "134553.886000", "134553.889000", "134553.892000", "134553.896000", "134553.899000", "134553.902000", "134553.906000", "134553.909000", "134553.912000", "134553.916000", "134553.919000", "134553.922000", "134553.926000", "134553.929000", "134553.932000", "134553.936000", "134553.939000", "134553.942000", "134553.946000", "134553.949000", "134553.952000", "134553.970000", "134553.973000", "134553.976000", "134633.876000", "134633.880000", "134633.883000", "134633.887000", "134633.890000", "134633.893000", "134633.897000", "134633.900000", "134633.903000", "134633.907000", "134633.910000", "134633.913000", "134633.917000", "134633.920000", "134633.924000", "134633.927000", "134633.930000", "134633.934000", "134633.937000", "134633.940000", "134633.944000", "134633.947000", "134633.954000", "134633.957000", "134633.960000", "134633.964000", "134633.967000", "134649.416000", "134649.420000", "134649.424000", "134649.427000", "134649.430000", "134649.434000", "134649.437000", "134649.441000", "134649.444000", "134649.447000"],
