{
  "AcquisitionMatrixPE": 104,
  "AcquisitionNumber": 1,
  "AcquisitionTime": "14:01:49.675000",
  "BandwidthPerPixelPhaseEncode": 17.17,
  "BaseResolution": 104,
  "BodyPartExamined": "BRAIN",
  "CoilCombinationMethod": "Sum of Squares",
  "ConsistencyInfo": "N4_VE11C_LATEST_20160120",
  "ConversionSoftware": "dcm2niix",
  "ConversionSoftwareVersion": "v1.0.20211006",
  "DerivedVendorReportedEchoSpacing": 0.000560011,
  "DeviceSerialNumber": "167006",
  "DwellTime": 2.1e-06,
  "EchoTime": 0.037,
  "EchoTime1": 0.037,
  "EchoTime2": 0.001,
  "EchoTrainLength": 104,
  "EffectiveEchoSpacing": 0.000560011,
  "FlipAngle": 52,
  "HeudiconvVersion": "0.5.3.post569+g418601f",
  "ImageComments": "Unaliased MB4/PE3/LB",
  "ImageOrientationPatientDICOM": [0.999972, 0.00605046, 0.0043634, -0.00471228, 0.965791, -0.259278],
  "ImageOrientationText": "Tra>Cor(-15.0)>Sag(0.3)",
  "ImageType": [
    "ORIGINAL",
    "PRIMARY",
    "P",
    "MB",
    "ND",
    "MOSAIC",
    "PHASE"
],
  "ImagingFrequency": 123.259,
  "InPlanePhaseEncodingDirectionDICOM": "COL",
  "InstitutionAddress": "Chemin Queen-Mary 4565,Montreal,District,CA,H3W 1W5",
  "InstitutionName": "IUGM",
  "InstitutionalDepartmentName": "Department",
  "MRAcquisitionType": "2D",
  "MagneticFieldStrength": 3,
  "Manufacturer": "Siemens",
  "ManufacturersModelName": "Prisma_fit",
  "MatrixCoilMode": "SENSE",
  "Modality": "MR",
  "MultibandAccelerationFactor": 4,
  "PartialFourier": 1,
  "PatientPosition": "HFS",
  "PercentPhaseFOV": 100,
  "PercentSampling": 100,
  "PhaseEncodingDirection": "j",
  "PhaseEncodingSteps": 104,
  "PhaseResolution": 1,
  "PixelBandwidth": 2290,
  "ProcedureStepDescription": "games^mario",
  "ProtocolName": "func_task-mario_run-04",
  "PulseSequenceDetails": "%CustomerSeq%\\cmrr_mbep2d_bold",
  "ReceiveCoilActiveElements": "HC1-7;NC1,2",
  "ReceiveCoilName": "HeadNeck_64",
  "ReconMatrixPE": 104,
  "RepetitionTime": 1.49,
  "SAR": 0.060719,
  "ScanOptions": "FS",
  "ScanningSequence": "EP",
  "SequenceName": "epfid2d1_104",
  "SequenceVariant": "SK\\SS",
  "SeriesDescription": "func_task-mario_run-04",
  "SeriesNumber": 20,
  "ShimSetting": [616, -7216, -8763, 704, -12, -19, 75, -17],
  "SliceThickness": 2,
  "SliceTiming": [0, 0.785, 0.1, 0.8825, 0.1975, 0.98, 0.295, 1.08, 0.3925, 1.1775, 0.49, 1.275, 0.59, 1.3725, 0.6875, 0, 0.785, 0.1, 0.8825, 0.1975, 0.98, 0.295, 1.08, 0.3925, 1.1775, 0.49, 1.275, 0.59, 1.3725, 0.6875, 0, 0.785, 0.1, 0.8825, 0.1975, 0.98, 0.295, 1.08, 0.3925, 1.1775, 0.49, 1.275, 0.59, 1.3725, 0.6875, 0, 0.785, 0.1, 0.8825, 0.1975, 0.98, 0.295, 1.08, 0.3925, 1.1775, 0.49, 1.275, 0.59, 1.3725, 0.6875],
  "SoftwareVersions": "syngo MR E11",
  "SpacingBetweenSlices": 2,
  "StationName": "MRC35049",
  "TaskName": "mario",
  "TotalReadoutTime": 0.0576811,
  "TxRefAmp": 241.737,
  "WipMemBlock": "791db43b-0828-488c-bbf2-bf03a85fa21d||Sequence: R016 ve11c/master r/e634e98; Dec 19 2017 11:00:25 by eja",
  "dcmmeta_affine": [
    [-1.9999443292617798, -0.009424557909369469, 0.011565770022571087, 109.12311553955078],
    [-0.012100917287170887, 1.9315826892852783, -0.5184996724128723, -72.98462677001953],
    [0.008726805448532104, 0.518555223941803, 1.9315859079360962, -54.84740447998047],
    [0.0, 0.0, 0.0, 1.0]
],
  "dcmmeta_reorient_transform": [
    [0.0, -1.0, 0.0, 103.0],
    [1.0, 0.0, 0.0, 0.0],
    [0.0, 0.0, 1.0, 0.0],
    [0.0, 0.0, 0.0, 1.0]
],
  "dcmmeta_shape": [104, 104, 60, 486],
  "dcmmeta_slice_dim": 2,
  "dcmmeta_version": 0.6,
  "global": {
    "const": {
      "AcquisitionMatrix": [104, 0, 0, 104],
      "AngioFlag": "N",
      "BitsAllocated": 16,
      "BitsStored": 16,
      "BodyPartExamined": "BRAIN",
      "Columns": 832,
      "EchoNumbers": 1,
      "EchoTime": 37.0,
      "EchoTrainLength": 104,
      "FlipAngle": 52.0,
      "HighBit": 15,
      "ImageOrientationPatient": [0.99997217594613, 0.00605045863346, 0.00436340278876, -0.0047122790254, 0.96579134138679, -0.2592776105426],
      "ImagePositionPatient": [-832.70159232367, -833.46922057339, 184.14132470864],
      "ImageType": [
        "ORIGINAL",
        "PRIMARY",
        "P",
        "MB",
        "ND",
        "MOSAIC"
],
      "ImagedNucleus": "1H",
      "ImagingFrequency": 123.258848,
      "InPlanePhaseEncodingDirection": "COL",
      "LargestImagePixelValue": 4095,
      "MRAcquisitionType": "2D",
      "MagneticFieldStrength": 3.0,
      "Manufacturer": "SIEMENS",
      "ManufacturerModelName": "Prisma_fit",
      "Modality": "MR",
      "NumberOfAverages": 1.0,
      "NumberOfPhaseEncodingSteps": 104,
      "PercentPhaseFieldOfView": 100.0,
      "PercentSampling": 100.0,
      "PerformedProcedureStepStartTime": "131232.486000",
      "PhotometricInterpretation": "MONOCHROME2",
      "PixelBandwidth": 2290.0,
      "PixelRepresentation": 0,
      "PixelSpacing": [2.0, 2.0],
      "ProtocolName": "func_task-mario_run-04",
      "RepetitionTime": 1490.0,
      "RescaleIntercept": -4096.0,
      "RescaleSlope": 2.0,
      "RescaleType": "US",
      "Rows": 832,
      "SAR": 0.06071903111986,
      "SamplesPerPixel": 1,
      "ScanOptions": "FS",
      "ScanningSequence": "EP",
      "SequenceName": "epfid2d1_104",
      "SequenceVariant": [
        "SK",
        "SS"
],
      "SeriesDescription": "func_task-mario_run-04",
      "SeriesNumber": 20,
      "SeriesTime": "140253.956000",
      "SliceLocation": -33.418941293352,
      "SliceThickness": 2.0,
      "SmallestImagePixelValue": 0,
      "SoftwareVersions": "syngo MR E11",
      "SpacingBetweenSlices": 1.9999999713053,
      "SpecificCharacterSet": "ISO_IR 100",
      "StudyID": "1",
      "StudyTime": "131232.360000",
      "TransmitCoilName": "Body",
      "VariableFlipAngleFlag": "N",
      "WindowCenterWidthExplanation": "Algo1",
      "dBdt": 0.0},
    "slices": {}
  },
  "time": {
    "samples": {
      "AcquisitionNumber": [1, 2, 3, 4, 5, 6, 7, 8, 9, 10, 11, 12, 13, 14, 15, 16, 17, 18, 19, 20, 21, 22, 23, 24, 25, 26, 27, 28, 29, 30, 31, 32, 33, 34, 35, 36, 37, 38, 39, 40, 41, 42, 43, 44, 45, 46, 47, 48, 49, 50, 51, 52, 53, 54, 55, 56, 57, 58, 59, 60, 61, 62, 63, 64, 65, 66, 67, 68, 69, 70, 71, 72, 73, 74, 75, 76, 77, 78, 79, 80, 81, 82, 83, 84, 85, 86, 87, 88, 89, 90, 91, 92, 93, 94, 95, 96, 97, 98, 99, 100, 101, 102, 103, 104, 105, 106, 107, 108, 109, 110, 111, 112, 113, 114, 115, 116, 117, 118, 119, 120, 121, 122, 123, 124, 125, 126, 127, 128, 129, 130, 131, 132, 133, 134, 135, 136, 137, 138, 139, 140, 141, 142, 143, 144, 145, 146, 147, 148, 149, 150, 151, 152, 153, 154, 155, 156, 157, 158, 159, 160, 161, 162, 163, 164, 165, 166, 167, 168, 169, 170, 171, 172, 173, 174, 175, 176, 177, 178, 179, 180, 181, 182, 183, 184, 185, 186, 187, 188, 189, 190, 191, 192, 193, 194, 195, 196, 197, 198, 199, 200, 201, 202, 203, 204, 205, 206, 207, 208, 209, 210, 211, 212, 213, 214, 215, 216, 217, 218, 219, 220, 221, 222, 223, 224, 225, 226, 227, 228, 229, 230, 231, 232, 233, 234, 235, 236, 237, 238, 239, 240, 241, 242, 243, 244, 245, 246, 247, 248, 249, 250, 251, 252, 253, 254, 255, 256, 257, 258, 259, 260, 261, 262, 263, 264, 265, 266, 267, 268, 269, 270, 271, 272, 273, 274, 275, 276, 277, 278, 279, 280, 281, 282, 283, 284, 285, 286, 287, 288, 289, 290, 291, 292, 293, 294, 295, 296, 297, 298, 299, 300, 301, 302, 303, 304, 305, 306, 307, 308, 309, 310, 311, 312, 313, 314, 315, 316, 317, 318, 319, 320, 321, 322, 323, 324, 325, 326, 327, 328, 329, 330, 331, 332, 333, 334, 335, 336, 337, 338, 339, 340, 341, 342, 343, 344, 345, 346, 347, 348, 349, 350, 351, 352, 353, 354, 355, 356, 357, 358, 359, 360, 361, 362, 363, 364, 365, 366, 367, 368, 369, 370, 371, 372, 373, 374, 375, 376, 377, 378, 379, 380, 381, 382, 383, 384, 385, 386, 387, 388, 389, 390, 391, 392, 393, 394, 395, 396, 397, 398, 399, 400, 401, 402, 403, 404, 405, 406, 407, 408, 409, 410, 411, 412, 413, 414, 415, 416, 417, 418, 419, 420, 421, 422, 423, 424, 425, 426, 427, 428, 429, 430, 431, 432, 433, 434, 435, 436, 437, 438, 439, 440, 441, 442, 443, 444, 445, 446, 447, 448, 449, 450, 451, 452, 453, 454, 455, 456, 457, 458, 459, 460, 461, 462, 463, 464, 465, 466, 467, 468, 469, 470, 471, 472, 473, 474, 475, 476, 477, 478, 479, 480, 481, 482, 483, 484, 485, 486],
      "AcquisitionTime": ["140149.675000", "140151.165000", "140152.655000", "140154.145000", "140155.635000", "140157.125000", "140158.615000", "140200.105000", "140201.595000", "140203.085000", "140204.575000", "140206.065000", "140207.555000", "140209.045000", "140210.535000", "140212.025000", "140213.515000", "140215.005000", "140216.495000", "140217.985000", "140219.475000", "140220.965000", "140222.455000", "140223.945000", "140225.435000", "140226.925000", "140228.415000", "140229.905000", "140231.395000", "140232.885000", "140234.375000", "140235.865000", "140237.355000", "140238.845000", "140240.335000", "140241.825000", "140243.315000", "140244.805000", "140246.295000", "140247.785000", "140249.275000", "140250.765000", "140252.255000", "140253.745000", "140255.235000", "140256.725000", "140258.215000", "140259.705000", "140301.195000", "140302.685000", "140304.175000", "140305.665000", "140307.155000", "140308.645000", "140310.135000", "140311.625000", "140313.115000", "140314.605000", "140316.095000", "140317.585000", "140319.075000", "140320.565000", "140322.055000", "140323.545000", "140325.035000", "140326.525000", "140328.015000", "140329.505000", "140330.995000", "140332.485000", "140333.975000", "140335.465000", "140336.955000", "140338.445000", "140339.935000", "140341.425000", "140342.915000", "140344.405000", "140345.895000", "140347.385000", "140348.875000", "140350.365000", "140351.855000", "140353.345000", "140354.835000", "140356.325000", "140357.815000", "140359.305000", "140400.795000", "140402.285000", "140403.775000", "140405.265000", "140406.755000", "140408.245000", "140409.735000", "140411.225000", "140412.715000", "140414.205000", "140415.695000", "140417.185000", "140418.675000", "140420.165000", "140421.655000", "140423.145000", "140424.635000", "140426.125000", "140427.615000", "140429.105000", "140430.595000", "140432.085000", "140433.575000", "140435.065000", "140436.555000", "140438.045000", "140439.535000", "140441.025000", "140442.515000", "140444.005000", "140445.495000", "140446.985000", "140448.475000", "140449.965000", "140451.455000", "140452.945000", "140454.435000", "140455.925000", "140457.415000", "140458.905000", "140500.395000", "140501.885000", "140503.375000", "140504.865000", "140506.355000", "140507.845000", "140509.335000", "140510.825000", "140512.315000", "140513.805000", "140515.295000", "140516.785000", "140518.275000", "140519.765000", "140521.255000", "140522.745000", "140524.235000", "140525.725000", "140527.215000", "140528.705000", "140530.195000", "140531.685000", "140533.175000", "140534.665000", "140536.155000", "140537.645000", "140539.135000", "140540.625000", "140542.115000", "140543.605000", "140545.095000", "140546.585000", "140548.075000", "140549.565000", "140551.055000", "140552.545000", "140554.035000", "140555.525000", "140557.015000", "140558.505000", "140559.995000", "140601.485000", "140602.975000", "140604.465000", "140605.955000", "140607.445000", "140608.935000", "140610.425000", "140611.915000", "140613.405000", "140614.895000", "140616.385000", "140617.875000", "140619.365000", "140620.855000", "140622.345000", "140623.835000", "140625.325000", "140626.815000", "140628.305000", "140629.795000", "140631.285000", "140632.775000", "140634.265000", "140635.755000", "140637.245000", "140638.735000", "140640.225000", "140641.715000", "140643.205000", "140644.695000", "140646.185000", "140647.675000", "140649.165000", "140650.655000", "140652.145000", "140653.635000", "140655.125000", "140656.615000", "140658.105000", "140659.595000", "140701.085000", "140702.575000", "140704.065000", "140705.555000", "140707.045000", "140708.535000", "140710.025000", "140711.515000", "140713.005000", "140714.495000", "140715.985000", "140717.475000", "140718.965000", "140720.455000", "140721.945000", "140723.435000", "140724.925000", "140726.415000", "140727.905000", "140729.395000", "140730.885000", "140732.375000", "140733.865000", "140735.355000", "140736.845000", "140738.335000", "140739.825000", "140741.315000", "140742.805000", "140744.295000", "140745.785000", "140747.275000", "140748.765000", "140750.255000", "140751.745000", "140753.235000", "140754.725000", "140756.215000", "140757.705000", "140759.195000", "140800.685000", "140802.175000", "140803.665000", "140805.155000", "140806.645000", "140808.135000", "140809.625000", "140811.115000", "140812.605000", "140814.095000", "140815.585000", "140817.075000", "140818.565000", "140820.055000", "140821.545000", "140823.035000", "140824.525000", "140826.015000", "140827.505000", "140828.995000", "140830.485000", "140831.975000", "140833.465000", "140834.955000", "140836.445000", "140837.935000", "140839.425000", "140840.915000", "140842.405000", "140843.895000", "140845.385000", "140846.875000", "140848.365000", "140849.855000", "140851.345000", "140852.835000", "140854.325000", "140855.815000", "140857.305000", "140858.795000", "140900.285000", "140901.775000", "140903.265000", "140904.755000", "140906.245000", "140907.735000", "140909.225000", "140910.715000", "140912.205000", "140913.695000", "140915.185000", "140916.675000", "140918.165000", "140919.655000", "140921.145000", "140922.635000", "140924.125000", "140925.615000", "140927.105000", "140928.595000", "140930.085000", "140931.575000", "140933.065000", "140934.555000", "140936.045000", "140937.535000", "140939.025000", "140940.515000", "140942.005000", "140943.495000", "140944.985000", "140946.475000", "140947.965000", "140949.455000", "140950.945000", "140952.435000", "140953.925000", "140955.415000", "140956.905000", "140958.395000", "140959.885000", "141001.375000", "141002.865000", "141004.355000", "141005.845000", "141007.335000", "141008.825000", "141010.315000", "141011.805000", "141013.295000", "141014.785000", "141016.275000", "141017.765000", "141019.255000", "141020.745000", "141022.235000", "141023.725000", "141025.215000", "141026.705000", "141028.195000", "141029.685000", "141031.175000", "141032.665000", "141034.155000", "141035.645000", "141037.135000", "141038.625000", "141040.115000", "141041.605000", "141043.095000", "141044.585000", "141046.075000", "141047.565000", "141049.055000", "141050.545000", "141052.035000", "141053.525000", "141055.015000", "141056.505000", "141057.995000", "141059.485000", "141100.975000", "141102.465000", "141103.955000", "141105.445000", "141106.935000", "141108.425000", "141109.915000", "141111.405000", "141112.895000", "141114.385000", "141115.875000", "141117.365000", "141118.855000", "141120.345000", "141121.835000", "141123.325000", "141124.815000", "141126.305000", "141127.795000", "141129.285000", "141130.775000", "141132.265000", "141133.755000", "141135.245000", "141136.735000", "141138.225000", "141139.715000", "141141.205000", "141142.695000", "141144.185000", "141145.675000", "141147.165000", "141148.655000", "141150.145000", "141151.635000", "141153.125000", "141154.615000", "141156.105000", "141157.595000", "141159.085000", "141200.575000", "141202.065000", "141203.555000", "141205.045000", "141206.535000", "141208.025000", "141209.515000", "141211.005000", "141212.495000", "141213.985000", "141215.475000", "141216.965000", "141218.455000", "141219.945000", "141221.435000", "141222.925000", "141224.415000", "141225.905000", "141227.395000", "141228.885000", "141230.375000", "141231.865000", "141233.355000", "141234.845000", "141236.335000", "141237.825000", "141239.315000", "141240.805000", "141242.295000", "141243.785000", "141245.275000", "141246.765000", "141248.255000", "141249.745000", "141251.235000", "141252.725000", "141254.215000", "141255.705000", "141257.195000", "141258.685000", "141300.175000", "141301.665000", "141303.155000", "141304.645000", "141306.135000", "141307.625000", "141309.115000", "141310.605000", "141312.095000", "141313.585000", "141315.075000", "141316.565000", "141318.055000", "141319.545000", "141321.035000", "141322.525000", "141324.015000", "141325.505000", "141326.995000", "141328.485000", "141329.975000", "141331.465000", "141332.955000", "141334.445000", "141335.935000", "141337.425000", "141338.915000", "141340.405000", "141341.895000", "141343.385000", "141344.875000", "141346.365000", "141347.855000", "141349.345000", "141350.835000", "141352.325000"],
      "ContentTime": ["140253.958000", "140253.961000", "140253.964000", "140253.966000", "140253.969000", "140253.979000", "140253.982000", "140253.985000", "140253.988000", "140253.991000", "140253.994000", "140253.997000", "140254.000000", "140313.912000", "140313.915000", "140313.917000", "140313.920000", "140313.922000", "140313.925000", "140313.927000", "140313.930000", "140313.932000", "140313.935000", "140313.937000", "140313.940000", "140313.942000", "140313.945000", "140313.947000", "140313.950000", "140313.952000", "140313.955000", "140313.957000", "140313.960000", "140333.911000", "140333.914000", "140333.916000", "140333.919000", "140333.922000", "140333.924000", "140333.927000", "140333.929000", "140333.931000", "140333.934000", "140333.936000", "140333.939000", "140333.941000", "140333.944000", "140333.946000", "140333.949000", "140333.951000", "140333.954000", "140333.956000", "140333.959000", "140353.920000", "140353.923000", "140353.926000", "140353.928000", "140353.931000", "140353.933000", "140353.936000", "140353.938000", "140353.941000", "140353.943000", "140353.946000", "140353.948000", "140353.951000", "140353.953000", "140353.956000", "140353.958000", "140353.961000", "140353.963000", "140353.966000", "140353.968000", "140413.931000", "140413.933000", "140413.936000", "140413.939000", "140413.941000", "140413.944000", "140413.946000", "140413.949000", "140413.956000", "140413.959000", "140413.961000", "140413.964000", "140413.966000", "140413.969000", "140413.971000", "140413.974000", "140413.976000", "140413.979000", "140413.981000", "140413.984000", "140453.963000", "140453.965000", "140453.968000", "140453.970000", "140453.973000", "140453.975000", "140453.978000", "140453.981000", "140453.983000", "140453.986000", "140453.988000", "140453.991000", "140453.993000", "140453.996000", "140453.998000", "140454.002000", "140454.004000", "140454.007000", "140454.009000", "140454.012000", "140454.015000", "140454.018000", "140454.021000", "140454.023000", "140454.026000", "140454.028000", "140454.031000", "140454.034000", "140454.036000", "140454.039000", "140533.959000", "140533.961000", "140533.964000", "140533.966000", "140533.969000", "140533.978000", "140533.980000", "140533.983000", "140533.985000", "140533.988000", "140533.990000", "140533.993000", "140533.996000", "140533.998000", "140534.002000", "140534.004000", "140534.007000", "140534.009000", "140534.012000", "140534.014000", "140534.017000", "140534.019000", "140534.022000", "140534.024000", "140534.027000", "140534.030000", "140534.032000", "140613.955000", "140613.957000", "140613.960000", "140613.962000", "140613.965000", "140613.967000", "140613.970000", "140613.972000", "140613.975000", "140613.978000", "140613.980000", "140613.983000", "140613.985000", "140613.988000", "140613.990000", "140613.993000", "140613.995000", "140613.998000", "140614.001000", "140614.004000", "140614.006000", "140614.009000", "140614.011000", "140614.014000", "140614.058000", "140614.061000", "140653.945000", "140653.948000", "140653.950000", "140653.953000", "140653.956000", "140653.958000", "140653.961000", "140653.963000", "140653.966000", "140653.968000", "140653.971000", "140653.973000", "140653.976000", "140653.978000", "140653.981000", "140653.983000", "140653.986000", "140653.988000", "140653.991000", "140653.993000", "140653.996000", "140654.000000", "140654.002000", "140654.005000", "140654.011000", "140654.014000", "140654.017000", "140733.959000", "140733.962000", "140733.965000", "140733.967000", "140733.970000", "140733.972000", "140733.975000", "140733.977000", "140733.980000", "140733.982000", "140733.985000", "140733.987000", "140733.990000", "140733.992000", "140733.995000", "140733.997000", "140734.001000", "140734.003000", "140734.006000", "140734.008000", "140734.011000", "140734.013000", "140734.016000", "140734.019000", "140734.021000", "140734.024000", "140734.026000", "140813.944000", "140813.947000", "140813.949000", "140813.952000", "140813.955000", "140813.957000", "140813.960000", "140813.962000", "140813.965000", "140813.967000", "140813.970000", "140813.972000", "140813.975000", "140813.977000", "140813.980000", "140813.982000", "140813.985000", "140813.988000", "140813.990000", "140813.993000", "140813.995000", "140813.998000", "140814.000000", "140814.003000", "140814.005000", "140814.008000", "140814.010000", "140853.969000", "140853.972000", "140853.974000", "140853.977000", "140853.980000", "140853.982000", "140853.985000", "140853.987000", "140853.990000", "140853.992000", "140853.995000", "140853.997000", "140854.001000", "140854.003000", "140854.006000", "140854.008000", "140854.011000", "140854.013000", "140854.016000", "140854.018000", "140854.021000", "140854.023000", "140854.026000", "140854.028000", "140854.031000", "140854.034000", "140854.036000", "140913.893000", "140913.896000", "140913.898000", "140913.901000", "140913.903000", "140913.906000", "140913.908000", "140913.911000", "140913.913000", "140913.916000", "140913.919000", "140913.921000", "140913.924000", "140953.960000", "140953.962000", "140953.965000", "140953.967000", "140953.970000", "140953.973000", "140953.975000", "140953.978000", "140953.980000", "140953.983000", "140953.985000", "140953.988000", "140953.990000", "140953.993000", "140953.995000", "140953.998000", "140954.001000", "140954.004000", "140954.007000", "140954.009000", "140954.012000", "140954.014000", "140954.017000", "140954.019000", "140954.022000", "140954.025000", "140954.027000", "141033.957000", "141033.960000", "141033.962000", "141033.965000", "141033.968000", "141033.970000", "141033.973000", "141033.975000", "141033.978000", "141033.980000", "141033.983000", "141033.985000", "141033.988000", "141033.990000", "141033.993000", "141033.995000", "141033.998000", "141034.001000", "141034.004000", "141034.006000", "141034.009000", "141034.011000", "141034.014000", "141034.017000", "141034.019000", "141034.022000", "141034.024000", "141113.970000", "141113.973000", "141113.975000", "141113.978000", "141113.980000", "141113.983000", "141113.985000", "141113.988000", "141113.991000", "141113.993000", "141113.996000", "141113.998000", "141114.002000", "141114.005000", "141114.007000", "141114.010000", "141114.012000", "141114.015000", "141114.017000", "141114.020000", "141114.022000", "141114.025000", "141114.027000", "141114.030000", "141114.033000", "141114.035000", "141114.038000", "141153.951000", "141153.953000", "141153.956000", "141153.959000", "141153.961000", "141153.964000", "141153.966000", "141153.969000", "141153.971000", "141153.974000", "141153.976000", "141153.979000", "141153.981000", "141153.984000", "141153.987000", "141153.989000", "141153.992000", "141153.994000", "141153.997000", "141154.000000", "141154.003000", "141154.005000", "141154.008000", "141154.010000", "141154.013000", "141154.015000", "141154.018000", "141233.936000", "141233.939000", "141233.941000", "141233.944000", "141233.947000", "141233.949000", "141233.952000", "141233.954000", "141233.957000", "141233.959000", "141233.962000", "141233.964000", "141233.967000", "141233.969000", "141233.972000", "141233.974000", "141233.977000", "141233.979000", "141233.982000", "141233.984000", "141233.987000", "141233.990000", "141233.992000", "141233.995000", "141233.997000", "141234.001000", "141234.003000", "141313.962000", "141313.965000", "141313.968000", "141313.970000", "141313.973000", "141313.976000", "141313.979000", "141313.982000", "141313.984000", "141313.987000", "141313.989000", "141313.992000", "141313.994000", "141313.997000", "141314.001000", "141314.003000", "141314.006000", "141314.008000", "141314.011000", "141314.013000", "141314.016000", "141314.018000", "141314.021000", "141314.023000", "141314.026000", "141314.028000", "141353.953000", "141353.955000", "141353.958000", "141353.960000", "141353.963000", "141353.965000", "141353.968000", "141353.970000", "141353.973000", "141353.975000", "141353.978000", "141353.980000", "141353.983000", "141353.986000", "141353.988000", "141353.991000", "141353.993000", "141353.996000", "141353.998000", "141354.002000", "141354.005000", "141354.007000", "141354.010000", "141354.012000", "141354.015000", "141354.017000", "141354.020000", "141354.472000"],
