{
  "AcquisitionMatrixPE": 104,
  "AcquisitionNumber": 1,
  "AcquisitionTime": "17:37:17.045000",
  "BandwidthPerPixelPhaseEncode": 17.17,
  "BaseResolution": 104,
  "BodyPartExamined": "BRAIN",
  "CoilCombinationMethod": "Sum of Squares",
  "ConsistencyInfo": "N4_VE11C_LATEST_20160120",
  "ConversionSoftware": "dcm2niix",
  "ConversionSoftwareVersion": "v1.0.20211006",
  "DerivedVendorReportedEchoSpacing": 0.000560011,
  "DeviceSerialNumber": "167006",
  "DwellTime": 2.1e-06,
  "EchoTime": 0.037,
  "EchoTime1": 0.037,
  "EchoTime2": 0.001,
  "EchoTrainLength": 104,
  "EffectiveEchoSpacing": 0.000560011,
  "FlipAngle": 52,
  "HeudiconvVersion": "0.10.0",
  "ImageComments": "Unaliased MB4/PE3/LB",
  "ImageOrientationPatientDICOM": [0.999471, 0.0121547, 0.0301801, -0.00279102, 0.956209, -0.292673],
  "ImageOrientationText": "Tra>Cor(-17.0)>Sag(1.9)",
  "ImageType": [
    "ORIGINAL",
    "PRIMARY",
    "P",
    "MB",
    "ND",
    "MOSAIC",
    "PHASE"
],
  "ImagingFrequency": 123.259,
  "InPlanePhaseEncodingDirectionDICOM": "COL",
  "InstitutionAddress": "Chemin Queen-Mary 4565,Montreal,District,CA,H3W 1W5",
  "InstitutionName": "IUGM",
  "InstitutionalDepartmentName": "Department",
  "MRAcquisitionType": "2D",
  "MagneticFieldStrength": 3,
  "Manufacturer": "Siemens",
  "ManufacturersModelName": "Prisma_fit",
  "MatrixCoilMode": "SENSE",
  "Modality": "MR",
  "MultibandAccelerationFactor": 4,
  "PartialFourier": 1,
  "PatientPosition": "HFS",
  "PercentPhaseFOV": 100,
  "PercentSampling": 100,
  "PhaseEncodingDirection": "j",
  "PhaseEncodingSteps": 104,
  "PhaseResolution": 1,
  "PixelBandwidth": 2290,
  "ProcedureStepDescription": "games^mario",
  "ProtocolName": "func_task-mario_run-01",
  "PulseSequenceDetails": "%CustomerSeq%\\cmrr_mbep2d_bold",
  "ReceiveCoilActiveElements": "HC1-7;NC1,2",
  "ReceiveCoilName": "HeadNeck_64",
  "ReconMatrixPE": 104,
  "RepetitionTime": 1.49,
  "SAR": 0.0600363,
  "ScanOptions": "FS",
  "ScanningSequence": "EP",
  "SequenceName": "epfid2d1_104",
  "SequenceVariant": "SK\\SS",
  "SeriesDescription": "func_task-mario_run-01",
  "SeriesNumber": 11,
  "ShimSetting": [641, -7200, -8751, 711, 61, 35, 31, -17],
  "SliceThickness": 2,
  "SliceTiming": [0, 0.785, 0.1, 0.8825, 0.1975, 0.98, 0.295, 1.0775, 0.3925, 1.1775, 0.49, 1.275, 0.59, 1.3725, 0.6875, 0, 0.785, 0.1, 0.8825, 0.1975, 0.98, 0.295, 1.0775, 0.3925, 1.1775, 0.49, 1.275, 0.59, 1.3725, 0.6875, 0, 0.785, 0.1, 0.8825, 0.1975, 0.98, 0.295, 1.0775, 0.3925, 1.1775, 0.49, 1.275, 0.59, 1.3725, 0.6875, 0, 0.785, 0.1, 0.8825, 0.1975, 0.98, 0.295, 1.0775, 0.3925, 1.1775, 0.49, 1.275, 0.59, 1.3725, 0.6875],
  "SoftwareVersions": "syngo MR E11",
  "SpacingBetweenSlices": 2,
  "StationName": "MRC35049",
  "TaskName": "mario",
  "TotalReadoutTime": 0.0576811,
  "TxRefAmp": 256.558,
  "WipMemBlock": "434abf50-3d94-418a-8a35-22d345b3d2d0||Sequence: R016 ve11c/master r/e634e98; Dec 19 2017 11:00:25 by eja",
  "dcmmeta_affine": [
    [-1.99894118309021, -0.005582038313150406, 0.06483164429664612, 107.74269104003906],
    [-0.024309426546096802, 1.9124170541763306, -0.5848676562309265, -69.94860076904297],
    [0.06036018952727318, 0.585345983505249, 1.9114724397659302, -58.56145477294922],
    [0.0, 0.0, 0.0, 1.0]
],
  "dcmmeta_reorient_transform": [
    [0.0, -1.0, 0.0, 103.0],
    [1.0, 0.0, 0.0, 0.0],
    [0.0, 0.0, 1.0, 0.0],
    [0.0, 0.0, 0.0, 1.0]
],
  "dcmmeta_shape": [104, 104, 60, 498],
  "dcmmeta_slice_dim": 2,
  "dcmmeta_version": 0.6,
  "global": {
    "const": {
      "AcquisitionMatrix": [104, 0, 0, 104],
      "AngioFlag": "N",
      "BitsAllocated": 16,
      "BitsStored": 16,
      "BodyPartExamined": "BRAIN",
      "Columns": 832,
      "EchoNumbers": 1,
      "EchoTime": 37.0,
      "EchoTrainLength": 104,
      "FlipAngle": 52.0,
      "HighBit": 15,
      "ImageOrientationPatient": [0.99947057227739, 0.01215471327788, 0.03018009437764, -0.0027910192566, 0.95620851590001, -0.2926729989798],
      "ImagePositionPatient": [-832.75045464352, -831.99878239012, 192.8240168255],
      "ImageType": [
        "ORIGINAL",
        "PRIMARY",
        "P",
        "MB",
        "ND",
        "MOSAIC"
],
      "ImagedNucleus": "1H",
      "ImagingFrequency": 123.258841,
      "InPlanePhaseEncodingDirection": "COL",
      "LargestImagePixelValue": 4095,
      "MRAcquisitionType": "2D",
      "MagneticFieldStrength": 3.0,
      "Manufacturer": "SIEMENS",
      "ManufacturerModelName": "Prisma_fit",
      "Modality": "MR",
      "NumberOfAverages": 1.0,
      "NumberOfPhaseEncodingSteps": 104,
      "PercentPhaseFieldOfView": 100.0,
      "PercentSampling": 100.0,
      "PerformedProcedureStepStartTime": "172106.984000",
      "PhotometricInterpretation": "MONOCHROME2",
      "PixelBandwidth": 2290.0,
      "PixelRepresentation": 0,
      "PixelSpacing": [2.0, 2.0],
      "ProtocolName": "func_task-mario_run-01",
      "RepetitionTime": 1490.0,
      "RescaleIntercept": -4096.0,
      "RescaleSlope": 2.0,
      "RescaleType": "US",
      "Rows": 832,
      "SAR": 0.06003631899914,
      "SamplesPerPixel": 1,
      "ScanOptions": "FS",
      "ScanningSequence": "EP",
      "SequenceName": "epfid2d1_104",
      "SequenceVariant": [
        "SK",
        "SS"
],
      "SeriesDescription": "func_task-mario_run-01",
      "SeriesNumber": 11,
      "SeriesTime": "173840.274000",
      "SliceLocation": -32.021398298189,
      "SliceThickness": 2.0,
      "SmallestImagePixelValue": 0,
      "SoftwareVersions": "syngo MR E11",
      "SpacingBetweenSlices": 2.0000000516634,
      "SpecificCharacterSet": "ISO_IR 100",
      "StudyID": "1",
      "StudyTime": "172106.918000",
      "TransmitCoilName": "Body",
      "VariableFlipAngleFlag": "N",
      "WindowCenterWidthExplanation": "Algo1",
      "dBdt": 0.0},
    "slices": {}
  },
  "time": {
    "samples": {
      "AcquisitionNumber": [1, 2, 3, 4, 5, 6, 7, 8, 9, 10, 11, 12, 13, 14, 15, 16, 17, 18, 19, 20, 21, 22, 23, 24, 25, 26, 27, 28, 29, 30, 31, 32, 33, 34, 35, 36, 37, 38, 39, 40, 41, 42, 43, 44, 45, 46, 47, 48, 49, 50, 51, 52, 53, 54, 55, 56, 57, 58, 59, 60, 61, 62, 63, 64, 65, 66, 67, 68, 69, 70, 71, 72, 73, 74, 75, 76, 77, 78, 79, 80, 81, 82, 83, 84, 85, 86, 87, 88, 89, 90, 91, 92, 93, 94, 95, 96, 97, 98, 99, 100, 101, 102, 103, 104, 105, 106, 107, 108, 109, 110, 111, 112, 113, 114, 115, 116, 117, 118, 119, 120, 121, 122, 123, 124, 125, 126, 127, 128, 129, 130, 131, 132, 133, 134, 135, 136, 137, 138, 139, 140, 141, 142, 143, 144, 145, 146, 147, 148, 149, 150, 151, 152, 153, 154, 155, 156, 157, 158, 159, 160, 161, 162, 163, 164, 165, 166, 167, 168, 169, 170, 171, 172, 173, 174, 175, 176, 177, 178, 179, 180, 181, 182, 183, 184, 185, 186, 187, 188, 189, 190, 191, 192, 193, 194, 195, 196, 197, 198, 199, 200, 201, 202, 203, 204, 205, 206, 207, 208, 209, 210, 211, 212, 213, 214, 215, 216, 217, 218, 219, 220, 221, 222, 223, 224, 225, 226, 227, 228, 229, 230, 231, 232, 233, 234, 235, 236, 237, 238, 239, 240, 241, 242, 243, 244, 245, 246, 247, 248, 249, 250, 251, 252, 253, 254, 255, 256, 257, 258, 259, 260, 261, 262, 263, 264, 265, 266, 267, 268, 269, 270, 271, 272, 273, 274, 275, 276, 277, 278, 279, 280, 281, 282, 283, 284, 285, 286, 287, 288, 289, 290, 291, 292, 293, 294, 295, 296, 297, 298, 299, 300, 301, 302, 303, 304, 305, 306, 307, 308, 309, 310, 311, 312, 313, 314, 315, 316, 317, 318, 319, 320, 321, 322, 323, 324, 325, 326, 327, 328, 329, 330, 331, 332, 333, 334, 335, 336, 337, 338, 339, 340, 341, 342, 343, 344, 345, 346, 347, 348, 349, 350, 351, 352, 353, 354, 355, 356, 357, 358, 359, 360, 361, 362, 363, 364, 365, 366, 367, 368, 369, 370, 371, 372, 373, 374, 375, 376, 377, 378, 379, 380, 381, 382, 383, 384, 385, 386, 387, 388, 389, 390, 391, 392, 393, 394, 395, 396, 397, 398, 399, 400, 401, 402, 403, 404, 405, 406, 407, 408, 409, 410, 411, 412, 413, 414, 415, 416, 417, 418, 419, 420, 421, 422, 423, 424, 425, 426, 427, 428, 429, 430, 431, 432, 433, 434, 435, 436, 437, 438, 439, 440, 441, 442, 443, 444, 445, 446, 447, 448, 449, 450, 451, 452, 453, 454, 455, 456, 457, 458, 459, 460, 461, 462, 463, 464, 465, 466, 467, 468, 469, 470, 471, 472, 473, 474, 475, 476, 477, 478, 479, 480, 481, 482, 483, 484, 485, 486, 487, 488, 489, 490, 491, 492, 493, 494, 495, 496, 497, 498],
      "AcquisitionTime": ["173717.045000", "173718.535000", "173720.025000", "173721.515000", "173723.005000", "173724.495000", "173725.985000", "173727.475000", "173728.965000", "173730.455000", "173731.945000", "173733.435000", "173734.925000", "173736.415000", "173737.905000", "173739.395000", "173740.885000", "173742.375000", "173743.865000", "173745.355000", "173746.845000", "173748.335000", "173749.825000", "173751.315000", "173752.805000", "173754.295000", "173755.785000", "173757.275000", "173758.765000", "173800.255000", "173801.745000", "173803.235000", "173804.725000", "173806.215000", "173807.705000", "173809.195000", "173810.685000", "173812.175000", "173813.665000", "173815.155000", "173816.645000", "173818.135000", "173819.625000", "173821.115000", "173822.605000", "173824.095000", "173825.585000", "173827.075000", "173828.565000", "173830.055000", "173831.545000", "173833.035000", "173834.525000", "173836.015000", "173837.505000", "173838.995000", "173840.485000", "173841.975000", "173843.465000", "173844.955000", "173846.445000", "173847.935000", "173849.425000", "173850.915000", "173852.405000", "173853.895000", "173855.385000", "173856.875000", "173858.365000", "173859.855000", "173901.345000", "173902.835000", "173904.325000", "173905.815000", "173907.305000", "173908.795000", "173910.285000", "173911.775000", "173913.265000", "173914.755000", "173916.245000", "173917.735000", "173919.225000", "173920.715000", "173922.205000", "173923.695000", "173925.185000", "173926.675000", "173928.165000", "173929.655000", "173931.145000", "173932.635000", "173934.125000", "173935.615000", "173937.105000", "173938.595000", "173940.085000", "173941.575000", "173943.065000", "173944.555000", "173946.045000", "173947.535000", "173949.025000", "173950.515000", "173952.005000", "173953.495000", "173954.985000", "173956.475000", "173957.965000", "173959.455000", "174000.945000", "174002.435000", "174003.925000", "174005.415000", "174006.905000", "174008.395000", "174009.885000", "174011.375000", "174012.865000", "174014.355000", "174015.845000", "174017.335000", "174018.825000", "174020.315000", "174021.805000", "174023.295000", "174024.785000", "174026.275000", "174027.765000", "174029.255000", "174030.745000", "174032.235000", "174033.725000", "174035.215000", "174036.705000", "174038.195000", "174039.685000", "174041.175000", "174042.665000", "174044.155000", "174045.645000", "174047.135000", "174048.625000", "174050.115000", "174051.605000", "174053.095000", "174054.585000", "174056.075000", "174057.565000", "174059.055000", "174100.545000", "174102.035000", "174103.525000", "174105.015000", "174106.505000", "174107.995000", "174109.485000", "174110.975000", "174112.465000", "174113.955000", "174115.445000", "174116.935000", "174118.425000", "174119.915000", "174121.405000", "174122.895000", "174124.385000", "174125.875000", "174127.365000", "174128.855000", "174130.345000", "174131.835000", "174133.325000", "174134.815000", "174136.305000", "174137.795000", "174139.285000", "174140.775000", "174142.265000", "174143.755000", "174145.245000", "174146.735000", "174148.225000", "174149.715000", "174151.205000", "174152.695000", "174154.185000", "174155.675000", "174157.165000", "174158.655000", "174200.145000", "174201.635000", "174203.125000", "174204.615000", "174206.105000", "174207.595000", "174209.085000", "174210.575000", "174212.065000", "174213.555000", "174215.045000", "174216.535000", "174218.025000", "174219.515000", "174221.005000", "174222.495000", "174223.985000", "174225.475000", "174226.965000", "174228.455000", "174229.945000", "174231.435000", "174232.925000", "174234.415000", "174235.905000", "174237.395000", "174238.885000", "174240.375000", "174241.865000", "174243.355000", "174244.845000", "174246.335000", "174247.825000", "174249.315000", "174250.805000", "174252.295000", "174253.785000", "174255.275000", "174256.765000", "174258.255000", "174259.745000", "174301.235000", "174302.725000", "174304.215000", "174305.705000", "174307.195000", "174308.685000", "174310.175000", "174311.665000", "174313.155000", "174314.645000", "174316.135000", "174317.625000", "174319.115000", "174320.605000", "174322.095000", "174323.585000", "174325.075000", "174326.565000", "174328.055000", "174329.545000", "174331.035000", "174332.525000", "174334.015000", "174335.505000", "174336.995000", "174338.485000", "174339.975000", "174341.465000", "174342.955000", "174344.445000", "174345.935000", "174347.425000", "174348.915000", "174350.405000", "174351.895000", "174353.385000", "174354.875000", "174356.365000", "174357.855000", "174359.345000", "174400.835000", "174402.325000", "174403.815000", "174405.305000", "174406.795000", "174408.285000", "174409.775000", "174411.265000", "174412.755000", "174414.245000", "174415.735000", "174417.225000", "174418.715000", "174420.205000", "174421.695000", "174423.185000", "174424.675000", "174426.165000", "174427.655000", "174429.145000", "174430.635000", "174432.125000", "174433.615000", "174435.105000", "174436.595000", "174438.085000", "174439.575000", "174441.065000", "174442.555000", "174444.045000", "174445.535000", "174447.025000", "174448.515000", "174450.005000", "174451.495000", "174452.985000", "174454.475000", "174455.965000", "174457.455000", "174458.945000", "174500.435000", "174501.925000", "174503.415000", "174504.905000", "174506.395000", "174507.885000", "174509.375000", "174510.865000", "174512.355000", "174513.845000", "174515.335000", "174516.825000", "174518.315000", "174519.805000", "174521.295000", "174522.785000", "174524.275000", "174525.765000", "174527.255000", "174528.745000", "174530.235000", "174531.725000", "174533.215000", "174534.705000", "174536.195000", "174537.685000", "174539.175000", "174540.665000", "174542.155000", "174543.645000", "174545.135000", "174546.625000", "174548.115000", "174549.605000", "174551.095000", "174552.585000", "174554.075000", "174555.565000", "174557.055000", "174558.545000", "174600.035000", "174601.525000", "174603.015000", "174604.505000", "174605.995000", "174607.485000", "174608.975000", "174610.465000", "174611.955000", "174613.445000", "174614.935000", "174616.425000", "174617.915000", "174619.405000", "174620.895000", "174622.385000", "174623.875000", "174625.365000", "174626.855000", "174628.345000", "174629.835000", "174631.325000", "174632.815000", "174634.305000", "174635.795000", "174637.285000", "174638.775000", "174640.265000", "174641.755000", "174643.245000", "174644.735000", "174646.225000", "174647.715000", "174649.205000", "174650.695000", "174652.185000", "174653.675000", "174655.165000", "174656.655000", "174658.145000", "174659.635000", "174701.125000", "174702.615000", "174704.105000", "174705.595000", "174707.085000", "174708.575000", "174710.065000", "174711.555000", "174713.045000", "174714.535000", "174716.025000", "174717.515000", "174719.005000", "174720.495000", "174721.985000", "174723.475000", "174724.965000", "174726.455000", "174727.945000", "174729.435000", "174730.925000", "174732.415000", "174733.905000", "174735.395000", "174736.885000", "174738.375000", "174739.865000", "174741.355000", "174742.845000", "174744.335000", "174745.825000", "174747.315000", "174748.805000", "174750.295000", "174751.785000", "174753.275000", "174754.765000", "174756.255000", "174757.745000", "174759.235000", "174800.725000", "174802.215000", "174803.705000", "174805.195000", "174806.685000", "174808.175000", "174809.665000", "174811.155000", "174812.645000", "174814.135000", "174815.625000", "174817.115000", "174818.605000", "174820.095000", "174821.585000", "174823.075000", "174824.565000", "174826.055000", "174827.545000", "174829.035000", "174830.525000", "174832.015000", "174833.505000", "174834.995000", "174836.485000", "174837.975000", "174839.465000", "174840.955000", "174842.445000", "174843.935000", "174845.425000", "174846.915000", "174848.405000", "174849.895000", "174851.385000", "174852.875000", "174854.365000", "174855.855000", "174857.345000", "174858.835000", "174900.325000", "174901.815000", "174903.305000", "174904.795000", "174906.285000", "174907.775000", "174909.265000", "174910.755000", "174912.245000", "174913.735000", "174915.225000", "174916.715000", "174918.205000", "174919.695000", "174921.185000", "174922.675000", "174924.165000", "174925.655000", "174927.145000", "174928.635000", "174930.125000", "174931.615000", "174933.105000", "174934.595000", "174936.085000", "174937.575000"],
      "ContentTime": ["173840.276000", "173840.279000", "173840.282000", "173840.284000", "173840.287000", "173840.289000", "173840.292000", "173840.300000", "173840.303000", "173840.305000", "173840.308000", "173840.310000", "173840.313000", "173840.315000", "173840.318000", "173840.320000", "173840.323000", "173840.325000", "173840.328000", "173840.330000", "173840.333000", "173840.335000", "173840.338000", "173840.340000", "173840.343000", "173900.245000", "173900.248000", "173900.250000", "173900.253000", "173900.255000", "173900.258000", "173900.260000", "173900.263000", "173900.265000", "173900.267000", "173900.270000", "173900.272000", "173900.275000", "173900.277000", "173900.280000", "173900.282000", "173900.285000", "173900.287000", "173900.290000", "173900.292000", "173920.227000", "173920.229000", "173920.232000", "173920.234000", "173920.237000", "173920.239000", "173920.242000", "173920.244000", "173920.247000", "173920.249000", "173920.252000", "173920.254000", "173920.257000", "173920.259000", "173920.262000", "173920.264000", "173920.267000", "173920.269000", "173920.272000", "173920.274000", "173940.762000", "173940.765000", "173940.768000", "173940.770000", "173940.773000", "173940.775000", "173940.778000", "173940.780000", "173940.783000", "173940.785000", "173940.788000", "173940.790000", "173940.793000", "173940.795000", "173940.798000", "173940.800000", "173940.802000", "173940.805000", "173940.807000", "173940.810000", "174000.225000", "174000.227000", "174000.230000", "174000.232000", "174000.235000", "174000.237000", "174000.240000", "174000.242000", "174000.245000", "174000.247000", "174000.250000", "174000.252000", "174000.255000", "174000.257000", "174000.260000", "174000.262000", "174000.265000", "174000.267000", "174000.270000", "174000.272000", "174000.275000", "174040.256000", "174040.259000", "174040.262000", "174040.264000", "174040.267000", "174040.269000", "174040.272000", "174040.274000", "174040.277000", "174040.279000", "174040.282000", "174040.284000", "174040.287000", "174040.289000", "174040.292000", "174040.294000", "174040.297000", "174040.299000", "174040.302000", "174040.304000", "174040.307000", "174040.309000", "174040.312000", "174040.314000", "174040.317000", "174040.319000", "174040.322000", "174040.324000", "174040.327000", "174040.329000", "174120.256000", "174120.259000", "174120.261000", "174120.264000", "174120.266000", "174120.269000", "174120.271000", "174120.274000", "174120.276000", "174120.279000", "174120.281000", "174120.284000", "174120.286000", "174120.289000", "174120.291000", "174120.294000", "174120.296000", "174120.299000", "174120.301000", "174120.304000", "174120.306000", "174120.309000", "174120.311000", "174120.314000", "174120.316000", "174120.319000", "174200.242000", "174200.244000", "174200.247000", "174200.249000", "174200.252000", "174200.254000", "174200.257000", "174200.260000", "174200.263000", "174200.265000", "174200.268000", "174200.270000", "174200.273000", "174200.275000", "174200.278000", "174200.281000", "174200.283000", "174200.286000", "174200.288000", "174200.291000", "174200.293000", "174200.295000", "174200.298000", "174200.300000", "174200.303000", "174200.305000", "174200.308000", "174240.249000", "174240.251000", "174240.254000", "174240.256000", "174240.259000", "174240.261000", "174240.264000", "174240.266000", "174240.269000", "174240.271000", "174240.274000", "174240.276000", "174240.279000", "174240.281000", "174240.284000", "174240.286000", "174240.289000", "174240.291000", "174240.294000", "174240.296000", "174240.299000", "174240.301000", "174240.304000", "174240.306000", "174240.309000", "174240.311000", "174240.314000", "174320.240000", "174320.243000", "174320.245000", "174320.248000", "174320.250000", "174320.253000", "174320.255000", "174320.258000", "174320.260000", "174320.263000", "174320.265000", "174320.268000", "174320.270000", "174320.273000", "174320.275000", "174320.278000", "174320.280000", "174320.283000", "174320.286000", "174320.288000", "174320.291000", "174320.293000", "174320.296000", "174320.298000", "174320.301000", "174320.303000", "174320.306000", "174400.248000", "174400.251000", "174400.253000", "174400.256000", "174400.258000", "174400.261000", "174400.263000", "174400.266000", "174400.268000", "174400.271000", "174400.273000", "174400.276000", "174400.278000", "174400.281000", "174400.283000", "174400.286000", "174400.288000", "174400.291000", "174400.293000", "174400.295000", "174400.298000", "174400.300000", "174400.303000", "174400.305000", "174400.308000", "174400.311000", "174400.313000", "174440.256000", "174440.259000", "174440.261000", "174440.264000", "174440.266000", "174440.269000", "174440.271000", "174440.274000", "174440.276000", "174440.279000", "174440.281000", "174440.284000", "174440.286000", "174440.289000", "174440.291000", "174440.294000", "174440.296000", "174440.299000", "174440.301000", "174440.304000", "174440.306000", "174440.309000", "174440.311000", "174440.314000", "174440.316000", "174440.319000", "174440.321000", "174520.248000", "174520.250000", "174520.253000", "174520.255000", "174520.258000", "174520.260000", "174520.263000", "174520.265000", "174520.268000", "174520.270000", "174520.273000", "174520.275000", "174520.278000", "174520.280000", "174520.283000", "174520.285000", "174520.288000", "174520.290000", "174520.293000", "174520.295000", "174520.298000", "174520.300000", "174520.303000", "174520.305000", "174520.308000", "174520.310000", "174520.313000", "174600.244000", "174600.247000", "174600.249000", "174600.252000", "174600.254000", "174600.257000", "174600.259000", "174600.262000", "174600.264000", "174600.267000", "174600.269000", "174600.272000", "174600.274000", "174600.277000", "174600.280000", "174600.282000", "174600.285000", "174600.287000", "174600.290000", "174600.292000", "174600.295000", "174600.297000", "174600.300000", "174600.303000", "174600.305000", "174600.308000", "174640.241000", "174640.243000", "174640.246000", "174640.248000", "174640.251000", "174640.253000", "174640.256000", "174640.258000", "174640.261000", "174640.263000", "174640.266000", "174640.268000", "174640.271000", "174640.273000", "174640.276000", "174640.278000", "174640.281000", "174640.283000", "174640.286000", "174640.288000", "174640.291000", "174640.293000", "174640.296000", "174640.298000", "174640.301000", "174640.303000", "174640.306000", "174720.254000", "174720.257000", "174720.259000", "174720.262000", "174720.264000", "174720.267000", "174720.269000", "174720.272000", "174720.274000", "174720.277000", "174720.279000", "174720.282000", "174720.284000", "174720.287000", "174720.289000", "174720.292000", "174720.294000", "174720.297000", "174720.299000", "174720.302000", "174720.304000", "174720.307000", "174720.309000", "174720.312000", "174720.314000", "174720.317000", "174720.319000", "174800.269000", "174800.272000", "174800.274000", "174800.277000", "174800.279000", "174800.282000", "174800.284000", "174800.287000", "174800.289000", "174800.292000", "174800.294000", "174800.297000", "174800.299000", "174800.302000", "174800.304000", "174800.307000", "174800.309000", "174800.312000", "174800.314000", "174800.317000", "174800.319000", "174800.322000", "174800.324000", "174800.327000", "174800.329000", "174800.332000", "174800.334000", "174840.249000", "174840.252000", "174840.254000", "174840.257000", "174840.259000", "174840.262000", "174840.264000", "174840.267000", "174840.269000", "174840.272000", "174840.274000", "174840.277000", "174840.279000", "174840.282000", "174840.284000", "174840.287000", "174840.289000", "174840.292000", "174840.294000", "174840.297000", "174840.299000", "174840.302000", "174840.304000", "174840.307000", "174840.309000", "174840.312000", "174840.314000", "174920.252000", "174920.254000", "174920.257000", "174920.259000", "174920.262000", "174920.264000", "174920.267000", "174920.269000", "174920.272000", "174920.274000", "174920.277000", "174920.279000", "174920.282000", "174920.284000", "174920.287000", "174920.289000", "174920.292000", "174920.294000", "174920.297000", "174920.299000", "174920.302000", "174920.304000", "174920.307000", "174920.309000", "174920.312000", "174920.314000", "174920.317000", "174939.924000", "174939.927000", "174939.929000", "174939.932000", "174939.934000", "174939.937000", "174939.939000", "174939.942000", "174939.944000", "174939.947000", "174939.949000", "174939.952000", "174939.954000"],
