{
  "AcquisitionMatrixPE": 104,
  "AcquisitionNumber": 1,
  "AcquisitionTime": "18:17:17.167500",
  "BandwidthPerPixelPhaseEncode": 17.17,
  "BaseResolution": 104,
  "BodyPartExamined": "BRAIN",
  "CoilCombinationMethod": "Sum of Squares",
  "ConsistencyInfo": "N4_VE11C_LATEST_20160120",
  "ConversionSoftware": "dcm2niix",
  "ConversionSoftwareVersion": "v1.0.20211006",
  "DerivedVendorReportedEchoSpacing": 0.000560011,
  "DeviceSerialNumber": "167006",
  "DwellTime": 2.1e-06,
  "EchoTime": 0.037,
  "EchoTrainLength": 104,
  "EffectiveEchoSpacing": 0.000560011,
  "FlipAngle": 52,
  "HeudiconvVersion": "0.10.0",
  "ImageComments": "Unaliased MB4/PE3/LB",
  "ImageOrientationPatientDICOM": [0.999471, 0.0121547, 0.0301801, -0.00279102, 0.956209, -0.292673],
  "ImageOrientationText": "Tra>Cor(-17.0)>Sag(1.9)",
  "ImageType": [
    "ORIGINAL",
    "PRIMARY",
    "M",
    "MB",
    "ND",
    "MOSAIC"
],
  "ImagingFrequency": 123.259,
  "InPlanePhaseEncodingDirectionDICOM": "COL",
  "InstitutionAddress": "Chemin Queen-Mary 4565,Montreal,District,CA,H3W 1W5",
  "InstitutionName": "IUGM",
  "InstitutionalDepartmentName": "Department",
  "MRAcquisitionType": "2D",
  "MagneticFieldStrength": 3,
  "Manufacturer": "Siemens",
  "ManufacturersModelName": "Prisma_fit",
  "MatrixCoilMode": "SENSE",
  "Modality": "MR",
  "MultibandAccelerationFactor": 4,
  "PartialFourier": 1,
  "PatientPosition": "HFS",
  "PercentPhaseFOV": 100,
  "PercentSampling": 100,
  "PhaseEncodingDirection": "j",
  "PhaseEncodingSteps": 104,
  "PhaseResolution": 1,
  "PixelBandwidth": 2290,
  "ProcedureStepDescription": "games^mario",
  "ProtocolName": "func_task-mario_run-04",
  "PulseSequenceDetails": "%CustomerSeq%\\cmrr_mbep2d_bold",
  "ReceiveCoilActiveElements": "HC1-7;NC1,2",
  "ReceiveCoilName": "HeadNeck_64",
  "ReconMatrixPE": 104,
  "RepetitionTime": 1.49,
  "SAR": 0.0600363,
  "ScanOptions": "FS",
  "ScanningSequence": "EP",
  "SequenceName": "epfid2d1_104",
  "SequenceVariant": "SK\\SS",
  "SeriesDescription": "func_task-mario_run-04",
  "SeriesNumber": 19,
  "ShimSetting": [641, -7200, -8751, 711, 61, 35, 31, -17],
  "SliceThickness": 2,
  "SliceTiming": [0, 0.7825, 0.0975, 0.88, 0.195, 0.98, 0.2925, 1.0775, 0.39, 1.175, 0.49, 1.2725, 0.5875, 1.37, 0.685, 0, 0.7825, 0.0975, 0.88, 0.195, 0.98, 0.2925, 1.0775, 0.39, 1.175, 0.49, 1.2725, 0.5875, 1.37, 0.685, 0, 0.7825, 0.0975, 0.88, 0.195, 0.98, 0.2925, 1.0775, 0.39, 1.175, 0.49, 1.2725, 0.5875, 1.37, 0.685, 0, 0.7825, 0.0975, 0.88, 0.195, 0.98, 0.2925, 1.0775, 0.39, 1.175, 0.49, 1.2725, 0.5875, 1.37, 0.685],
  "SoftwareVersions": "syngo MR E11",
  "SpacingBetweenSlices": 2,
  "StationName": "MRC35049",
  "TaskName": "mario",
  "TotalReadoutTime": 0.0576811,
  "TxRefAmp": 256.558,
  "WipMemBlock": "b4a096b2-9c8b-400b-bc7c-93391d232d7c||Sequence: R016 ve11c/master r/e634e98; Dec 19 2017 11:00:25 by eja",
  "dcmmeta_affine": [
    [-1.99894118309021, -0.005582038313150406, 0.06483164429664612, 107.74269104003906],
    [-0.024309426546096802, 1.9124170541763306, -0.5848676562309265, -69.94860076904297],
    [0.06036018952727318, 0.585345983505249, 1.9114724397659302, -58.56145477294922],
    [0.0, 0.0, 0.0, 1.0]
],
  "dcmmeta_reorient_transform": [
    [0.0, -1.0, 0.0, 103.0],
    [1.0, 0.0, 0.0, 0.0],
    [0.0, 0.0, 1.0, 0.0],
    [0.0, 0.0, 0.0, 1.0]
],
  "dcmmeta_shape": [104, 104, 60, 494],
  "dcmmeta_slice_dim": 2,
  "dcmmeta_version": 0.6,
  "global": {
    "const": {
      "AcquisitionMatrix": [104, 0, 0, 104],
      "AngioFlag": "N",
      "BitsAllocated": 16,
      "BitsStored": 16,
      "BodyPartExamined": "BRAIN",
      "Columns": 832,
      "EchoNumbers": 1,
      "EchoTime": 37.0,
      "EchoTrainLength": 104,
      "FlipAngle": 52.0,
      "HighBit": 15,
      "ImageOrientationPatient": [0.99947057227739, 0.01215471327788, 0.03018009437764, -0.0027910192566, 0.95620851590001, -0.2926729989798],
      "ImagePositionPatient": [-832.75045464352, -831.99878239012, 192.8240168255],
      "ImageType": [
        "ORIGINAL",
        "PRIMARY",
        "M",
        "MB",
        "ND",
        "MOSAIC"
],
      "ImagedNucleus": "1H",
      "ImagingFrequency": 123.25886,
      "InPlanePhaseEncodingDirection": "COL",
      "MRAcquisitionType": "2D",
      "MagneticFieldStrength": 3.0,
      "Manufacturer": "SIEMENS",
      "ManufacturerModelName": "Prisma_fit",
      "Modality": "MR",
      "NumberOfAverages": 1.0,
      "NumberOfPhaseEncodingSteps": 104,
      "PercentPhaseFieldOfView": 100.0,
      "PercentSampling": 100.0,
      "PerformedProcedureStepStartTime": "172106.984000",
      "PhotometricInterpretation": "MONOCHROME2",
      "PixelBandwidth": 2290.0,
      "PixelRepresentation": 0,
      "PixelSpacing": [2.0, 2.0],
      "ProtocolName": "func_task-mario_run-04",
      "RepetitionTime": 1490.0,
      "Rows": 832,
      "SAR": 0.06003631899914,
      "SamplesPerPixel": 1,
      "ScanOptions": "FS",
      "ScanningSequence": "EP",
      "SequenceName": "epfid2d1_104",
      "SequenceVariant": [
        "SK",
        "SS"
],
      "SeriesDescription": "func_task-mario_run-04",
      "SeriesNumber": 19,
      "SeriesTime": "181840.139000",
      "SliceLocation": -32.021398298189,
      "SliceThickness": 2.0,
      "SmallestImagePixelValue": 0,
      "SoftwareVersions": "syngo MR E11",
      "SpacingBetweenSlices": 2.0000000516634,
      "SpecificCharacterSet": "ISO_IR 100",
      "StudyID": "1",
      "StudyTime": "172106.918000",
      "TransmitCoilName": "Body",
      "VariableFlipAngleFlag": "N",
      "WindowCenterWidthExplanation": "Algo1",
      "dBdt": 0.0},
    "slices": {}
  },
  "time": {
    "samples": {
      "AcquisitionNumber": [1, 2, 3, 4, 5, 6, 7, 8, 9, 10, 11, 12, 13, 14, 15, 16, 17, 18, 19, 20, 21, 22, 23, 24, 25, 26, 27, 28, 29, 30, 31, 32, 33, 34, 35, 36, 37, 38, 39, 40, 41, 42, 43, 44, 45, 46, 47, 48, 49, 50, 51, 52, 53, 54, 55, 56, 57, 58, 59, 60, 61, 62, 63, 64, 65, 66, 67, 68, 69, 70, 71, 72, 73, 74, 75, 76, 77, 78, 79, 80, 81, 82, 83, 84, 85, 86, 87, 88, 89, 90, 91, 92, 93, 94, 95, 96, 97, 98, 99, 100, 101, 102, 103, 104, 105, 106, 107, 108, 109, 110, 111, 112, 113, 114, 115, 116, 117, 118, 119, 120, 121, 122, 123, 124, 125, 126, 127, 128, 129, 130, 131, 132, 133, 134, 135, 136, 137, 138, 139, 140, 141, 142, 143, 144, 145, 146, 147, 148, 149, 150, 151, 152, 153, 154, 155, 156, 157, 158, 159, 160, 161, 162, 163, 164, 165, 166, 167, 168, 169, 170, 171, 172, 173, 174, 175, 176, 177, 178, 179, 180, 181, 182, 183, 184, 185, 186, 187, 188, 189, 190, 191, 192, 193, 194, 195, 196, 197, 198, 199, 200, 201, 202, 203, 204, 205, 206, 207, 208, 209, 210, 211, 212, 213, 214, 215, 216, 217, 218, 219, 220, 221, 222, 223, 224, 225, 226, 227, 228, 229, 230, 231, 232, 233, 234, 235, 236, 237, 238, 239, 240, 241, 242, 243, 244, 245, 246, 247, 248, 249, 250, 251, 252, 253, 254, 255, 256, 257, 258, 259, 260, 261, 262, 263, 264, 265, 266, 267, 268, 269, 270, 271, 272, 273, 274, 275, 276, 277, 278, 279, 280, 281, 282, 283, 284, 285, 286, 287, 288, 289, 290, 291, 292, 293, 294, 295, 296, 297, 298, 299, 300, 301, 302, 303, 304, 305, 306, 307, 308, 309, 310, 311, 312, 313, 314, 315, 316, 317, 318, 319, 320, 321, 322, 323, 324, 325, 326, 327, 328, 329, 330, 331, 332, 333, 334, 335, 336, 337, 338, 339, 340, 341, 342, 343, 344, 345, 346, 347, 348, 349, 350, 351, 352, 353, 354, 355, 356, 357, 358, 359, 360, 361, 362, 363, 364, 365, 366, 367, 368, 369, 370, 371, 372, 373, 374, 375, 376, 377, 378, 379, 380, 381, 382, 383, 384, 385, 386, 387, 388, 389, 390, 391, 392, 393, 394, 395, 396, 397, 398, 399, 400, 401, 402, 403, 404, 405, 406, 407, 408, 409, 410, 411, 412, 413, 414, 415, 416, 417, 418, 419, 420, 421, 422, 423, 424, 425, 426, 427, 428, 429, 430, 431, 432, 433, 434, 435, 436, 437, 438, 439, 440, 441, 442, 443, 444, 445, 446, 447, 448, 449, 450, 451, 452, 453, 454, 455, 456, 457, 458, 459, 460, 461, 462, 463, 464, 465, 466, 467, 468, 469, 470, 471, 472, 473, 474, 475, 476, 477, 478, 479, 480, 481, 482, 483, 484, 485, 486, 487, 488, 489, 490, 491, 492, 493, 494],
      "AcquisitionTime": ["181717.167500", "181718.657500", "181720.147500", "181721.637500", "181723.127500", "181724.617500", "181726.107500", "181727.597500", "181729.087500", "181730.577500", "181732.067500", "181733.557500", "181735.047500", "181736.537500", "181738.027500", "181739.517500", "181741.007500", "181742.497500", "181743.987500", "181745.477500", "181746.967500", "181748.457500", "181749.947500", "181751.437500", "181752.927500", "181754.417500", "181755.907500", "181757.397500", "181758.887500", "181800.377500", "181801.867500", "181803.357500", "181804.847500", "181806.337500", "181807.827500", "181809.317500", "181810.807500", "181812.297500", "181813.787500", "181815.277500", "181816.767500", "181818.257500", "181819.747500", "181821.237500", "181822.727500", "181824.217500", "181825.707500", "181827.197500", "181828.687500", "181830.177500", "181831.667500", "181833.157500", "181834.647500", "181836.137500", "181837.627500", "181839.117500", "181840.607500", "181842.097500", "181843.587500", "181845.077500", "181846.567500", "181848.057500", "181849.547500", "181851.037500", "181852.527500", "181854.017500", "181855.507500", "181856.997500", "181858.487500", "181859.977500", "181901.467500", "181902.957500", "181904.447500", "181905.937500", "181907.427500", "181908.917500", "181910.407500", "181911.897500", "181913.387500", "181914.877500", "181916.367500", "181917.857500", "181919.347500", "181920.837500", "181922.327500", "181923.817500", "181925.307500", "181926.797500", "181928.287500", "181929.777500", "181931.267500", "181932.757500", "181934.247500", "181935.737500", "181937.227500", "181938.717500", "181940.207500", "181941.697500", "181943.187500", "181944.677500", "181946.167500", "181947.657500", "181949.147500", "181950.637500", "181952.127500", "181953.617500", "181955.107500", "181956.597500", "181958.087500", "181959.577500", "182001.067500", "182002.557500", "182004.047500", "182005.537500", "182007.027500", "182008.517500", "182010.007500", "182011.497500", "182012.987500", "182014.477500", "182015.967500", "182017.457500", "182018.947500", "182020.437500", "182021.927500", "182023.417500", "182024.907500", "182026.397500", "182027.887500", "182029.377500", "182030.867500", "182032.357500", "182033.847500", "182035.337500", "182036.827500", "182038.317500", "182039.807500", "182041.297500", "182042.787500", "182044.277500", "182045.767500", "182047.257500", "182048.747500", "182050.237500", "182051.727500", "182053.217500", "182054.707500", "182056.197500", "182057.687500", "182059.177500", "182100.667500", "182102.157500", "182103.647500", "182105.137500", "182106.627500", "182108.117500", "182109.607500", "182111.097500", "182112.587500", "182114.077500", "182115.567500", "182117.057500", "182118.547500", "182120.037500", "182121.527500", "182123.017500", "182124.507500", "182125.997500", "182127.487500", "182128.977500", "182130.467500", "182131.957500", "182133.447500", "182134.937500", "182136.427500", "182137.917500", "182139.407500", "182140.897500", "182142.387500", "182143.877500", "182145.367500", "182146.857500", "182148.347500", "182149.837500", "182151.327500", "182152.817500", "182154.307500", "182155.797500", "182157.287500", "182158.777500", "182200.267500", "182201.757500", "182203.247500", "182204.737500", "182206.227500", "182207.717500", "182209.207500", "182210.697500", "182212.187500", "182213.677500", "182215.167500", "182216.657500", "182218.147500", "182219.637500", "182221.127500", "182222.617500", "182224.107500", "182225.597500", "182227.087500", "182228.577500", "182230.067500", "182231.557500", "182233.047500", "182234.537500", "182236.027500", "182237.517500", "182239.007500", "182240.497500", "182241.987500", "182243.477500", "182244.967500", "182246.457500", "182247.947500", "182249.437500", "182250.927500", "182252.417500", "182253.907500", "182255.397500", "182256.887500", "182258.377500", "182259.867500", "182301.357500", "182302.847500", "182304.337500", "182305.827500", "182307.317500", "182308.807500", "182310.297500", "182311.787500", "182313.277500", "182314.767500", "182316.257500", "182317.747500", "182319.237500", "182320.727500", "182322.217500", "182323.707500", "182325.197500", "182326.687500", "182328.177500", "182329.667500", "182331.157500", "182332.647500", "182334.137500", "182335.627500", "182337.117500", "182338.607500", "182340.097500", "182341.587500", "182343.077500", "182344.567500", "182346.057500", "182347.547500", "182349.037500", "182350.527500", "182352.017500", "182353.507500", "182354.997500", "182356.487500", "182357.977500", "182359.467500", "182400.957500", "182402.447500", "182403.937500", "182405.427500", "182406.917500", "182408.407500", "182409.897500", "182411.387500", "182412.877500", "182414.367500", "182415.857500", "182417.347500", "182418.837500", "182420.327500", "182421.817500", "182423.307500", "182424.797500", "182426.287500", "182427.777500", "182429.267500", "182430.757500", "182432.247500", "182433.737500", "182435.227500", "182436.717500", "182438.207500", "182439.697500", "182441.187500", "182442.677500", "182444.167500", "182445.657500", "182447.147500", "182448.637500", "182450.127500", "182451.617500", "182453.107500", "182454.597500", "182456.087500", "182457.577500", "182459.067500", "182500.557500", "182502.047500", "182503.537500", "182505.027500", "182506.517500", "182508.007500", "182509.497500", "182510.987500", "182512.477500", "182513.967500", "182515.457500", "182516.947500", "182518.437500", "182519.927500", "182521.417500", "182522.907500", "182524.397500", "182525.887500", "182527.377500", "182528.867500", "182530.357500", "182531.847500", "182533.337500", "182534.827500", "182536.317500", "182537.807500", "182539.297500", "182540.787500", "182542.277500", "182543.767500", "182545.257500", "182546.747500", "182548.237500", "182549.727500", "182551.217500", "182552.707500", "182554.197500", "182555.687500", "182557.177500", "182558.667500", "182600.157500", "182601.647500", "182603.137500", "182604.627500", "182606.117500", "182607.607500", "182609.097500", "182610.587500", "182612.077500", "182613.567500", "182615.057500", "182616.547500", "182618.037500", "182619.527500", "182621.017500", "182622.507500", "182623.997500", "182625.487500", "182626.977500", "182628.467500", "182629.957500", "182631.447500", "182632.937500", "182634.427500", "182635.917500", "182637.407500", "182638.897500", "182640.387500", "182641.877500", "182643.367500", "182644.857500", "182646.347500", "182647.837500", "182649.327500", "182650.817500", "182652.307500", "182653.797500", "182655.287500", "182656.777500", "182658.267500", "182659.757500", "182701.247500", "182702.737500", "182704.227500", "182705.717500", "182707.207500", "182708.697500", "182710.187500", "182711.677500", "182713.167500", "182714.657500", "182716.147500", "182717.637500", "182719.127500", "182720.617500", "182722.107500", "182723.597500", "182725.087500", "182726.577500", "182728.067500", "182729.557500", "182731.047500", "182732.537500", "182734.027500", "182735.517500", "182737.007500", "182738.497500", "182739.987500", "182741.477500", "182742.967500", "182744.457500", "182745.947500", "182747.437500", "182748.927500", "182750.417500", "182751.907500", "182753.397500", "182754.887500", "182756.377500", "182757.867500", "182759.357500", "182800.847500", "182802.337500", "182803.827500", "182805.317500", "182806.807500", "182808.297500", "182809.787500", "182811.277500", "182812.767500", "182814.257500", "182815.747500", "182817.237500", "182818.727500", "182820.217500", "182821.707500", "182823.197500", "182824.687500", "182826.177500", "182827.667500", "182829.157500", "182830.647500", "182832.137500", "182833.627500", "182835.117500", "182836.607500", "182838.097500", "182839.587500", "182841.077500", "182842.567500", "182844.057500", "182845.547500", "182847.037500", "182848.527500", "182850.017500", "182851.507500", "182852.997500", "182854.487500", "182855.977500", "182857.467500", "182858.957500", "182900.447500", "182901.937500", "182903.427500", "182904.917500", "182906.407500", "182907.897500", "182909.387500", "182910.877500", "182912.367500", "182913.857500", "182915.347500", "182916.837500", "182918.327500", "182919.817500", "182921.307500", "182922.797500", "182924.287500", "182925.777500", "182927.267500", "182928.757500", "182930.247500", "182931.737500"],
      "ContentTime": ["181840.142000", "181840.146000", "181840.149000", "181840.153000", "181840.156000", "181840.159000", "181840.163000", "181840.166000", "181840.169000", "181840.176000", "181840.179000", "181840.183000", "181840.186000", "181840.189000", "181840.192000", "181840.196000", "181840.199000", "181840.202000", "181840.205000", "181840.209000", "181840.212000", "181840.215000", "181840.219000", "181840.222000", "181840.225000", "181840.228000", "181840.232000", "181840.235000", "181900.109000", "181900.113000", "181900.116000", "181900.119000", "181900.123000", "181900.126000", "181900.129000", "181900.132000", "181900.136000", "181900.148000", "181900.151000", "181900.154000", "181900.157000", "181900.161000", "181900.164000", "181900.167000", "181900.171000", "181900.174000", "181900.177000", "181900.180000", "181920.108000", "181920.112000", "181920.115000", "181920.118000", "181920.122000", "181920.125000", "181920.128000", "181920.132000", "181920.135000", "181920.146000", "181920.150000", "181920.153000", "181920.156000", "181920.160000", "181920.163000", "181920.166000", "181920.170000", "181920.173000", "181920.176000", "181920.179000", "181920.183000", "181940.108000", "181940.112000", "181940.115000", "181940.119000", "181940.122000", "181940.125000", "181940.129000", "181940.132000", "181940.135000", "181940.138000", "181940.142000", "181940.145000", "181940.148000", "181940.152000", "181940.158000", "181940.161000", "181940.164000", "181940.168000", "181940.171000", "181940.174000", "182020.109000", "182020.113000", "182020.116000", "182020.120000", "182020.131000", "182020.134000", "182020.138000", "182020.141000", "182020.144000", "182020.148000", "182020.151000", "182020.168000", "182020.172000", "182020.175000", "182020.178000", "182020.182000", "182020.185000", "182020.188000", "182020.192000", "182020.195000", "182020.198000", "182020.202000", "182020.205000", "182020.208000", "182020.212000", "182020.215000", "182020.218000", "182020.222000", "182020.225000", "182020.228000", "182020.232000", "182020.235000", "182020.238000", "182100.109000", "182100.113000", "182100.116000", "182100.119000", "182100.123000", "182100.126000", "182100.130000", "182100.133000", "182100.136000", "182100.139000", "182100.143000", "182100.146000", "182100.149000", "182100.153000", "182100.156000", "182100.159000", "182100.163000", "182100.166000", "182100.169000", "182100.173000", "182100.176000", "182100.179000", "182100.182000", "182100.186000", "182100.189000", "182100.192000", "182140.108000", "182140.112000", "182140.115000", "182140.119000", "182140.122000", "182140.125000", "182140.129000", "182140.132000", "182140.136000", "182140.140000", "182140.143000", "182140.146000", "182140.150000", "182140.153000", "182140.156000", "182140.160000", "182140.163000", "182140.166000", "182140.170000", "182140.173000", "182140.176000", "182140.180000", "182140.183000", "182140.186000", "182140.190000", "182140.193000", "182140.196000", "182200.108000", "182200.112000", "182200.115000", "182200.119000", "182200.122000", "182200.125000", "182200.129000", "182200.132000", "182200.135000", "182200.139000", "182200.142000", "182200.145000", "182200.149000", "182200.152000", "182240.109000", "182240.113000", "182240.116000", "182240.119000", "182240.123000", "182240.126000", "182240.130000", "182240.133000", "182240.136000", "182240.139000", "182240.143000", "182240.156000", "182240.160000", "182240.163000", "182240.166000", "182240.170000", "182240.173000", "182240.176000", "182240.180000", "182240.183000", "182240.186000", "182240.190000", "182240.193000", "182240.196000", "182240.200000", "182240.203000", "182240.206000", "182320.109000", "182320.113000", "182320.116000", "182320.120000", "182320.123000", "182320.126000", "182320.130000", "182320.134000", "182320.137000", "182320.141000", "182320.144000", "182320.148000", "182320.151000", "182320.154000", "182320.158000", "182320.161000", "182320.164000", "182320.167000", "182320.171000", "182320.174000", "182320.177000", "182320.181000", "182320.184000", "182320.187000", "182320.191000", "182320.194000", "182400.108000", "182400.112000", "182400.115000", "182400.118000", "182400.122000", "182400.125000", "182400.128000", "182400.132000", "182400.135000", "182400.138000", "182400.142000", "182400.145000", "182400.148000", "182400.152000", "182400.155000", "182400.158000", "182400.162000", "182400.165000", "182400.168000", "182400.171000", "182400.175000", "182400.178000", "182400.181000", "182400.185000", "182400.188000", "182400.191000", "182400.195000", "182440.109000", "182440.113000", "182440.116000", "182440.120000", "182440.123000", "182440.126000", "182440.130000", "182440.133000", "182440.136000", "182440.140000", "182440.143000", "182440.146000", "182440.150000", "182440.153000", "182440.157000", "182440.160000", "182440.163000", "182440.167000", "182440.170000", "182440.174000", "182440.177000", "182440.180000", "182440.183000", "182440.187000", "182440.190000", "182440.194000", "182440.198000", "182520.109000", "182520.113000", "182520.116000", "182520.136000", "182520.139000", "182520.143000", "182520.146000", "182520.149000", "182520.152000", "182520.156000", "182520.159000", "182520.163000", "182520.166000", "182520.170000", "182520.173000", "182520.176000", "182520.180000", "182520.183000", "182520.186000", "182520.190000", "182520.193000", "182520.196000", "182520.200000", "182520.203000", "182520.206000", "182520.210000", "182520.213000", "182600.108000", "182600.112000", "182600.115000", "182600.119000", "182600.122000", "182600.125000", "182600.129000", "182600.132000", "182600.135000", "182600.139000", "182600.142000", "182600.145000", "182600.149000", "182600.152000", "182600.155000", "182600.159000", "182600.162000", "182600.165000", "182600.169000", "182600.172000", "182600.175000", "182600.179000", "182600.182000", "182600.185000", "182600.189000", "182600.192000", "182600.195000", "182640.108000", "182640.112000", "182640.115000", "182640.119000", "182640.122000", "182640.125000", "182640.129000", "182640.132000", "182640.135000", "182640.139000", "182640.142000", "182640.145000", "182640.149000", "182640.152000", "182640.155000", "182640.159000", "182640.162000", "182640.165000", "182640.169000", "182640.172000", "182640.175000", "182640.179000", "182640.182000", "182640.187000", "182640.190000", "182640.193000", "182640.197000", "182720.109000", "182720.113000", "182720.116000", "182720.120000", "182720.123000", "182720.127000", "182720.130000", "182720.133000", "182720.136000", "182720.141000", "182720.161000", "182720.165000", "182720.168000", "182720.172000", "182720.175000", "182720.178000", "182720.182000", "182720.185000", "182720.188000", "182720.192000", "182720.195000", "182720.198000", "182720.202000", "182720.205000", "182720.208000", "182720.212000", "182800.109000", "182800.113000", "182800.116000", "182800.120000", "182800.123000", "182800.126000", "182800.130000", "182800.133000", "182800.136000", "182800.139000", "182800.143000", "182800.146000", "182800.150000", "182800.153000", "182800.156000", "182800.159000", "182800.163000", "182800.166000", "182800.169000", "182800.173000", "182800.176000", "182800.180000", "182800.183000", "182800.186000", "182800.189000", "182800.193000", "182800.196000", "182840.108000", "182840.112000", "182840.115000", "182840.119000", "182840.122000", "182840.125000", "182840.129000", "182840.132000", "182840.135000", "182840.139000", "182840.142000", "182840.145000", "182840.149000", "182840.152000", "182840.155000", "182840.159000", "182840.162000", "182840.165000", "182840.169000", "182840.172000", "182840.175000", "182840.179000", "182840.182000", "182840.185000", "182840.189000", "182840.192000", "182840.195000", "182920.109000", "182920.113000", "182920.116000", "182920.120000", "182920.123000", "182920.126000", "182920.130000", "182920.133000", "182920.136000", "182920.140000", "182920.143000", "182920.146000", "182920.150000", "182920.153000", "182920.156000", "182920.160000", "182920.163000", "182920.166000", "182920.175000", "182920.179000", "182920.182000", "182920.185000", "182920.189000", "182920.192000", "182920.195000", "182920.198000", "182920.202000", "182934.492000", "182934.495000", "182934.499000", "182934.502000", "182934.505000", "182934.509000", "182934.512000", "182934.515000", "182934.518000", "182934.522000"],
