{
  "AcquisitionMatrixPE": 104,
  "AcquisitionNumber": 1,
  "AcquisitionTime": "17:52:31.187500",
  "BandwidthPerPixelPhaseEncode": 17.17,
  "BaseResolution": 104,
  "BodyPartExamined": "BRAIN",
  "CoilCombinationMethod": "Sum of Squares",
  "ConsistencyInfo": "N4_VE11C_LATEST_20160120",
  "ConversionSoftware": "dcm2niix",
  "ConversionSoftwareVersion": "v1.0.20211006",
  "DerivedVendorReportedEchoSpacing": 0.000560011,
  "DeviceSerialNumber": "167006",
  "DwellTime": 2.1e-06,
  "EchoTime": 0.037,
  "EchoTrainLength": 104,
  "EffectiveEchoSpacing": 0.000560011,
  "FlipAngle": 52,
  "HeudiconvVersion": "0.10.0",
  "ImageComments": "Unaliased MB4/PE3/LB",
  "ImageOrientationPatientDICOM": [0.999471, 0.0121547, 0.0301801, -0.00279102, 0.956209, -0.292673],
  "ImageOrientationText": "Tra>Cor(-17.0)>Sag(1.9)",
  "ImageType": [
    "ORIGINAL",
    "PRIMARY",
    "M",
    "MB",
    "ND",
    "MOSAIC"
],
  "ImagingFrequency": 123.259,
  "InPlanePhaseEncodingDirectionDICOM": "COL",
  "InstitutionAddress": "Chemin Queen-Mary 4565,Montreal,District,CA,H3W 1W5",
  "InstitutionName": "IUGM",
  "InstitutionalDepartmentName": "Department",
  "MRAcquisitionType": "2D",
  "MagneticFieldStrength": 3,
  "Manufacturer": "Siemens",
  "ManufacturersModelName": "Prisma_fit",
  "MatrixCoilMode": "SENSE",
  "Modality": "MR",
  "MultibandAccelerationFactor": 4,
  "PartialFourier": 1,
  "PatientPosition": "HFS",
  "PercentPhaseFOV": 100,
  "PercentSampling": 100,
  "PhaseEncodingDirection": "j",
  "PhaseEncodingSteps": 104,
  "PhaseResolution": 1,
  "PixelBandwidth": 2290,
  "ProcedureStepDescription": "games^mario",
  "ProtocolName": "func_task-mario_run-02",
  "PulseSequenceDetails": "%CustomerSeq%\\cmrr_mbep2d_bold",
  "ReceiveCoilActiveElements": "HC1-7;NC1,2",
  "ReceiveCoilName": "HeadNeck_64",
  "ReconMatrixPE": 104,
  "RepetitionTime": 1.49,
  "SAR": 0.0600363,
  "ScanOptions": "FS",
  "ScanningSequence": "EP",
  "SequenceName": "epfid2d1_104",
  "SequenceVariant": "SK\\SS",
  "SeriesDescription": "func_task-mario_run-02",
  "SeriesNumber": 13,
  "ShimSetting": [641, -7200, -8751, 711, 61, 35, 31, -17],
  "SliceThickness": 2,
  "SliceTiming": [0, 0.785, 0.0975, 0.8825, 0.195, 0.98, 0.295, 1.0775, 0.3925, 1.175, 0.49, 1.275, 0.5875, 1.3725, 0.685, 0, 0.785, 0.0975, 0.8825, 0.195, 0.98, 0.295, 1.0775, 0.3925, 1.175, 0.49, 1.275, 0.5875, 1.3725, 0.685, 0, 0.785, 0.0975, 0.8825, 0.195, 0.98, 0.295, 1.0775, 0.3925, 1.175, 0.49, 1.275, 0.5875, 1.3725, 0.685, 0, 0.785, 0.0975, 0.8825, 0.195, 0.98, 0.295, 1.0775, 0.3925, 1.175, 0.49, 1.275, 0.5875, 1.3725, 0.685],
  "SoftwareVersions": "syngo MR E11",
  "SpacingBetweenSlices": 2,
  "StationName": "MRC35049",
  "TaskName": "mario",
  "TotalReadoutTime": 0.0576811,
  "TxRefAmp": 256.558,
  "WipMemBlock": "0545815b-8760-4b3f-b21e-f60f24c0ab20||Sequence: R016 ve11c/master r/e634e98; Dec 19 2017 11:00:25 by eja",
  "dcmmeta_affine": [
    [-1.99894118309021, -0.005582038313150406, 0.06483164429664612, 107.74269104003906],
    [-0.024309426546096802, 1.9124170541763306, -0.5848676562309265, -69.94860076904297],
    [0.06036018952727318, 0.585345983505249, 1.9114724397659302, -58.56145477294922],
    [0.0, 0.0, 0.0, 1.0]
],
  "dcmmeta_reorient_transform": [
    [0.0, -1.0, 0.0, 103.0],
    [1.0, 0.0, 0.0, 0.0],
    [0.0, 0.0, 1.0, 0.0],
    [0.0, 0.0, 0.0, 1.0]
],
  "dcmmeta_shape": [104, 104, 60, 440],
  "dcmmeta_slice_dim": 2,
  "dcmmeta_version": 0.6,
  "global": {
    "const": {
      "AcquisitionMatrix": [104, 0, 0, 104],
      "AngioFlag": "N",
      "BitsAllocated": 16,
      "BitsStored": 16,
      "BodyPartExamined": "BRAIN",
      "Columns": 832,
      "EchoNumbers": 1,
      "EchoTime": 37.0,
      "EchoTrainLength": 104,
      "FlipAngle": 52.0,
      "HighBit": 15,
      "ImageOrientationPatient": [0.99947057227739, 0.01215471327788, 0.03018009437764, -0.0027910192566, 0.95620851590001, -0.2926729989798],
      "ImagePositionPatient": [-832.75045464352, -831.99878239012, 192.8240168255],
      "ImageType": [
        "ORIGINAL",
        "PRIMARY",
        "M",
        "MB",
        "ND",
        "MOSAIC"
],
      "ImagedNucleus": "1H",
      "ImagingFrequency": 123.258851,
      "InPlanePhaseEncodingDirection": "COL",
      "MRAcquisitionType": "2D",
      "MagneticFieldStrength": 3.0,
      "Manufacturer": "SIEMENS",
      "ManufacturerModelName": "Prisma_fit",
      "Modality": "MR",
      "NumberOfAverages": 1.0,
      "NumberOfPhaseEncodingSteps": 104,
      "PercentPhaseFieldOfView": 100.0,
      "PercentSampling": 100.0,
      "PerformedProcedureStepStartTime": "172106.984000",
      "PhotometricInterpretation": "MONOCHROME2",
      "PixelBandwidth": 2290.0,
      "PixelRepresentation": 0,
      "PixelSpacing": [2.0, 2.0],
      "ProtocolName": "func_task-mario_run-02",
      "RepetitionTime": 1490.0,
      "Rows": 832,
      "SAR": 0.06003631899914,
      "SamplesPerPixel": 1,
      "ScanOptions": "FS",
      "ScanningSequence": "EP",
      "SequenceName": "epfid2d1_104",
      "SequenceVariant": [
        "SK",
        "SS"
],
      "SeriesDescription": "func_task-mario_run-02",
      "SeriesNumber": 13,
      "SeriesTime": "175345.490000",
      "SliceLocation": -32.021398298189,
      "SliceThickness": 2.0,
      "SmallestImagePixelValue": 0,
      "SoftwareVersions": "syngo MR E11",
      "SpacingBetweenSlices": 2.0000000516634,
      "SpecificCharacterSet": "ISO_IR 100",
      "StudyID": "1",
      "StudyTime": "172106.918000",
      "TransmitCoilName": "Body",
      "VariableFlipAngleFlag": "N",
      "WindowCenterWidthExplanation": "Algo1",
      "dBdt": 0.0},
    "slices": {}
  },
  "time": {
    "samples": {
      "AcquisitionNumber": [1, 2, 3, 4, 5, 6, 7, 8, 9, 10, 11, 12, 13, 14, 15, 16, 17, 18, 19, 20, 21, 22, 23, 24, 25, 26, 27, 28, 29, 30, 31, 32, 33, 34, 35, 36, 37, 38, 39, 40, 41, 42, 43, 44, 45, 46, 47, 48, 49, 50, 51, 52, 53, 54, 55, 56, 57, 58, 59, 60, 61, 62, 63, 64, 65, 66, 67, 68, 69, 70, 71, 72, 73, 74, 75, 76, 77, 78, 79, 80, 81, 82, 83, 84, 85, 86, 87, 88, 89, 90, 91, 92, 93, 94, 95, 96, 97, 98, 99, 100, 101, 102, 103, 104, 105, 106, 107, 108, 109, 110, 111, 112, 113, 114, 115, 116, 117, 118, 119, 120, 121, 122, 123, 124, 125, 126, 127, 128, 129, 130, 131, 132, 133, 134, 135, 136, 137, 138, 139, 140, 141, 142, 143, 144, 145, 146, 147, 148, 149, 150, 151, 152, 153, 154, 155, 156, 157, 158, 159, 160, 161, 162, 163, 164, 165, 166, 167, 168, 169, 170, 171, 172, 173, 174, 175, 176, 177, 178, 179, 180, 181, 182, 183, 184, 185, 186, 187, 188, 189, 190, 191, 192, 193, 194, 195, 196, 197, 198, 199, 200, 201, 202, 203, 204, 205, 206, 207, 208, 209, 210, 211, 212, 213, 214, 215, 216, 217, 218, 219, 220, 221, 222, 223, 224, 225, 226, 227, 228, 229, 230, 231, 232, 233, 234, 235, 236, 237, 238, 239, 240, 241, 242, 243, 244, 245, 246, 247, 248, 249, 250, 251, 252, 253, 254, 255, 256, 257, 258, 259, 260, 261, 262, 263, 264, 265, 266, 267, 268, 269, 270, 271, 272, 273, 274, 275, 276, 277, 278, 279, 280, 281, 282, 283, 284, 285, 286, 287, 288, 289, 290, 291, 292, 293, 294, 295, 296, 297, 298, 299, 300, 301, 302, 303, 304, 305, 306, 307, 308, 309, 310, 311, 312, 313, 314, 315, 316, 317, 318, 319, 320, 321, 322, 323, 324, 325, 326, 327, 328, 329, 330, 331, 332, 333, 334, 335, 336, 337, 338, 339, 340, 341, 342, 343, 344, 345, 346, 347, 348, 349, 350, 351, 352, 353, 354, 355, 356, 357, 358, 359, 360, 361, 362, 363, 364, 365, 366, 367, 368, 369, 370, 371, 372, 373, 374, 375, 376, 377, 378, 379, 380, 381, 382, 383, 384, 385, 386, 387, 388, 389, 390, 391, 392, 393, 394, 395, 396, 397, 398, 399, 400, 401, 402, 403, 404, 405, 406, 407, 408, 409, 410, 411, 412, 413, 414, 415, 416, 417, 418, 419, 420, 421, 422, 423, 424, 425, 426, 427, 428, 429, 430, 431, 432, 433, 434, 435, 436, 437, 438, 439, 440],
      "AcquisitionTime": ["175231.187500", "175232.677500", "175234.167500", "175235.657500", "175237.147500", "175238.637500", "175240.127500", "175241.617500", "175243.107500", "175244.597500", "175246.087500", "175247.577500", "175249.067500", "175250.557500", "175252.047500", "175253.537500", "175255.027500", "175256.517500", "175258.007500", "175259.497500", "175300.987500", "175302.477500", "175303.967500", "175305.457500", "175306.947500", "175308.437500", "175309.927500", "175311.417500", "175312.907500", "175314.397500", "175315.887500", "175317.377500", "175318.867500", "175320.357500", "175321.847500", "175323.337500", "175324.827500", "175326.317500", "175327.807500", "175329.297500", "175330.787500", "175332.277500", "175333.767500", "175335.257500", "175336.747500", "175338.237500", "175339.727500", "175341.217500", "175342.707500", "175344.197500", "175345.687500", "175347.177500", "175348.667500", "175350.157500", "175351.647500", "175353.137500", "175354.627500", "175356.117500", "175357.607500", "175359.097500", "175400.587500", "175402.077500", "175403.567500", "175405.057500", "175406.547500", "175408.037500", "175409.527500", "175411.017500", "175412.507500", "175413.997500", "175415.487500", "175416.977500", "175418.467500", "175419.957500", "175421.447500", "175422.937500", "175424.427500", "175425.917500", "175427.407500", "175428.897500", "175430.387500", "175431.877500", "175433.367500", "175434.857500", "175436.347500", "175437.837500", "175439.327500", "175440.817500", "175442.307500", "175443.797500", "175445.287500", "175446.777500", "175448.267500", "175449.757500", "175451.247500", "175452.737500", "175454.227500", "175455.717500", "175457.207500", "175458.697500", "175500.187500", "175501.677500", "175503.167500", "175504.657500", "175506.147500", "175507.637500", "175509.127500", "175510.617500", "175512.107500", "175513.597500", "175515.087500", "175516.577500", "175518.067500", "175519.557500", "175521.047500", "175522.537500", "175524.027500", "175525.517500", "175527.007500", "175528.497500", "175529.987500", "175531.477500", "175532.967500", "175534.457500", "175535.947500", "175537.437500", "175538.927500", "175540.417500", "175541.907500", "175543.397500", "175544.887500", "175546.377500", "175547.867500", "175549.357500", "175550.847500", "175552.337500", "175553.827500", "175555.317500", "175556.807500", "175558.297500", "175559.787500", "175601.277500", "175602.767500", "175604.257500", "175605.747500", "175607.237500", "175608.727500", "175610.217500", "175611.707500", "175613.197500", "175614.687500", "175616.177500", "175617.667500", "175619.157500", "175620.647500", "175622.137500", "175623.627500", "175625.117500", "175626.607500", "175628.097500", "175629.587500", "175631.077500", "175632.567500", "175634.057500", "175635.547500", "175637.037500", "175638.527500", "175640.017500", "175641.507500", "175642.997500", "175644.487500", "175645.977500", "175647.467500", "175648.957500", "175650.447500", "175651.937500", "175653.427500", "175654.917500", "175656.407500", "175657.897500", "175659.387500", "175700.877500", "175702.367500", "175703.857500", "175705.347500", "175706.837500", "175708.327500", "175709.817500", "175711.307500", "175712.797500", "175714.287500", "175715.777500", "175717.267500", "175718.757500", "175720.247500", "175721.737500", "175723.227500", "175724.717500", "175726.207500", "175727.697500", "175729.187500", "175730.677500", "175732.167500", "175733.657500", "175735.147500", "175736.637500", "175738.127500", "175739.617500", "175741.107500", "175742.597500", "175744.087500", "175745.577500", "175747.067500", "175748.557500", "175750.047500", "175751.537500", "175753.027500", "175754.517500", "175756.007500", "175757.497500", "175758.987500", "175800.477500", "175801.967500", "175803.457500", "175804.947500", "175806.437500", "175807.927500", "175809.417500", "175810.907500", "175812.397500", "175813.887500", "175815.377500", "175816.867500", "175818.357500", "175819.847500", "175821.337500", "175822.827500", "175824.317500", "175825.807500", "175827.297500", "175828.787500", "175830.277500", "175831.767500", "175833.257500", "175834.747500", "175836.237500", "175837.727500", "175839.217500", "175840.707500", "175842.197500", "175843.687500", "175845.177500", "175846.667500", "175848.157500", "175849.647500", "175851.137500", "175852.627500", "175854.117500", "175855.607500", "175857.097500", "175858.587500", "175900.077500", "175901.567500", "175903.057500", "175904.547500", "175906.037500", "175907.527500", "175909.017500", "175910.507500", "175911.997500", "175913.487500", "175914.977500", "175916.467500", "175917.957500", "175919.447500", "175920.937500", "175922.427500", "175923.917500", "175925.407500", "175926.897500", "175928.387500", "175929.877500", "175931.367500", "175932.857500", "175934.347500", "175935.837500", "175937.327500", "175938.817500", "175940.307500", "175941.797500", "175943.287500", "175944.777500", "175946.267500", "175947.757500", "175949.247500", "175950.737500", "175952.227500", "175953.717500", "175955.207500", "175956.697500", "175958.187500", "175959.677500", "180001.167500", "180002.657500", "180004.147500", "180005.637500", "180007.127500", "180008.617500", "180010.107500", "180011.597500", "180013.087500", "180014.577500", "180016.067500", "180017.557500", "180019.047500", "180020.537500", "180022.027500", "180023.517500", "180025.007500", "180026.497500", "180027.987500", "180029.477500", "180030.967500", "180032.457500", "180033.947500", "180035.437500", "180036.927500", "180038.417500", "180039.907500", "180041.397500", "180042.887500", "180044.377500", "180045.867500", "180047.357500", "180048.847500", "180050.337500", "180051.827500", "180053.317500", "180054.807500", "180056.297500", "180057.787500", "180059.277500", "180100.767500", "180102.257500", "180103.747500", "180105.237500", "180106.727500", "180108.217500", "180109.707500", "180111.197500", "180112.687500", "180114.177500", "180115.667500", "180117.157500", "180118.647500", "180120.137500", "180121.627500", "180123.117500", "180124.607500", "180126.097500", "180127.587500", "180129.077500", "180130.567500", "180132.057500", "180133.547500", "180135.037500", "180136.527500", "180138.017500", "180139.507500", "180140.997500", "180142.487500", "180143.977500", "180145.467500", "180146.957500", "180148.447500", "180149.937500", "180151.427500", "180152.917500", "180154.407500", "180155.897500", "180157.387500", "180158.877500", "180200.367500", "180201.857500", "180203.347500", "180204.837500", "180206.327500", "180207.817500", "180209.307500", "180210.797500", "180212.287500", "180213.777500", "180215.267500", "180216.757500", "180218.247500", "180219.737500", "180221.227500", "180222.717500", "180224.207500", "180225.697500", "180227.187500", "180228.677500", "180230.167500", "180231.657500", "180233.147500", "180234.637500", "180236.127500", "180237.617500", "180239.107500", "180240.597500", "180242.087500", "180243.577500", "180245.067500", "180246.557500", "180248.047500", "180249.537500", "180251.027500", "180252.517500", "180254.007500", "180255.497500", "180256.987500", "180258.477500", "180259.967500", "180301.457500", "180302.947500", "180304.437500", "180305.927500", "180307.417500", "180308.907500", "180310.397500", "180311.887500", "180313.377500", "180314.867500", "180316.357500", "180317.847500", "180319.337500", "180320.827500", "180322.317500", "180323.807500", "180325.297500"],
      "ContentTime": ["175345.493000", "175345.496000", "175345.500000", "175345.503000", "175345.506000", "175345.510000", "175345.513000", "175345.516000", "175345.519000", "175345.523000", "175345.526000", "175345.529000", "175345.532000", "175345.536000", "175345.539000", "175345.542000", "175345.546000", "175345.549000", "175345.552000", "175405.463000", "175405.467000", "175405.470000", "175405.473000", "175405.477000", "175405.480000", "175405.491000", "175405.494000", "175405.498000", "175405.501000", "175405.504000", "175405.507000", "175405.511000", "175405.514000", "175405.517000", "175405.520000", "175405.524000", "175405.527000", "175405.530000", "175405.533000", "175425.463000", "175425.467000", "175425.470000", "175425.473000", "175425.476000", "175425.480000", "175425.483000", "175425.486000", "175425.490000", "175425.493000", "175425.496000", "175425.499000", "175425.503000", "175425.506000", "175425.509000", "175425.528000", "175425.531000", "175425.534000", "175425.538000", "175425.541000", "175425.544000", "175445.463000", "175445.467000", "175445.470000", "175445.473000", "175445.476000", "175445.480000", "175445.483000", "175445.487000", "175445.490000", "175445.493000", "175445.496000", "175445.500000", "175445.503000", "175445.506000", "175445.509000", "175445.513000", "175445.516000", "175445.519000", "175445.523000", "175445.526000", "175505.463000", "175505.467000", "175505.470000", "175505.473000", "175505.476000", "175505.480000", "175505.483000", "175505.486000", "175505.490000", "175505.493000", "175505.496000", "175505.499000", "175505.503000", "175505.506000", "175505.509000", "175505.513000", "175505.516000", "175505.519000", "175505.522000", "175505.525000", "175545.463000", "175545.467000", "175545.470000", "175545.473000", "175545.477000", "175545.480000", "175545.483000", "175545.487000", "175545.490000", "175545.493000", "175545.497000", "175545.500000", "175545.503000", "175545.506000", "175545.510000", "175545.513000", "175545.516000", "175545.519000", "175545.523000", "175545.526000", "175545.529000", "175545.533000", "175545.536000", "175545.539000", "175545.543000", "175545.546000", "175545.549000", "175545.553000", "175545.556000", "175625.463000", "175625.467000", "175625.470000", "175625.473000", "175625.477000", "175625.480000", "175625.483000", "175625.487000", "175625.490000", "175625.493000", "175625.496000", "175625.500000", "175625.503000", "175625.506000", "175625.510000", "175625.513000", "175625.516000", "175625.520000", "175625.523000", "175625.526000", "175625.530000", "175625.533000", "175625.536000", "175625.539000", "175625.543000", "175625.546000", "175625.560000", "175705.463000", "175705.467000", "175705.470000", "175705.474000", "175705.477000", "175705.480000", "175705.484000", "175705.487000", "175705.490000", "175705.493000", "175705.497000", "175705.500000", "175705.504000", "175705.507000", "175705.510000", "175705.513000", "175705.517000", "175705.520000", "175705.523000", "175705.527000", "175705.530000", "175705.533000", "175705.537000", "175705.540000", "175705.543000", "175705.547000", "175705.550000", "175745.463000", "175745.467000", "175745.470000", "175745.473000", "175745.477000", "175745.480000", "175745.483000", "175745.486000", "175745.490000", "175745.493000", "175745.496000", "175745.500000", "175745.503000", "175745.515000", "175745.519000", "175745.522000", "175745.525000", "175745.528000", "175745.532000", "175745.535000", "175745.538000", "175745.542000", "175745.545000", "175745.548000", "175745.551000", "175745.555000", "175745.558000", "175825.462000", "175825.466000", "175825.469000", "175825.473000", "175825.476000", "175825.479000", "175825.482000", "175825.486000", "175825.489000", "175825.492000", "175825.496000", "175825.499000", "175825.502000", "175825.506000", "175825.509000", "175825.512000", "175825.516000", "175825.519000", "175825.522000", "175825.526000", "175825.529000", "175825.532000", "175825.535000", "175825.539000", "175825.542000", "175825.545000", "175825.549000", "175905.463000", "175905.467000", "175905.470000", "175905.474000", "175905.477000", "175905.480000", "175905.484000", "175905.487000", "175905.490000", "175905.493000", "175905.511000", "175905.515000", "175905.518000", "175905.521000", "175905.525000", "175905.528000", "175905.531000", "175905.535000", "175905.538000", "175905.541000", "175905.545000", "175905.548000", "175905.551000", "175905.554000", "175905.558000", "175905.561000", "175905.564000", "175945.463000", "175945.467000", "175945.470000", "175945.473000", "175945.477000", "175945.480000", "175945.483000", "175945.486000", "175945.490000", "175945.493000", "175945.496000", "175945.500000", "175945.503000", "175945.506000", "175945.510000", "175945.513000", "175945.516000", "175945.520000", "175945.523000", "175945.526000", "175945.530000", "175945.533000", "175945.536000", "175945.539000", "175945.543000", "175945.546000", "175945.549000", "180025.463000", "180025.467000", "180025.470000", "180025.473000", "180025.477000", "180025.480000", "180025.483000", "180025.487000", "180025.490000", "180025.493000", "180025.497000", "180025.500000", "180025.503000", "180025.507000", "180025.510000", "180025.513000", "180025.517000", "180025.520000", "180025.523000", "180025.527000", "180025.530000", "180025.534000", "180025.538000", "180025.541000", "180025.545000", "180025.548000", "180105.463000", "180105.467000", "180105.470000", "180105.474000", "180105.477000", "180105.480000", "180105.483000", "180105.487000", "180105.490000", "180105.494000", "180105.497000", "180105.500000", "180105.504000", "180105.507000", "180105.510000", "180105.526000", "180105.529000", "180105.533000", "180105.536000", "180105.539000", "180105.543000", "180105.546000", "180105.549000", "180105.553000", "180105.556000", "180105.559000", "180105.563000", "180145.463000", "180145.467000", "180145.470000", "180145.474000", "180145.477000", "180145.480000", "180145.483000", "180145.487000", "180145.490000", "180145.493000", "180145.497000", "180145.500000", "180145.503000", "180145.507000", "180145.510000", "180145.513000", "180145.517000", "180145.520000", "180145.523000", "180145.527000", "180145.530000", "180145.533000", "180145.537000", "180145.540000", "180145.543000", "180145.546000", "180145.550000", "180205.463000", "180205.467000", "180205.470000", "180205.474000", "180205.477000", "180205.480000", "180205.485000", "180205.489000", "180205.492000", "180205.495000", "180205.499000", "180205.502000", "180205.505000", "180245.463000", "180245.467000", "180245.470000", "180245.474000", "180245.477000", "180245.480000", "180245.484000", "180245.487000", "180245.490000", "180245.493000", "180245.497000", "180245.500000", "180245.503000", "180245.507000", "180245.510000", "180245.513000", "180245.517000", "180245.520000", "180245.523000", "180245.527000", "180245.530000", "180245.533000", "180245.537000", "180245.540000", "180245.543000", "180245.546000", "180245.550000", "180325.463000", "180325.467000", "180325.470000", "180325.474000", "180325.477000", "180325.480000", "180325.484000", "180325.487000", "180325.490000", "180325.494000", "180325.497000", "180325.500000", "180325.503000", "180325.507000", "180325.510000", "180325.513000", "180325.517000", "180325.520000", "180325.523000", "180325.527000", "180325.530000", "180325.533000", "180325.537000", "180325.540000", "180325.543000", "180325.560000", "180325.564000", "180328.095000", "180328.099000"],
