{
  "AcquisitionMatrixPE": 104,
  "AcquisitionNumber": 1,
  "AcquisitionTime": "17:58:5.617500",
  "BandwidthPerPixelPhaseEncode": 17.17,
  "BaseResolution": 104,
  "BodyPartExamined": "BRAIN",
  "CoilCombinationMethod": "Sum of Squares",
  "ConsistencyInfo": "N4_VE11C_LATEST_20160120",
  "ConversionSoftware": "dcm2niix",
  "ConversionSoftwareVersion": "v1.0.20211006",
  "DerivedVendorReportedEchoSpacing": 0.000560011,
  "DeviceSerialNumber": "167006",
  "DwellTime": 2.1e-06,
  "EchoTime": 0.037,
  "EchoTime1": 0.037,
  "EchoTime2": 0.001,
  "EchoTrainLength": 104,
  "EffectiveEchoSpacing": 0.000560011,
  "FlipAngle": 52,
  "HeudiconvVersion": "0.10.0",
  "ImageComments": "Unaliased MB4/PE3/LB",
  "ImageOrientationPatientDICOM": [0.995292, 0.08708, 0.0425635, -0.0607002, 0.90235, -0.426709],
  "ImageOrientationText": "Tra>Cor(-25.0)>Sag(4.3)",
  "ImageType": [
    "ORIGINAL",
    "PRIMARY",
    "P",
    "MB",
    "ND",
    "MOSAIC",
    "PHASE"
],
  "ImagingFrequency": 123.259,
  "InPlanePhaseEncodingDirectionDICOM": "COL",
  "InstitutionAddress": "Chemin Queen-Mary 4565,Montreal,District,CA,H3W 1W5",
  "InstitutionName": "IUGM",
  "InstitutionalDepartmentName": "Department",
  "MRAcquisitionType": "2D",
  "MagneticFieldStrength": 3,
  "Manufacturer": "Siemens",
  "ManufacturersModelName": "Prisma_fit",
  "MatrixCoilMode": "SENSE",
  "Modality": "MR",
  "MultibandAccelerationFactor": 4,
  "PartialFourier": 1,
  "PatientPosition": "HFS",
  "PercentPhaseFOV": 100,
  "PercentSampling": 100,
  "PhaseEncodingDirection": "j",
  "PhaseEncodingSteps": 104,
  "PhaseResolution": 1,
  "PixelBandwidth": 2290,
  "ProcedureStepDescription": "games^mario",
  "ProtocolName": "func_task-mario_run-03",
  "PulseSequenceDetails": "%CustomerSeq%\\cmrr_mbep2d_bold",
  "ReceiveCoilActiveElements": "HC1-7;NC1,2",
  "ReceiveCoilName": "HeadNeck_64",
  "ReconMatrixPE": 104,
  "RepetitionTime": 1.49,
  "SAR": 0.0636986,
  "ScanOptions": "FS",
  "ScanningSequence": "EP",
  "SequenceName": "epfid2d1_104",
  "SequenceVariant": "SK\\SS",
  "SeriesDescription": "func_task-mario_run-03",
  "SeriesNumber": 17,
  "ShimSetting": [630, -7172, -8798, 616, 65, -1, -116, -1],
  "SliceThickness": 2,
  "SliceTiming": [0, 0.7825, 0.0975, 0.88, 0.195, 0.98, 0.2925, 1.0775, 0.39, 1.175, 0.49, 1.2725, 0.5875, 1.37, 0.685, 0, 0.7825, 0.0975, 0.88, 0.195, 0.98, 0.2925, 1.0775, 0.39, 1.175, 0.49, 1.2725, 0.5875, 1.37, 0.685, 0, 0.7825, 0.0975, 0.88, 0.195, 0.98, 0.2925, 1.0775, 0.39, 1.175, 0.49, 1.2725, 0.5875, 1.37, 0.685, 0, 0.7825, 0.0975, 0.88, 0.195, 0.98, 0.2925, 1.0775, 0.39, 1.175, 0.49, 1.2725, 0.5875, 1.37, 0.685],
  "SoftwareVersions": "syngo MR E11",
  "SpacingBetweenSlices": 2,
  "StationName": "MRC35049",
  "TaskName": "mario",
  "TotalReadoutTime": 0.0576811,
  "TxRefAmp": 302.651,
  "WipMemBlock": "c4899986-e910-4248-bc2b-35340b296d9a||Sequence: R016 ve11c/master r/e634e98; Dec 19 2017 11:00:25 by eja",
  "dcmmeta_affine": [
    [-1.9905833005905151, -0.12140049040317535, 0.15112987160682678, 108.42500305175781],
    [-0.17416004836559296, 1.8046996593475342, -0.8442317247390747, -45.90343475341797],
    [0.08512693643569946, 0.853417158126831, 1.8067740201950073, -67.22602081298828],
    [0.0, 0.0, 0.0, 1.0]
],
  "dcmmeta_reorient_transform": [
    [0.0, -1.0, 0.0, 103.0],
    [1.0, 0.0, 0.0, 0.0],
    [0.0, 0.0, 1.0, 0.0],
    [0.0, 0.0, 0.0, 1.0]
],
  "dcmmeta_shape": [104, 104, 60, 441],
  "dcmmeta_slice_dim": 2,
  "dcmmeta_version": 0.6,
  "global": {
    "const": {
      "AcquisitionMatrix": [104, 0, 0, 104],
      "AngioFlag": "N",
      "BitsAllocated": 16,
      "BitsStored": 16,
      "BodyPartExamined": "BRAIN",
      "Columns": 832,
      "EchoNumbers": 1,
      "EchoTime": 37.0,
      "EchoTrainLength": 104,
      "FlipAngle": 52.0,
      "HighBit": 15,
      "ImageOrientationPatient": [0.99529162606503, 0.08708002130633, 0.04256346994925, -0.0607002464055, 0.90234985793912, -0.426708582013],
      "ImagePositionPatient": [-776.30327886186, -860.28558888402, 300.33358866002],
      "ImageType": [
        "ORIGINAL",
        "PRIMARY",
        "P",
        "MB",
        "ND",
        "MOSAIC"
],
      "ImagedNucleus": "1H",
      "ImagingFrequency": 123.258852,
      "InPlanePhaseEncodingDirection": "COL",
      "LargestImagePixelValue": 4095,
      "MRAcquisitionType": "2D",
      "MagneticFieldStrength": 3.0,
      "Manufacturer": "SIEMENS",
      "ManufacturerModelName": "Prisma_fit",
      "Modality": "MR",
      "NumberOfAverages": 1.0,
      "NumberOfPhaseEncodingSteps": 104,
      "PercentPhaseFieldOfView": 100.0,
      "PercentSampling": 100.0,
      "PerformedProcedureStepStartTime": "172117.525000",
      "PhotometricInterpretation": "MONOCHROME2",
      "PixelBandwidth": 2290.0,
      "PixelRepresentation": 0,
      "PixelSpacing": [2.0, 2.0],
      "ProtocolName": "func_task-mario_run-03",
      "RepetitionTime": 1490.0,
      "RescaleIntercept": -4096.0,
      "RescaleSlope": 2.0,
      "RescaleType": "US",
      "Rows": 832,
      "SAR": 0.06369860223008,
      "SamplesPerPixel": 1,
      "ScanOptions": "FS",
      "ScanningSequence": "EP",
      "SequenceName": "epfid2d1_104",
      "SequenceVariant": [
        "SK",
        "SS"
],
      "SeriesDescription": "func_task-mario_run-03",
      "SeriesNumber": 17,
      "SeriesTime": "175937.785000",
      "SliceLocation": -33.1614196498,
      "SliceThickness": 2.0,
      "SmallestImagePixelValue": 0,
      "SoftwareVersions": "syngo MR E11",
      "SpacingBetweenSlices": 1.9999999678995,
      "SpecificCharacterSet": "ISO_IR 100",
      "StudyID": "1",
      "StudyTime": "172117.448000",
      "TransmitCoilName": "Body",
      "VariableFlipAngleFlag": "N",
      "WindowCenterWidthExplanation": "Algo1",
      "dBdt": 0.0},
    "slices": {}
  },
  "time": {
    "samples": {
      "AcquisitionNumber": [1, 2, 3, 4, 5, 6, 7, 8, 9, 10, 11, 12, 13, 14, 15, 16, 17, 18, 19, 20, 21, 22, 23, 24, 25, 26, 27, 28, 29, 30, 31, 32, 33, 34, 35, 36, 37, 38, 39, 40, 41, 42, 43, 44, 45, 46, 47, 48, 49, 50, 51, 52, 53, 54, 55, 56, 57, 58, 59, 60, 61, 62, 63, 64, 65, 66, 67, 68, 69, 70, 71, 72, 73, 74, 75, 76, 77, 78, 79, 80, 81, 82, 83, 84, 85, 86, 87, 88, 89, 90, 91, 92, 93, 94, 95, 96, 97, 98, 99, 100, 101, 102, 103, 104, 105, 106, 107, 108, 109, 110, 111, 112, 113, 114, 115, 116, 117, 118, 119, 120, 121, 122, 123, 124, 125, 126, 127, 128, 129, 130, 131, 132, 133, 134, 135, 136, 137, 138, 139, 140, 141, 142, 143, 144, 145, 146, 147, 148, 149, 150, 151, 152, 153, 154, 155, 156, 157, 158, 159, 160, 161, 162, 163, 164, 165, 166, 167, 168, 169, 170, 171, 172, 173, 174, 175, 176, 177, 178, 179, 180, 181, 182, 183, 184, 185, 186, 187, 188, 189, 190, 191, 192, 193, 194, 195, 196, 197, 198, 199, 200, 201, 202, 203, 204, 205, 206, 207, 208, 209, 210, 211, 212, 213, 214, 215, 216, 217, 218, 219, 220, 221, 222, 223, 224, 225, 226, 227, 228, 229, 230, 231, 232, 233, 234, 235, 236, 237, 238, 239, 240, 241, 242, 243, 244, 245, 246, 247, 248, 249, 250, 251, 252, 253, 254, 255, 256, 257, 258, 259, 260, 261, 262, 263, 264, 265, 266, 267, 268, 269, 270, 271, 272, 273, 274, 275, 276, 277, 278, 279, 280, 281, 282, 283, 284, 285, 286, 287, 288, 289, 290, 291, 292, 293, 294, 295, 296, 297, 298, 299, 300, 301, 302, 303, 304, 305, 306, 307, 308, 309, 310, 311, 312, 313, 314, 315, 316, 317, 318, 319, 320, 321, 322, 323, 324, 325, 326, 327, 328, 329, 330, 331, 332, 333, 334, 335, 336, 337, 338, 339, 340, 341, 342, 343, 344, 345, 346, 347, 348, 349, 350, 351, 352, 353, 354, 355, 356, 357, 358, 359, 360, 361, 362, 363, 364, 365, 366, 367, 368, 369, 370, 371, 372, 373, 374, 375, 376, 377, 378, 379, 380, 381, 382, 383, 384, 385, 386, 387, 388, 389, 390, 391, 392, 393, 394, 395, 396, 397, 398, 399, 400, 401, 402, 403, 404, 405, 406, 407, 408, 409, 410, 411, 412, 413, 414, 415, 416, 417, 418, 419, 420, 421, 422, 423, 424, 425, 426, 427, 428, 429, 430, 431, 432, 433, 434, 435, 436, 437, 438, 439, 440, 441],
      "AcquisitionTime": ["175805.617500", "175807.107500", "175808.597500", "175810.087500", "175811.577500", "175813.067500", "175814.557500", "175816.047500", "175817.537500", "175819.027500", "175820.517500", "175822.007500", "175823.497500", "175824.987500", "175826.477500", "175827.967500", "175829.457500", "175830.947500", "175832.437500", "175833.927500", "175835.417500", "175836.907500", "175838.397500", "175839.887500", "175841.377500", "175842.867500", "175844.357500", "175845.847500", "175847.337500", "175848.827500", "175850.317500", "175851.807500", "175853.297500", "175854.787500", "175856.277500", "175857.767500", "175859.257500", "175900.747500", "175902.237500", "175903.727500", "175905.217500", "175906.707500", "175908.197500", "175909.687500", "175911.177500", "175912.667500", "175914.157500", "175915.647500", "175917.137500", "175918.627500", "175920.117500", "175921.607500", "175923.097500", "175924.587500", "175926.077500", "175927.567500", "175929.057500", "175930.547500", "175932.037500", "175933.527500", "175935.017500", "175936.507500", "175937.997500", "175939.487500", "175940.977500", "175942.467500", "175943.957500", "175945.447500", "175946.937500", "175948.427500", "175949.917500", "175951.407500", "175952.897500", "175954.387500", "175955.877500", "175957.367500", "175958.857500", "180000.347500", "180001.837500", "180003.327500", "180004.817500", "180006.307500", "180007.797500", "180009.287500", "180010.777500", "180012.267500", "180013.757500", "180015.247500", "180016.737500", "180018.227500", "180019.717500", "180021.207500", "180022.697500", "180024.187500", "180025.677500", "180027.167500", "180028.657500", "180030.147500", "180031.637500", "180033.127500", "180034.617500", "180036.107500", "180037.597500", "180039.087500", "180040.577500", "180042.067500", "180043.557500", "180045.047500", "180046.537500", "180048.027500", "180049.517500", "180051.007500", "180052.497500", "180053.987500", "180055.477500", "180056.967500", "180058.457500", "180059.947500", "180101.437500", "180102.927500", "180104.417500", "180105.907500", "180107.397500", "180108.887500", "180110.377500", "180111.867500", "180113.357500", "180114.847500", "180116.337500", "180117.827500", "180119.317500", "180120.807500", "180122.297500", "180123.787500", "180125.277500", "180126.767500", "180128.257500", "180129.747500", "180131.237500", "180132.727500", "180134.217500", "180135.707500", "180137.197500", "180138.687500", "180140.177500", "180141.667500", "180143.157500", "180144.647500", "180146.137500", "180147.627500", "180149.117500", "180150.607500", "180152.097500", "180153.587500", "180155.077500", "180156.567500", "180158.057500", "180159.547500", "180201.037500", "180202.527500", "180204.017500", "180205.507500", "180206.997500", "180208.487500", "180209.977500", "180211.467500", "180212.957500", "180214.447500", "180215.937500", "180217.427500", "180218.917500", "180220.407500", "180221.897500", "180223.387500", "180224.877500", "180226.367500", "180227.857500", "180229.347500", "180230.837500", "180232.327500", "180233.817500", "180235.307500", "180236.797500", "180238.287500", "180239.777500", "180241.267500", "180242.757500", "180244.247500", "180245.737500", "180247.227500", "180248.717500", "180250.207500", "180251.697500", "180253.187500", "180254.677500", "180256.167500", "180257.657500", "180259.147500", "180300.637500", "180302.127500", "180303.617500", "180305.107500", "180306.597500", "180308.087500", "180309.577500", "180311.067500", "180312.557500", "180314.047500", "180315.537500", "180317.027500", "180318.517500", "180320.007500", "180321.497500", "180322.987500", "180324.477500", "180325.967500", "180327.457500", "180328.947500", "180330.437500", "180331.927500", "180333.417500", "180334.907500", "180336.397500", "180337.887500", "180339.377500", "180340.867500", "180342.357500", "180343.847500", "180345.337500", "180346.827500", "180348.317500", "180349.807500", "180351.297500", "180352.787500", "180354.277500", "180355.767500", "180357.257500", "180358.747500", "180400.237500", "180401.727500", "180403.217500", "180404.707500", "180406.197500", "180407.687500", "180409.177500", "180410.667500", "180412.157500", "180413.647500", "180415.137500", "180416.627500", "180418.117500", "180419.607500", "180421.097500", "180422.587500", "180424.077500", "180425.567500", "180427.057500", "180428.547500", "180430.037500", "180431.527500", "180433.017500", "180434.507500", "180435.997500", "180437.487500", "180438.977500", "180440.467500", "180441.957500", "180443.447500", "180444.937500", "180446.427500", "180447.917500", "180449.407500", "180450.897500", "180452.387500", "180453.877500", "180455.367500", "180456.857500", "180458.347500", "180459.837500", "180501.327500", "180502.817500", "180504.307500", "180505.797500", "180507.287500", "180508.777500", "180510.267500", "180511.757500", "180513.247500", "180514.737500", "180516.227500", "180517.717500", "180519.207500", "180520.697500", "180522.187500", "180523.677500", "180525.167500", "180526.657500", "180528.147500", "180529.637500", "180531.127500", "180532.617500", "180534.107500", "180535.597500", "180537.087500", "180538.577500", "180540.067500", "180541.557500", "180543.047500", "180544.537500", "180546.027500", "180547.517500", "180549.007500", "180550.497500", "180551.987500", "180553.477500", "180554.967500", "180556.457500", "180557.947500", "180559.437500", "180600.927500", "180602.417500", "180603.907500", "180605.397500", "180606.887500", "180608.377500", "180609.867500", "180611.357500", "180612.847500", "180614.337500", "180615.827500", "180617.317500", "180618.807500", "180620.297500", "180621.787500", "180623.277500", "180624.767500", "180626.257500", "180627.747500", "180629.237500", "180630.727500", "180632.217500", "180633.707500", "180635.197500", "180636.687500", "180638.177500", "180639.667500", "180641.157500", "180642.647500", "180644.137500", "180645.627500", "180647.117500", "180648.607500", "180650.097500", "180651.587500", "180653.077500", "180654.567500", "180656.057500", "180657.547500", "180659.037500", "180700.527500", "180702.017500", "180703.507500", "180704.997500", "180706.487500", "180707.977500", "180709.467500", "180710.957500", "180712.447500", "180713.937500", "180715.427500", "180716.917500", "180718.407500", "180719.897500", "180721.387500", "180722.877500", "180724.367500", "180725.857500", "180727.347500", "180728.837500", "180730.327500", "180731.817500", "180733.307500", "180734.797500", "180736.287500", "180737.777500", "180739.267500", "180740.757500", "180742.247500", "180743.737500", "180745.227500", "180746.717500", "180748.207500", "180749.697500", "180751.187500", "180752.677500", "180754.167500", "180755.657500", "180757.147500", "180758.637500", "180800.127500", "180801.617500", "180803.107500", "180804.597500", "180806.087500", "180807.577500", "180809.067500", "180810.557500", "180812.047500", "180813.537500", "180815.027500", "180816.517500", "180818.007500", "180819.497500", "180820.987500", "180822.477500", "180823.967500", "180825.457500", "180826.947500", "180828.437500", "180829.927500", "180831.417500", "180832.907500", "180834.397500", "180835.887500", "180837.377500", "180838.867500", "180840.357500", "180841.847500", "180843.337500", "180844.827500", "180846.317500", "180847.807500", "180849.297500", "180850.787500", "180852.277500", "180853.767500", "180855.257500", "180856.747500", "180858.237500", "180859.727500", "180901.217500"],
      "ContentTime": ["175937.787000", "175937.790000", "175937.792000", "175937.795000", "175937.797000", "175937.800000", "175937.802000", "175937.805000", "175937.807000", "175937.810000", "175937.812000", "175937.814000", "175937.817000", "175937.819000", "175937.822000", "175937.824000", "175937.827000", "175937.829000", "175937.832000", "175937.834000", "175937.837000", "175937.839000", "175937.842000", "175937.844000", "175937.847000", "175937.849000", "175937.852000", "175937.854000", "175937.857000", "175937.859000", "175937.862000", "175937.864000", "175937.867000", "175937.869000", "175937.872000", "175937.874000", "175937.877000", "175937.879000", "175957.654000", "175957.656000", "175957.659000", "175957.661000", "175957.664000", "175957.666000", "175957.669000", "175957.671000", "175957.674000", "175957.676000", "175957.679000", "175957.681000", "175957.683000", "175957.686000", "175957.688000", "175957.691000", "175957.693000", "175957.696000", "175957.698000", "175957.701000", "180017.664000", "180017.667000", "180017.669000", "180017.672000", "180017.674000", "180017.677000", "180017.679000", "180017.682000", "180017.684000", "180017.687000", "180017.689000", "180017.692000", "180017.694000", "180017.697000", "180017.699000", "180017.710000", "180017.713000", "180017.715000", "180017.718000", "180017.720000", "180037.646000", "180037.648000", "180037.651000", "180037.653000", "180037.656000", "180037.658000", "180037.661000", "180037.663000", "180037.666000", "180037.668000", "180037.671000", "180037.673000", "180037.676000", "180037.678000", "180037.681000", "180037.683000", "180037.686000", "180037.688000", "180037.690000", "180037.693000", "180117.728000", "180117.731000", "180117.734000", "180117.736000", "180117.739000", "180117.741000", "180117.743000", "180117.746000", "180117.748000", "180117.751000", "180117.753000", "180117.756000", "180117.758000", "180117.761000", "180117.763000", "180117.766000", "180117.768000", "180117.771000", "180117.773000", "180117.775000", "180117.778000", "180117.780000", "180117.783000", "180117.785000", "180117.788000", "180117.790000", "180117.793000", "180117.795000", "180117.798000", "180117.800000", "180157.678000", "180157.681000", "180157.683000", "180157.686000", "180157.688000", "180157.691000", "180157.693000", "180157.696000", "180157.698000", "180157.701000", "180157.703000", "180157.706000", "180157.708000", "180157.711000", "180157.713000", "180157.716000", "180157.718000", "180157.721000", "180157.723000", "180157.725000", "180157.728000", "180157.730000", "180157.733000", "180157.735000", "180157.738000", "180157.740000", "180217.620000", "180217.623000", "180217.625000", "180217.628000", "180217.630000", "180217.633000", "180217.635000", "180217.637000", "180217.640000", "180217.643000", "180217.645000", "180217.648000", "180217.651000", "180217.653000", "180257.702000", "180257.705000", "180257.708000", "180257.710000", "180257.713000", "180257.715000", "180257.718000", "180257.720000", "180257.722000", "180257.725000", "180257.727000", "180257.730000", "180257.732000", "180257.735000", "180257.737000", "180257.740000", "180257.742000", "180257.745000", "180257.747000", "180257.750000", "180257.752000", "180257.754000", "180257.757000", "180257.759000", "180257.762000", "180257.764000", "180257.767000", "180337.698000", "180337.701000", "180337.703000", "180337.706000", "180337.709000", "180337.711000", "180337.713000", "180337.716000", "180337.718000", "180337.721000", "180337.723000", "180337.726000", "180337.728000", "180337.731000", "180337.733000", "180337.736000", "180337.738000", "180337.740000", "180337.743000", "180337.745000", "180337.748000", "180337.750000", "180337.753000", "180337.755000", "180337.758000", "180337.760000", "180337.763000", "180417.689000", "180417.691000", "180417.694000", "180417.697000", "180417.700000", "180417.702000", "180417.705000", "180417.707000", "180417.710000", "180417.712000", "180417.715000", "180417.717000", "180417.720000", "180417.722000", "180417.725000", "180417.727000", "180417.730000", "180417.732000", "180417.735000", "180417.737000", "180417.740000", "180417.742000", "180417.744000", "180417.747000", "180417.749000", "180417.752000", "180457.690000", "180457.693000", "180457.696000", "180457.698000", "180457.701000", "180457.703000", "180457.706000", "180457.708000", "180457.711000", "180457.713000", "180457.716000", "180457.718000", "180457.721000", "180457.723000", "180457.726000", "180457.728000", "180457.730000", "180457.733000", "180457.735000", "180457.738000", "180457.740000", "180457.743000", "180457.745000", "180457.748000", "180457.751000", "180457.754000", "180457.757000", "180537.687000", "180537.689000", "180537.692000", "180537.694000", "180537.697000", "180537.699000", "180537.702000", "180537.704000", "180537.707000", "180537.709000", "180537.712000", "180537.714000", "180537.717000", "180537.719000", "180537.722000", "180537.724000", "180537.727000", "180537.729000", "180537.732000", "180537.734000", "180537.737000", "180537.739000", "180537.742000", "180537.744000", "180537.747000", "180537.749000", "180537.752000", "180617.683000", "180617.686000", "180617.688000", "180617.691000", "180617.694000", "180617.696000", "180617.698000", "180617.701000", "180617.703000", "180617.706000", "180617.708000", "180617.711000", "180617.713000", "180617.716000", "180617.718000", "180617.721000", "180617.723000", "180617.726000", "180617.733000", "180617.736000", "180617.738000", "180617.741000", "180617.743000", "180617.745000", "180617.748000", "180617.750000", "180617.753000", "180657.698000", "180657.701000", "180657.703000", "180657.706000", "180657.708000", "180657.725000", "180657.728000", "180657.730000", "180657.733000", "180657.735000", "180657.738000", "180657.740000", "180657.743000", "180657.745000", "180657.748000", "180657.750000", "180657.753000", "180657.755000", "180657.758000", "180657.760000", "180657.763000", "180657.765000", "180657.768000", "180657.770000", "180657.773000", "180657.775000", "180657.778000", "180737.689000", "180737.691000", "180737.694000", "180737.696000", "180737.699000", "180737.701000", "180737.704000", "180737.706000", "180737.709000", "180737.711000", "180737.714000", "180737.716000", "180737.719000", "180737.721000", "180737.724000", "180737.726000", "180737.728000", "180737.731000", "180737.733000", "180737.736000", "180737.738000", "180737.741000", "180737.743000", "180737.746000", "180737.748000", "180737.751000", "180737.753000", "180817.703000", "180817.705000", "180817.708000", "180817.710000", "180817.713000", "180817.715000", "180817.718000", "180817.720000", "180817.723000", "180817.725000", "180817.727000", "180817.730000", "180817.732000", "180817.735000", "180817.737000", "180817.740000", "180817.742000", "180817.745000", "180817.747000", "180817.750000", "180817.752000", "180817.755000", "180817.757000", "180817.760000", "180817.762000", "180817.764000", "180857.671000", "180857.673000", "180857.676000", "180857.678000", "180857.681000", "180857.683000", "180857.686000", "180857.688000", "180857.691000", "180857.694000", "180857.696000", "180857.698000", "180857.701000", "180857.703000", "180857.706000", "180857.708000", "180857.711000", "180857.713000", "180857.716000", "180857.727000", "180857.730000", "180857.732000", "180857.735000", "180857.737000", "180857.740000", "180857.742000", "180857.745000", "180905.090000", "180905.102000", "180905.104000", "180905.107000", "180905.109000"],
