{
  "AcquisitionMatrixPE": 104,
  "AcquisitionNumber": 1,
  "AcquisitionTime": "17:34:1.782500",
  "BandwidthPerPixelPhaseEncode": 17.17,
  "BaseResolution": 104,
  "BodyPartExamined": "BRAIN",
  "CoilCombinationMethod": "Sum of Squares",
  "ConsistencyInfo": "N4_VE11C_LATEST_20160120",
  "ConversionSoftware": "dcm2niix",
  "ConversionSoftwareVersion": "v1.0.20211006",
  "DerivedVendorReportedEchoSpacing": 0.000560011,
  "DeviceSerialNumber": "167006",
  "DwellTime": 2.1e-06,
  "EchoTime": 0.037,
  "EchoTime1": 0.037,
  "EchoTime2": 0.001,
  "EchoTrainLength": 104,
  "EffectiveEchoSpacing": 0.000560011,
  "FlipAngle": 52,
  "HeudiconvVersion": "0.10.0",
  "ImageComments": "Unaliased MB4/PE3/LB",
  "ImageOrientationPatientDICOM": [0.995292, 0.08708, 0.0425635, -0.0607002, 0.90235, -0.426709],
  "ImageOrientationText": "Tra>Cor(-25.0)>Sag(4.3)",
  "ImageType": [
    "ORIGINAL",
    "PRIMARY",
    "P",
    "MB",
    "ND",
    "MOSAIC",
    "PHASE"
],
  "ImagingFrequency": 123.259,
  "InPlanePhaseEncodingDirectionDICOM": "COL",
  "InstitutionAddress": "Chemin Queen-Mary 4565,Montreal,District,CA,H3W 1W5",
  "InstitutionName": "IUGM",
  "InstitutionalDepartmentName": "Department",
  "MRAcquisitionType": "2D",
  "MagneticFieldStrength": 3,
  "Manufacturer": "Siemens",
  "ManufacturersModelName": "Prisma_fit",
  "MatrixCoilMode": "SENSE",
  "Modality": "MR",
  "MultibandAccelerationFactor": 4,
  "PartialFourier": 1,
  "PatientPosition": "HFS",
  "PercentPhaseFOV": 100,
  "PercentSampling": 100,
  "PhaseEncodingDirection": "j",
  "PhaseEncodingSteps": 104,
  "PhaseResolution": 1,
  "PixelBandwidth": 2290,
  "ProcedureStepDescription": "games^mario",
  "ProtocolName": "func_task-mario_run-01",
  "PulseSequenceDetails": "%CustomerSeq%\\cmrr_mbep2d_bold",
  "ReceiveCoilActiveElements": "HC1-7;NC1,2",
  "ReceiveCoilName": "HeadNeck_64",
  "ReconMatrixPE": 104,
  "RepetitionTime": 1.49,
  "SAR": 0.0636986,
  "ScanOptions": "FS",
  "ScanningSequence": "EP",
  "SequenceName": "epfid2d1_104",
  "SequenceVariant": "SK\\SS",
  "SeriesDescription": "func_task-mario_run-01",
  "SeriesNumber": 11,
  "ShimSetting": [630, -7172, -8798, 616, 65, -1, -116, -1],
  "SliceThickness": 2,
  "SliceTiming": [0, 0.7825, 0.0975, 0.88, 0.195, 0.9775, 0.2925, 1.0775, 0.39, 1.175, 0.49, 1.2725, 0.5875, 1.37, 0.685, 0, 0.7825, 0.0975, 0.88, 0.195, 0.9775, 0.2925, 1.0775, 0.39, 1.175, 0.49, 1.2725, 0.5875, 1.37, 0.685, 0, 0.7825, 0.0975, 0.88, 0.195, 0.9775, 0.2925, 1.0775, 0.39, 1.175, 0.49, 1.2725, 0.5875, 1.37, 0.685, 0, 0.7825, 0.0975, 0.88, 0.195, 0.9775, 0.2925, 1.0775, 0.39, 1.175, 0.49, 1.2725, 0.5875, 1.37, 0.685],
  "SoftwareVersions": "syngo MR E11",
  "SpacingBetweenSlices": 2,
  "StationName": "MRC35049",
  "TaskName": "mario",
  "TotalReadoutTime": 0.0576811,
  "TxRefAmp": 302.651,
  "WipMemBlock": "00e25cc1-a6b4-4a6d-a9ca-3ac2b324a463||Sequence: R016 ve11c/master r/e634e98; Dec 19 2017 11:00:25 by eja",
  "dcmmeta_affine": [
    [-1.9905833005905151, -0.12140049040317535, 0.15112987160682678, 108.42500305175781],
    [-0.17416004836559296, 1.8046996593475342, -0.8442317247390747, -45.90343475341797],
    [0.08512693643569946, 0.853417158126831, 1.8067740201950073, -67.22602081298828],
    [0.0, 0.0, 0.0, 1.0]
],
  "dcmmeta_reorient_transform": [
    [0.0, -1.0, 0.0, 103.0],
    [1.0, 0.0, 0.0, 0.0],
    [0.0, 0.0, 1.0, 0.0],
    [0.0, 0.0, 0.0, 1.0]
],
  "dcmmeta_shape": [104, 104, 60, 420],
  "dcmmeta_slice_dim": 2,
  "dcmmeta_version": 0.6,
  "global": {
    "const": {
      "AcquisitionMatrix": [104, 0, 0, 104],
      "AngioFlag": "N",
      "BitsAllocated": 16,
      "BitsStored": 16,
      "BodyPartExamined": "BRAIN",
      "Columns": 832,
      "EchoNumbers": 1,
      "EchoTime": 37.0,
      "EchoTrainLength": 104,
      "FlipAngle": 52.0,
      "HighBit": 15,
      "ImageOrientationPatient": [0.99529162606503, 0.08708002130633, 0.04256346994925, -0.0607002464055, 0.90234985793912, -0.426708582013],
      "ImagePositionPatient": [-776.30327886186, -860.28558888402, 300.33358866002],
      "ImageType": [
        "ORIGINAL",
        "PRIMARY",
        "P",
        "MB",
        "ND",
        "MOSAIC"
],
      "ImagedNucleus": "1H",
      "ImagingFrequency": 123.258833,
      "InPlanePhaseEncodingDirection": "COL",
      "LargestImagePixelValue": 4095,
      "MRAcquisitionType": "2D",
      "MagneticFieldStrength": 3.0,
      "Manufacturer": "SIEMENS",
      "ManufacturerModelName": "Prisma_fit",
      "Modality": "MR",
      "NumberOfAverages": 1.0,
      "NumberOfPhaseEncodingSteps": 104,
      "PercentPhaseFieldOfView": 100.0,
      "PercentSampling": 100.0,
      "PerformedProcedureStepStartTime": "172117.525000",
      "PhotometricInterpretation": "MONOCHROME2",
      "PixelBandwidth": 2290.0,
      "PixelRepresentation": 0,
      "PixelSpacing": [2.0, 2.0],
      "ProtocolName": "func_task-mario_run-01",
      "RepetitionTime": 1490.0,
      "RescaleIntercept": -4096.0,
      "RescaleSlope": 2.0,
      "RescaleType": "US",
      "Rows": 832,
      "SAR": 0.06369860223008,
      "SamplesPerPixel": 1,
      "ScanOptions": "FS",
      "ScanningSequence": "EP",
      "SequenceName": "epfid2d1_104",
      "SequenceVariant": [
        "SK",
        "SS"
],
      "SeriesDescription": "func_task-mario_run-01",
      "SeriesNumber": 11,
      "SeriesTime": "173458.660000",
      "SliceLocation": -33.1614196498,
      "SliceThickness": 2.0,
      "SmallestImagePixelValue": 0,
      "SoftwareVersions": "syngo MR E11",
      "SpacingBetweenSlices": 1.9999999678995,
      "SpecificCharacterSet": "ISO_IR 100",
      "StudyID": "1",
      "StudyTime": "172117.448000",
      "TransmitCoilName": "Body",
      "VariableFlipAngleFlag": "N",
      "WindowCenterWidthExplanation": "Algo1",
      "dBdt": 0.0},
    "slices": {}
  },
  "time": {
    "samples": {
      "AcquisitionNumber": [1, 2, 3, 4, 5, 6, 7, 8, 9, 10, 11, 12, 13, 14, 15, 16, 17, 18, 19, 20, 21, 22, 23, 24, 25, 26, 27, 28, 29, 30, 31, 32, 33, 34, 35, 36, 37, 38, 39, 40, 41, 42, 43, 44, 45, 46, 47, 48, 49, 50, 51, 52, 53, 54, 55, 56, 57, 58, 59, 60, 61, 62, 63, 64, 65, 66, 67, 68, 69, 70, 71, 72, 73, 74, 75, 76, 77, 78, 79, 80, 81, 82, 83, 84, 85, 86, 87, 88, 89, 90, 91, 92, 93, 94, 95, 96, 97, 98, 99, 100, 101, 102, 103, 104, 105, 106, 107, 108, 109, 110, 111, 112, 113, 114, 115, 116, 117, 118, 119, 120, 121, 122, 123, 124, 125, 126, 127, 128, 129, 130, 131, 132, 133, 134, 135, 136, 137, 138, 139, 140, 141, 142, 143, 144, 145, 146, 147, 148, 149, 150, 151, 152, 153, 154, 155, 156, 157, 158, 159, 160, 161, 162, 163, 164, 165, 166, 167, 168, 169, 170, 171, 172, 173, 174, 175, 176, 177, 178, 179, 180, 181, 182, 183, 184, 185, 186, 187, 188, 189, 190, 191, 192, 193, 194, 195, 196, 197, 198, 199, 200, 201, 202, 203, 204, 205, 206, 207, 208, 209, 210, 211, 212, 213, 214, 215, 216, 217, 218, 219, 220, 221, 222, 223, 224, 225, 226, 227, 228, 229, 230, 231, 232, 233, 234, 235, 236, 237, 238, 239, 240, 241, 242, 243, 244, 245, 246, 247, 248, 249, 250, 251, 252, 253, 254, 255, 256, 257, 258, 259, 260, 261, 262, 263, 264, 265, 266, 267, 268, 269, 270, 271, 272, 273, 274, 275, 276, 277, 278, 279, 280, 281, 282, 283, 284, 285, 286, 287, 288, 289, 290, 291, 292, 293, 294, 295, 296, 297, 298, 299, 300, 301, 302, 303, 304, 305, 306, 307, 308, 309, 310, 311, 312, 313, 314, 315, 316, 317, 318, 319, 320, 321, 322, 323, 324, 325, 326, 327, 328, 329, 330, 331, 332, 333, 334, 335, 336, 337, 338, 339, 340, 341, 342, 343, 344, 345, 346, 347, 348, 349, 350, 351, 352, 353, 354, 355, 356, 357, 358, 359, 360, 361, 362, 363, 364, 365, 366, 367, 368, 369, 370, 371, 372, 373, 374, 375, 376, 377, 378, 379, 380, 381, 382, 383, 384, 385, 386, 387, 388, 389, 390, 391, 392, 393, 394, 395, 396, 397, 398, 399, 400, 401, 402, 403, 404, 405, 406, 407, 408, 409, 410, 411, 412, 413, 414, 415, 416, 417, 418, 419, 420],
      "AcquisitionTime": ["173401.782500", "173403.272500", "173404.762500", "173406.252500", "173407.742500", "173409.232500", "173410.722500", "173412.212500", "173413.702500", "173415.192500", "173416.682500", "173418.172500", "173419.662500", "173421.152500", "173422.642500", "173424.132500", "173425.622500", "173427.112500", "173428.602500", "173430.092500", "173431.582500", "173433.072500", "173434.562500", "173436.052500", "173437.542500", "173439.032500", "173440.522500", "173442.012500", "173443.502500", "173444.992500", "173446.482500", "173447.972500", "173449.462500", "173450.952500", "173452.442500", "173453.932500", "173455.422500", "173456.912500", "173458.402500", "173459.892500", "173501.382500", "173502.872500", "173504.362500", "173505.852500", "173507.342500", "173508.832500", "173510.322500", "173511.812500", "173513.302500", "173514.792500", "173516.282500", "173517.772500", "173519.262500", "173520.752500", "173522.242500", "173523.732500", "173525.222500", "173526.712500", "173528.202500", "173529.692500", "173531.182500", "173532.672500", "173534.162500", "173535.652500", "173537.142500", "173538.632500", "173540.122500", "173541.612500", "173543.102500", "173544.592500", "173546.082500", "173547.572500", "173549.062500", "173550.552500", "173552.042500", "173553.532500", "173555.022500", "173556.512500", "173558.002500", "173559.492500", "173600.982500", "173602.472500", "173603.962500", "173605.452500", "173606.942500", "173608.432500", "173609.922500", "173611.412500", "173612.902500", "173614.392500", "173615.882500", "173617.372500", "173618.862500", "173620.352500", "173621.842500", "173623.332500", "173624.822500", "173626.312500", "173627.802500", "173629.292500", "173630.782500", "173632.272500", "173633.762500", "173635.252500", "173636.742500", "173638.232500", "173639.722500", "173641.212500", "173642.702500", "173644.192500", "173645.682500", "173647.172500", "173648.662500", "173650.152500", "173651.642500", "173653.132500", "173654.622500", "173656.112500", "173657.602500", "173659.092500", "173700.582500", "173702.072500", "173703.562500", "173705.052500", "173706.542500", "173708.032500", "173709.522500", "173711.012500", "173712.502500", "173713.992500", "173715.482500", "173716.972500", "173718.462500", "173719.952500", "173721.442500", "173722.932500", "173724.422500", "173725.912500", "173727.402500", "173728.892500", "173730.382500", "173731.872500", "173733.362500", "173734.852500", "173736.342500", "173737.832500", "173739.322500", "173740.812500", "173742.302500", "173743.792500", "173745.282500", "173746.772500", "173748.262500", "173749.752500", "173751.242500", "173752.732500", "173754.222500", "173755.712500", "173757.202500", "173758.692500", "173800.182500", "173801.672500", "173803.162500", "173804.652500", "173806.142500", "173807.632500", "173809.122500", "173810.612500", "173812.102500", "173813.592500", "173815.082500", "173816.572500", "173818.062500", "173819.552500", "173821.042500", "173822.532500", "173824.022500", "173825.512500", "173827.002500", "173828.492500", "173829.982500", "173831.472500", "173832.962500", "173834.452500", "173835.942500", "173837.432500", "173838.922500", "173840.412500", "173841.902500", "173843.392500", "173844.882500", "173846.372500", "173847.862500", "173849.352500", "173850.842500", "173852.332500", "173853.822500", "173855.312500", "173856.802500", "173858.292500", "173859.782500", "173901.272500", "173902.762500", "173904.252500", "173905.742500", "173907.232500", "173908.722500", "173910.212500", "173911.702500", "173913.192500", "173914.682500", "173916.172500", "173917.662500", "173919.152500", "173920.642500", "173922.132500", "173923.622500", "173925.112500", "173926.602500", "173928.092500", "173929.582500", "173931.072500", "173932.562500", "173934.052500", "173935.542500", "173937.032500", "173938.522500", "173940.012500", "173941.502500", "173942.992500", "173944.482500", "173945.972500", "173947.462500", "173948.952500", "173950.442500", "173951.932500", "173953.422500", "173954.912500", "173956.402500", "173957.892500", "173959.382500", "174000.872500", "174002.362500", "174003.852500", "174005.342500", "174006.832500", "174008.322500", "174009.812500", "174011.302500", "174012.792500", "174014.282500", "174015.772500", "174017.262500", "174018.752500", "174020.242500", "174021.732500", "174023.222500", "174024.712500", "174026.202500", "174027.692500", "174029.182500", "174030.672500", "174032.162500", "174033.652500", "174035.142500", "174036.632500", "174038.122500", "174039.612500", "174041.102500", "174042.592500", "174044.082500", "174045.572500", "174047.062500", "174048.552500", "174050.042500", "174051.532500", "174053.022500", "174054.512500", "174056.002500", "174057.492500", "174058.982500", "174100.472500", "174101.962500", "174103.452500", "174104.942500", "174106.432500", "174107.922500", "174109.412500", "174110.902500", "174112.392500", "174113.882500", "174115.372500", "174116.862500", "174118.352500", "174119.842500", "174121.332500", "174122.822500", "174124.312500", "174125.802500", "174127.292500", "174128.782500", "174130.272500", "174131.762500", "174133.252500", "174134.742500", "174136.232500", "174137.722500", "174139.212500", "174140.702500", "174142.192500", "174143.682500", "174145.172500", "174146.662500", "174148.152500", "174149.642500", "174151.132500", "174152.622500", "174154.112500", "174155.602500", "174157.092500", "174158.582500", "174200.072500", "174201.562500", "174203.052500", "174204.542500", "174206.032500", "174207.522500", "174209.012500", "174210.502500", "174211.992500", "174213.482500", "174214.972500", "174216.462500", "174217.952500", "174219.442500", "174220.932500", "174222.422500", "174223.912500", "174225.402500", "174226.892500", "174228.382500", "174229.872500", "174231.362500", "174232.852500", "174234.342500", "174235.832500", "174237.322500", "174238.812500", "174240.302500", "174241.792500", "174243.282500", "174244.772500", "174246.262500", "174247.752500", "174249.242500", "174250.732500", "174252.222500", "174253.712500", "174255.202500", "174256.692500", "174258.182500", "174259.672500", "174301.162500", "174302.652500", "174304.142500", "174305.632500", "174307.122500", "174308.612500", "174310.102500", "174311.592500", "174313.082500", "174314.572500", "174316.062500", "174317.552500", "174319.042500", "174320.532500", "174322.022500", "174323.512500", "174325.002500", "174326.492500", "174327.982500", "174329.472500", "174330.962500", "174332.452500", "174333.942500", "174335.432500", "174336.922500", "174338.412500", "174339.902500", "174341.392500", "174342.882500", "174344.372500", "174345.862500", "174347.352500", "174348.842500", "174350.332500", "174351.822500", "174353.312500", "174354.802500", "174356.292500", "174357.782500", "174359.272500", "174400.762500", "174402.252500", "174403.742500", "174405.232500", "174406.722500", "174408.212500", "174409.702500", "174411.192500", "174412.682500", "174414.172500", "174415.662500", "174417.152500", "174418.642500", "174420.132500", "174421.622500", "174423.112500", "174424.602500", "174426.092500"],
      "ContentTime": ["173458.662000", "173458.664000", "173458.667000", "173518.705000", "173518.708000", "173518.710000", "173518.713000", "173518.715000", "173518.718000", "173518.720000", "173518.723000", "173518.725000", "173518.728000", "173518.730000", "173518.738000", "173518.740000", "173518.743000", "173518.745000", "173518.748000", "173518.750000", "173518.753000", "173518.755000", "173518.758000", "173538.698000", "173538.701000", "173538.704000", "173538.706000", "173538.709000", "173538.711000", "173538.714000", "173538.716000", "173538.719000", "173538.721000", "173538.723000", "173538.726000", "173538.728000", "173538.731000", "173538.734000", "173538.737000", "173538.739000", "173538.741000", "173538.744000", "173538.753000", "173558.697000", "173558.700000", "173558.702000", "173558.705000", "173558.707000", "173558.710000", "173558.712000", "173558.715000", "173558.717000", "173558.720000", "173558.722000", "173558.725000", "173558.734000", "173558.736000", "173558.739000", "173558.741000", "173558.744000", "173558.746000", "173558.749000", "173558.751000", "173618.696000", "173618.699000", "173618.701000", "173618.714000", "173618.717000", "173618.719000", "173618.725000", "173618.727000", "173618.730000", "173618.732000", "173618.735000", "173618.737000", "173618.740000", "173618.742000", "173618.745000", "173618.747000", "173618.750000", "173618.752000", "173618.755000", "173618.757000", "173638.708000", "173638.711000", "173638.713000", "173638.716000", "173638.718000", "173638.721000", "173638.723000", "173638.726000", "173638.728000", "173638.731000", "173638.733000", "173638.736000", "173638.738000", "173638.741000", "173638.743000", "173638.746000", "173638.748000", "173638.751000", "173638.753000", "173638.756000", "173638.758000", "173718.738000", "173718.741000", "173718.743000", "173718.746000", "173718.749000", "173718.751000", "173718.754000", "173718.756000", "173718.759000", "173718.769000", "173718.771000", "173718.774000", "173718.776000", "173718.779000", "173718.781000", "173718.791000", "173718.793000", "173718.796000", "173718.798000", "173718.801000", "173718.804000", "173718.806000", "173718.809000", "173718.811000", "173718.814000", "173718.830000", "173718.832000", "173759.173000", "173759.176000", "173759.179000", "173759.181000", "173759.184000", "173759.186000", "173759.189000", "173759.191000", "173759.193000", "173759.196000", "173759.198000", "173759.201000", "173759.203000", "173759.206000", "173759.208000", "173759.211000", "173759.213000", "173759.216000", "173759.218000", "173759.221000", "173759.223000", "173759.226000", "173759.228000", "173759.231000", "173759.233000", "173759.236000", "173759.238000", "173838.719000", "173838.722000", "173838.724000", "173838.730000", "173838.733000", "173838.735000", "173838.738000", "173838.740000", "173838.743000", "173838.745000", "173838.748000", "173838.750000", "173838.753000", "173838.755000", "173838.758000", "173838.766000", "173838.769000", "173838.771000", "173838.774000", "173838.776000", "173838.779000", "173838.781000", "173838.784000", "173838.787000", "173838.789000", "173838.792000", "173838.794000", "173918.740000", "173918.742000", "173918.745000", "173918.747000", "173918.750000", "173918.753000", "173918.755000", "173918.757000", "173918.760000", "173918.763000", "173918.765000", "173918.767000", "173918.770000", "173918.773000", "173918.775000", "173918.778000", "173918.780000", "173918.783000", "173918.785000", "173918.788000", "173918.790000", "173918.793000", "173918.795000", "173918.798000", "173918.800000", "173918.803000", "173918.805000", "173958.722000", "173958.725000", "173958.727000", "173958.730000", "173958.732000", "173958.735000", "173958.737000", "173958.740000", "173958.742000", "173958.745000", "173958.747000", "173958.750000", "173958.752000", "173958.755000", "173958.757000", "173958.760000", "173958.762000", "173958.765000", "173958.767000", "173958.770000", "173958.772000", "173958.775000", "173958.777000", "173958.779000", "173958.782000", "173958.785000", "173958.787000", "174038.724000", "174038.727000", "174038.730000", "174038.732000", "174038.735000", "174038.737000", "174038.740000", "174038.742000", "174038.745000", "174038.747000", "174038.750000", "174038.752000", "174038.761000", "174038.764000", "174038.766000", "174038.769000", "174038.771000", "174038.774000", "174038.776000", "174038.779000", "174038.781000", "174038.801000", "174038.804000", "174038.806000", "174038.809000", "174038.811000", "174038.814000", "174118.727000", "174118.730000", "174118.732000", "174118.735000", "174118.737000", "174118.740000", "174118.742000", "174118.745000", "174118.747000", "174118.750000", "174118.752000", "174118.755000", "174118.757000", "174118.760000", "174118.762000", "174118.765000", "174118.767000", "174118.769000", "174118.772000", "174118.774000", "174118.777000", "174118.779000", "174118.782000", "174118.816000", "174118.819000", "174118.822000", "174158.729000", "174158.732000", "174158.735000", "174158.737000", "174158.740000", "174158.742000", "174158.745000", "174158.747000", "174158.749000", "174158.752000", "174158.754000", "174158.757000", "174158.759000", "174158.762000", "174158.764000", "174158.767000", "174158.769000", "174158.772000", "174158.774000", "174158.777000", "174158.809000", "174158.811000", "174158.814000", "174158.818000", "174158.822000", "174158.825000", "174158.828000", "174218.676000", "174218.679000", "174218.681000", "174218.684000", "174218.686000", "174218.689000", "174218.691000", "174218.694000", "174218.696000", "174218.699000", "174218.701000", "174218.704000", "174218.706000", "174218.709000", "174258.719000", "174258.722000", "174258.725000", "174258.727000", "174258.729000", "174258.732000", "174258.735000", "174258.737000", "174258.740000", "174258.742000", "174258.745000", "174258.747000", "174258.750000", "174258.752000", "174258.755000", "174258.757000", "174258.759000", "174258.762000", "174258.764000", "174258.767000", "174258.769000", "174258.772000", "174258.774000", "174258.777000", "174258.779000", "174258.782000", "174258.784000", "174338.733000", "174338.736000", "174338.739000", "174338.741000", "174338.744000", "174338.756000", "174338.759000", "174338.761000", "174338.764000", "174338.766000", "174338.769000", "174338.771000", "174338.774000", "174338.783000", "174338.785000", "174338.788000", "174338.790000", "174338.793000", "174338.795000", "174338.798000", "174338.800000", "174338.803000", "174338.805000", "174338.808000", "174338.810000", "174338.812000", "174418.737000", "174418.740000", "174418.743000", "174418.748000", "174418.750000", "174418.753000", "174418.755000", "174418.758000", "174418.760000", "174418.763000", "174418.765000", "174418.768000", "174418.770000", "174418.773000", "174418.775000", "174418.778000", "174418.780000", "174418.783000", "174418.785000", "174418.788000", "174418.790000", "174418.793000", "174418.795000", "174418.798000", "174418.800000", "174418.803000", "174418.805000", "174428.506000", "174428.509000", "174428.512000", "174428.516000", "174428.519000", "174428.521000", "174428.524000"],
      "InstanceCreationTime": ["173458.662000", "173458.664000", "173458.667000", "173518.705000", "173518.708000", "173518.710000", "173518.713000", "173518.715000", "173518.718000", "173518.720000", "173518.723000", "173518.725000", "173518.728000", "173518.730000", "173518.738000", "173518.740000", "173518.743000", "173518.745000", "173518.748000", "173518.750000", "173518.753000", "173518.755000", "173518.758000", "173538.698000", "173538.701000", "173538.704000", "173538.706000", "173538.709000", "173538.711000", "173538.714000", "173538.716000", "173538.719000", "173538.721000", "173538.723000", "173538.726000", "173538.728000", "173538.731000", "173538.734000", "173538.737000", "173538.739000", "173538.741000", "173538.744000", "173538.753000", "173558.697000", "173558.700000", "173558.702000", "173558.705000", "173558.707000", "173558.710000", "173558.712000", "173558.715000", "173558.717000", "173558.720000", "173558.722000", "173558.725000", "173558.734000", "173558.736000", "173558.739000", "173558.741000", "173558.744000", "173558.746000", "173558.749000", "173558.751000", "173618.696000", "173618.699000", "173618.701000", "173618.714000", "173618.717000", "173618.719000", "173618.725000", "173618.727000", "173618.730000", "173618.732000", "173618.735000", "173618.737000", "173618.740000", "173618.742000", "173618.745000", "173618.747000", "173618.750000", "173618.752000", "173618.755000", "173618.757000", "173638.708000", "173638.711000", "173638.713000", "173638.716000", "173638.718000", "173638.721000", "173638.723000", "173638.726000", "173638.728000", "173638.731000", "173638.733000", "173638.736000", "173638.738000", "173638.741000", "173638.743000", "173638.746000", "173638.748000", "173638.751000", "173638.753000", "173638.756000", "173638.758000", "173718.738000", "173718.741000", "173718.743000", "173718.746000", "173718.749000", "173718.751000", "173718.754000", "173718.756000", "173718.759000", "173718.769000", "173718.771000", "173718.774000", "173718.776000", "173718.779000", "173718.781000", "173718.791000", "173718.793000", "173718.796000", "173718.798000", "173718.801000", "173718.804000", "173718.806000", "173718.809000", "173718.811000", "173718.814000", "173718.830000", "173718.832000", "173759.173000", "173759.176000", "173759.179000", "173759.181000", "173759.184000", "173759.186000", "173759.189000", "173759.191000", "173759.193000", "173759.196000", "173759.198000", "173759.201000", "173759.203000", "173759.206000", "173759.208000", "173759.211000", "173759.213000", "173759.216000", "173759.218000", "173759.221000", "173759.223000", "173759.226000", "173759.228000", "173759.231000", "173759.233000", "173759.236000", "173759.238000", "173838.719000", "173838.722000", "173838.724000", "173838.730000", "173838.733000", "173838.735000", "173838.738000", "173838.740000", "173838.743000", "173838.745000", "173838.748000", "173838.750000", "173838.753000", "173838.755000", "173838.758000", "173838.766000", "173838.769000", "173838.771000", "173838.774000", "173838.776000", "173838.779000", "173838.781000", "173838.784000", "173838.787000", "173838.789000", "173838.792000", "173838.794000", "173918.740000", "173918.742000", "173918.745000", "173918.747000", "173918.750000", "173918.753000", "173918.755000", "173918.757000", "173918.760000", "173918.763000", "173918.765000", "173918.767000", "173918.770000", "173918.773000", "173918.775000", "173918.778000", "173918.780000", "173918.783000", "173918.785000", "173918.788000", "173918.790000", "173918.793000", "173918.795000", "173918.798000", "173918.800000", "173918.803000", "173918.805000", "173958.722000", "173958.725000", "173958.727000", "173958.730000", "173958.732000", "173958.735000", "173958.737000", "173958.740000", "173958.742000", "173958.745000", "173958.747000", "173958.750000", "173958.752000", "173958.755000", "173958.757000", "173958.760000", "173958.762000", "173958.765000", "173958.767000", "173958.770000", "173958.772000", "173958.775000", "173958.777000", "173958.779000", "173958.782000", "173958.785000", "173958.787000", "174038.724000", "174038.727000", "174038.730000", "174038.732000", "174038.735000", "174038.737000", "174038.740000", "174038.742000", "174038.745000", "174038.747000", "174038.750000", "174038.752000", "174038.761000", "174038.764000", "174038.766000", "174038.769000", "174038.771000", "174038.774000", "174038.776000", "174038.779000", "174038.781000", "174038.801000", "174038.804000", "174038.806000", "174038.809000", "174038.811000", "174038.814000", "174118.727000", "174118.730000", "174118.732000", "174118.735000", "174118.737000", "174118.740000", "174118.742000", "174118.745000", "174118.747000", "174118.750000", "174118.752000", "174118.755000", "174118.757000", "174118.760000", "174118.762000", "174118.765000", "174118.767000", "174118.769000", "174118.772000", "174118.774000", "174118.777000", "174118.779000", "174118.782000", "174118.816000", "174118.819000", "174118.822000", "174158.729000", "174158.732000", "174158.735000", "174158.737000", "174158.740000", "174158.742000", "174158.745000", "174158.747000", "174158.749000", "174158.752000", "174158.754000", "174158.757000", "174158.759000", "174158.762000", "174158.764000", "174158.767000", "174158.769000", "174158.772000", "174158.774000", "174158.777000", "174158.809000", "174158.811000", "174158.814000", "174158.818000", "174158.822000", "174158.825000", "174158.828000", "174218.676000", "174218.679000", "174218.681000", "174218.684000", "174218.686000", "174218.689000", "174218.691000", "174218.694000", "174218.696000", "174218.699000", "174218.701000", "174218.704000", "174218.706000", "174218.709000", "174258.719000", "174258.722000", "174258.725000", "174258.727000", "174258.729000", "174258.732000", "174258.735000", "174258.737000", "174258.740000", "174258.742000", "174258.745000", "174258.747000", "174258.750000", "174258.752000", "174258.755000", "174258.757000", "174258.759000", "174258.762000", "174258.764000", "174258.767000", "174258.769000", "174258.772000", "174258.774000", "174258.777000", "174258.779000", "174258.782000", "174258.784000", "174338.733000", "174338.736000", "174338.739000", "174338.741000", "174338.744000", "174338.756000", "174338.759000", "174338.761000", "174338.764000", "174338.766000", "174338.769000", "174338.771000", "174338.774000", "174338.783000", "174338.785000", "174338.788000", "174338.790000", "174338.793000", "174338.795000", "174338.798000", "174338.800000", "174338.803000", "174338.805000", "174338.808000", "174338.810000", "174338.812000", "174418.737000", "174418.740000", "174418.743000", "174418.748000", "174418.750000", "174418.753000", "174418.755000", "174418.758000", "174418.760000", "174418.763000", "174418.765000", "174418.768000", "174418.770000", "174418.773000", "174418.775000", "174418.778000", "174418.780000", "174418.783000", "174418.785000", "174418.788000", "174418.790000", "174418.793000", "174418.795000", "174418.798000", "174418.800000", "174418.803000", "174418.805000", "174428.506000", "174428.509000", "174428.512000", "174428.516000", "174428.519000", "174428.521000", "174428.524000"],
