{
  "AcquisitionMatrixPE": 104,
  "AcquisitionNumber": 1,
  "AcquisitionTime": "17:34:1.782500",
  "BandwidthPerPixelPhaseEncode": 17.17,
  "BaseResolution": 104,
  "BodyPartExamined": "BRAIN",
  "CoilCombinationMethod": "Sum of Squares",
  "ConsistencyInfo": "N4_VE11C_LATEST_20160120",
  "ConversionSoftware": "dcm2niix",
  "ConversionSoftwareVersion": "v1.0.20211006",
  "DerivedVendorReportedEchoSpacing": 0.000560011,
  "DeviceSerialNumber": "167006",
  "DwellTime": 2.1e-06,
  "EchoTime": 0.037,
  "EchoTrainLength": 104,
  "EffectiveEchoSpacing": 0.000560011,
  "FlipAngle": 52,
  "HeudiconvVersion": "0.10.0",
  "ImageComments": "Unaliased MB4/PE3/LB",
  "ImageOrientationPatientDICOM": [0.995292, 0.08708, 0.0425635, -0.0607002, 0.90235, -0.426709],
  "ImageOrientationText": "Tra>Cor(-25.0)>Sag(4.3)",
  "ImageType": [
    "ORIGINAL",
    "PRIMARY",
    "M",
    "MB",
    "ND",
    "MOSAIC"
],
  "ImagingFrequency": 123.259,
  "InPlanePhaseEncodingDirectionDICOM": "COL",
  "InstitutionAddress": "Chemin Queen-Mary 4565,Montreal,District,CA,H3W 1W5",
  "InstitutionName": "IUGM",
  "InstitutionalDepartmentName": "Department",
  "MRAcquisitionType": "2D",
  "MagneticFieldStrength": 3,
  "Manufacturer": "Siemens",
  "ManufacturersModelName": "Prisma_fit",
  "MatrixCoilMode": "SENSE",
  "Modality": "MR",
  "MultibandAccelerationFactor": 4,
  "PartialFourier": 1,
  "PatientPosition": "HFS",
  "PercentPhaseFOV": 100,
  "PercentSampling": 100,
  "PhaseEncodingDirection": "j",
  "PhaseEncodingSteps": 104,
  "PhaseResolution": 1,
  "PixelBandwidth": 2290,
  "ProcedureStepDescription": "games^mario",
  "ProtocolName": "func_task-mario_run-01",
  "PulseSequenceDetails": "%CustomerSeq%\\cmrr_mbep2d_bold",
  "ReceiveCoilActiveElements": "HC1-7;NC1,2",
  "ReceiveCoilName": "HeadNeck_64",
  "ReconMatrixPE": 104,
  "RepetitionTime": 1.49,
  "SAR": 0.0636986,
  "ScanOptions": "FS",
  "ScanningSequence": "EP",
  "SequenceName": "epfid2d1_104",
  "SequenceVariant": "SK\\SS",
  "SeriesDescription": "func_task-mario_run-01",
  "SeriesNumber": 10,
  "ShimSetting": [630, -7172, -8798, 616, 65, -1, -116, -1],
  "SliceThickness": 2,
  "SliceTiming": [0, 0.7825, 0.0975, 0.88, 0.195, 0.9775, 0.2925, 1.0775, 0.39, 1.175, 0.49, 1.2725, 0.5875, 1.37, 0.685, 0, 0.7825, 0.0975, 0.88, 0.195, 0.9775, 0.2925, 1.0775, 0.39, 1.175, 0.49, 1.2725, 0.5875, 1.37, 0.685, 0, 0.7825, 0.0975, 0.88, 0.195, 0.9775, 0.2925, 1.0775, 0.39, 1.175, 0.49, 1.2725, 0.5875, 1.37, 0.685, 0, 0.7825, 0.0975, 0.88, 0.195, 0.9775, 0.2925, 1.0775, 0.39, 1.175, 0.49, 1.2725, 0.5875, 1.37, 0.685],
  "SoftwareVersions": "syngo MR E11",
  "SpacingBetweenSlices": 2,
  "StationName": "MRC35049",
  "TaskName": "mario",
  "TotalReadoutTime": 0.0576811,
  "TxRefAmp": 302.651,
  "WipMemBlock": "00e25cc1-a6b4-4a6d-a9ca-3ac2b324a463||Sequence: R016 ve11c/master r/e634e98; Dec 19 2017 11:00:25 by eja",
  "dcmmeta_affine": [
    [-1.9905833005905151, -0.12140049040317535, 0.15112987160682678, 108.42500305175781],
    [-0.17416004836559296, 1.8046996593475342, -0.8442317247390747, -45.90343475341797],
    [0.08512693643569946, 0.853417158126831, 1.8067740201950073, -67.22602081298828],
    [0.0, 0.0, 0.0, 1.0]
],
  "dcmmeta_reorient_transform": [
    [0.0, -1.0, 0.0, 103.0],
    [1.0, 0.0, 0.0, 0.0],
    [0.0, 0.0, 1.0, 0.0],
    [0.0, 0.0, 0.0, 1.0]
],
  "dcmmeta_shape": [104, 104, 60, 420],
  "dcmmeta_slice_dim": 2,
  "dcmmeta_version": 0.6,
  "global": {
    "const": {
      "AcquisitionMatrix": [104, 0, 0, 104],
      "AngioFlag": "N",
      "BitsAllocated": 16,
      "BitsStored": 16,
      "BodyPartExamined": "BRAIN",
      "Columns": 832,
      "EchoNumbers": 1,
      "EchoTime": 37.0,
      "EchoTrainLength": 104,
      "FlipAngle": 52.0,
      "HighBit": 15,
      "ImageOrientationPatient": [0.99529162606503, 0.08708002130633, 0.04256346994925, -0.0607002464055, 0.90234985793912, -0.426708582013],
      "ImagePositionPatient": [-776.30327886186, -860.28558888402, 300.33358866002],
      "ImageType": [
        "ORIGINAL",
        "PRIMARY",
        "M",
        "MB",
        "ND",
        "MOSAIC"
],
      "ImagedNucleus": "1H",
      "ImagingFrequency": 123.258833,
      "InPlanePhaseEncodingDirection": "COL",
      "MRAcquisitionType": "2D",
      "MagneticFieldStrength": 3.0,
      "Manufacturer": "SIEMENS",
      "ManufacturerModelName": "Prisma_fit",
      "Modality": "MR",
      "NumberOfAverages": 1.0,
      "NumberOfPhaseEncodingSteps": 104,
      "PercentPhaseFieldOfView": 100.0,
      "PercentSampling": 100.0,
      "PerformedProcedureStepStartTime": "172117.525000",
      "PhotometricInterpretation": "MONOCHROME2",
      "PixelBandwidth": 2290.0,
      "PixelRepresentation": 0,
      "PixelSpacing": [2.0, 2.0],
      "ProtocolName": "func_task-mario_run-01",
      "RepetitionTime": 1490.0,
      "Rows": 832,
      "SAR": 0.06369860223008,
      "SamplesPerPixel": 1,
      "ScanOptions": "FS",
      "ScanningSequence": "EP",
      "SequenceName": "epfid2d1_104",
      "SequenceVariant": [
        "SK",
        "SS"
],
      "SeriesDescription": "func_task-mario_run-01",
      "SeriesNumber": 10,
      "SeriesTime": "173458.620000",
      "SliceLocation": -33.1614196498,
      "SliceThickness": 2.0,
      "SmallestImagePixelValue": 0,
      "SoftwareVersions": "syngo MR E11",
      "SpacingBetweenSlices": 1.9999999678995,
      "SpecificCharacterSet": "ISO_IR 100",
      "StudyID": "1",
      "StudyTime": "172117.448000",
      "TransmitCoilName": "Body",
      "VariableFlipAngleFlag": "N",
      "WindowCenterWidthExplanation": "Algo1",
      "dBdt": 0.0},
    "slices": {}
  },
  "time": {
    "samples": {
      "AcquisitionNumber": [1, 2, 3, 4, 5, 6, 7, 8, 9, 10, 11, 12, 13, 14, 15, 16, 17, 18, 19, 20, 21, 22, 23, 24, 25, 26, 27, 28, 29, 30, 31, 32, 33, 34, 35, 36, 37, 38, 39, 40, 41, 42, 43, 44, 45, 46, 47, 48, 49, 50, 51, 52, 53, 54, 55, 56, 57, 58, 59, 60, 61, 62, 63, 64, 65, 66, 67, 68, 69, 70, 71, 72, 73, 74, 75, 76, 77, 78, 79, 80, 81, 82, 83, 84, 85, 86, 87, 88, 89, 90, 91, 92, 93, 94, 95, 96, 97, 98, 99, 100, 101, 102, 103, 104, 105, 106, 107, 108, 109, 110, 111, 112, 113, 114, 115, 116, 117, 118, 119, 120, 121, 122, 123, 124, 125, 126, 127, 128, 129, 130, 131, 132, 133, 134, 135, 136, 137, 138, 139, 140, 141, 142, 143, 144, 145, 146, 147, 148, 149, 150, 151, 152, 153, 154, 155, 156, 157, 158, 159, 160, 161, 162, 163, 164, 165, 166, 167, 168, 169, 170, 171, 172, 173, 174, 175, 176, 177, 178, 179, 180, 181, 182, 183, 184, 185, 186, 187, 188, 189, 190, 191, 192, 193, 194, 195, 196, 197, 198, 199, 200, 201, 202, 203, 204, 205, 206, 207, 208, 209, 210, 211, 212, 213, 214, 215, 216, 217, 218, 219, 220, 221, 222, 223, 224, 225, 226, 227, 228, 229, 230, 231, 232, 233, 234, 235, 236, 237, 238, 239, 240, 241, 242, 243, 244, 245, 246, 247, 248, 249, 250, 251, 252, 253, 254, 255, 256, 257, 258, 259, 260, 261, 262, 263, 264, 265, 266, 267, 268, 269, 270, 271, 272, 273, 274, 275, 276, 277, 278, 279, 280, 281, 282, 283, 284, 285, 286, 287, 288, 289, 290, 291, 292, 293, 294, 295, 296, 297, 298, 299, 300, 301, 302, 303, 304, 305, 306, 307, 308, 309, 310, 311, 312, 313, 314, 315, 316, 317, 318, 319, 320, 321, 322, 323, 324, 325, 326, 327, 328, 329, 330, 331, 332, 333, 334, 335, 336, 337, 338, 339, 340, 341, 342, 343, 344, 345, 346, 347, 348, 349, 350, 351, 352, 353, 354, 355, 356, 357, 358, 359, 360, 361, 362, 363, 364, 365, 366, 367, 368, 369, 370, 371, 372, 373, 374, 375, 376, 377, 378, 379, 380, 381, 382, 383, 384, 385, 386, 387, 388, 389, 390, 391, 392, 393, 394, 395, 396, 397, 398, 399, 400, 401, 402, 403, 404, 405, 406, 407, 408, 409, 410, 411, 412, 413, 414, 415, 416, 417, 418, 419, 420],
      "AcquisitionTime": ["173401.782500", "173403.272500", "173404.762500", "173406.252500", "173407.742500", "173409.232500", "173410.722500", "173412.212500", "173413.702500", "173415.192500", "173416.682500", "173418.172500", "173419.662500", "173421.152500", "173422.642500", "173424.132500", "173425.622500", "173427.112500", "173428.602500", "173430.092500", "173431.582500", "173433.072500", "173434.562500", "173436.052500", "173437.542500", "173439.032500", "173440.522500", "173442.012500", "173443.502500", "173444.992500", "173446.482500", "173447.972500", "173449.462500", "173450.952500", "173452.442500", "173453.932500", "173455.422500", "173456.912500", "173458.402500", "173459.892500", "173501.382500", "173502.872500", "173504.362500", "173505.852500", "173507.342500", "173508.832500", "173510.322500", "173511.812500", "173513.302500", "173514.792500", "173516.282500", "173517.772500", "173519.262500", "173520.752500", "173522.242500", "173523.732500", "173525.222500", "173526.712500", "173528.202500", "173529.692500", "173531.182500", "173532.672500", "173534.162500", "173535.652500", "173537.142500", "173538.632500", "173540.122500", "173541.612500", "173543.102500", "173544.592500", "173546.082500", "173547.572500", "173549.062500", "173550.552500", "173552.042500", "173553.532500", "173555.022500", "173556.512500", "173558.002500", "173559.492500", "173600.982500", "173602.472500", "173603.962500", "173605.452500", "173606.942500", "173608.432500", "173609.922500", "173611.412500", "173612.902500", "173614.392500", "173615.882500", "173617.372500", "173618.862500", "173620.352500", "173621.842500", "173623.332500", "173624.822500", "173626.312500", "173627.802500", "173629.292500", "173630.782500", "173632.272500", "173633.762500", "173635.252500", "173636.742500", "173638.232500", "173639.722500", "173641.212500", "173642.702500", "173644.192500", "173645.682500", "173647.172500", "173648.662500", "173650.152500", "173651.642500", "173653.132500", "173654.622500", "173656.112500", "173657.602500", "173659.092500", "173700.582500", "173702.072500", "173703.562500", "173705.052500", "173706.542500", "173708.032500", "173709.522500", "173711.012500", "173712.502500", "173713.992500", "173715.482500", "173716.972500", "173718.462500", "173719.952500", "173721.442500", "173722.932500", "173724.422500", "173725.912500", "173727.402500", "173728.892500", "173730.382500", "173731.872500", "173733.362500", "173734.852500", "173736.342500", "173737.832500", "173739.322500", "173740.812500", "173742.302500", "173743.792500", "173745.282500", "173746.772500", "173748.262500", "173749.752500", "173751.242500", "173752.732500", "173754.222500", "173755.712500", "173757.202500", "173758.692500", "173800.182500", "173801.672500", "173803.162500", "173804.652500", "173806.142500", "173807.632500", "173809.122500", "173810.612500", "173812.102500", "173813.592500", "173815.082500", "173816.572500", "173818.062500", "173819.552500", "173821.042500", "173822.532500", "173824.022500", "173825.512500", "173827.002500", "173828.492500", "173829.982500", "173831.472500", "173832.962500", "173834.452500", "173835.942500", "173837.432500", "173838.922500", "173840.412500", "173841.902500", "173843.392500", "173844.882500", "173846.372500", "173847.862500", "173849.352500", "173850.842500", "173852.332500", "173853.822500", "173855.312500", "173856.802500", "173858.292500", "173859.782500", "173901.272500", "173902.762500", "173904.252500", "173905.742500", "173907.232500", "173908.722500", "173910.212500", "173911.702500", "173913.192500", "173914.682500", "173916.172500", "173917.662500", "173919.152500", "173920.642500", "173922.132500", "173923.622500", "173925.112500", "173926.602500", "173928.092500", "173929.582500", "173931.072500", "173932.562500", "173934.052500", "173935.542500", "173937.032500", "173938.522500", "173940.012500", "173941.502500", "173942.992500", "173944.482500", "173945.972500", "173947.462500", "173948.952500", "173950.442500", "173951.932500", "173953.422500", "173954.912500", "173956.402500", "173957.892500", "173959.382500", "174000.872500", "174002.362500", "174003.852500", "174005.342500", "174006.832500", "174008.322500", "174009.812500", "174011.302500", "174012.792500", "174014.282500", "174015.772500", "174017.262500", "174018.752500", "174020.242500", "174021.732500", "174023.222500", "174024.712500", "174026.202500", "174027.692500", "174029.182500", "174030.672500", "174032.162500", "174033.652500", "174035.142500", "174036.632500", "174038.122500", "174039.612500", "174041.102500", "174042.592500", "174044.082500", "174045.572500", "174047.062500", "174048.552500", "174050.042500", "174051.532500", "174053.022500", "174054.512500", "174056.002500", "174057.492500", "174058.982500", "174100.472500", "174101.962500", "174103.452500", "174104.942500", "174106.432500", "174107.922500", "174109.412500", "174110.902500", "174112.392500", "174113.882500", "174115.372500", "174116.862500", "174118.352500", "174119.842500", "174121.332500", "174122.822500", "174124.312500", "174125.802500", "174127.292500", "174128.782500", "174130.272500", "174131.762500", "174133.252500", "174134.742500", "174136.232500", "174137.722500", "174139.212500", "174140.702500", "174142.192500", "174143.682500", "174145.172500", "174146.662500", "174148.152500", "174149.642500", "174151.132500", "174152.622500", "174154.112500", "174155.602500", "174157.092500", "174158.582500", "174200.072500", "174201.562500", "174203.052500", "174204.542500", "174206.032500", "174207.522500", "174209.012500", "174210.502500", "174211.992500", "174213.482500", "174214.972500", "174216.462500", "174217.952500", "174219.442500", "174220.932500", "174222.422500", "174223.912500", "174225.402500", "174226.892500", "174228.382500", "174229.872500", "174231.362500", "174232.852500", "174234.342500", "174235.832500", "174237.322500", "174238.812500", "174240.302500", "174241.792500", "174243.282500", "174244.772500", "174246.262500", "174247.752500", "174249.242500", "174250.732500", "174252.222500", "174253.712500", "174255.202500", "174256.692500", "174258.182500", "174259.672500", "174301.162500", "174302.652500", "174304.142500", "174305.632500", "174307.122500", "174308.612500", "174310.102500", "174311.592500", "174313.082500", "174314.572500", "174316.062500", "174317.552500", "174319.042500", "174320.532500", "174322.022500", "174323.512500", "174325.002500", "174326.492500", "174327.982500", "174329.472500", "174330.962500", "174332.452500", "174333.942500", "174335.432500", "174336.922500", "174338.412500", "174339.902500", "174341.392500", "174342.882500", "174344.372500", "174345.862500", "174347.352500", "174348.842500", "174350.332500", "174351.822500", "174353.312500", "174354.802500", "174356.292500", "174357.782500", "174359.272500", "174400.762500", "174402.252500", "174403.742500", "174405.232500", "174406.722500", "174408.212500", "174409.702500", "174411.192500", "174412.682500", "174414.172500", "174415.662500", "174417.152500", "174418.642500", "174420.132500", "174421.622500", "174423.112500", "174424.602500", "174426.092500"],
      "ContentTime": ["173458.623000", "173458.627000", "173458.630000", "173518.589000", "173518.593000", "173518.614000", "173518.617000", "173518.620000", "173518.623000", "173518.627000", "173518.630000", "173518.633000", "173518.636000", "173518.640000", "173518.643000", "173518.646000", "173518.649000", "173518.653000", "173518.656000", "173518.659000", "173518.662000", "173518.666000", "173518.669000", "173538.587000", "173538.591000", "173538.594000", "173538.597000", "173538.600000", "173538.604000", "173538.607000", "173538.610000", "173538.613000", "173538.617000", "173538.620000", "173538.623000", "173538.626000", "173538.630000", "173538.633000", "173538.636000", "173538.640000", "173538.643000", "173538.646000", "173538.649000", "173558.587000", "173558.591000", "173558.594000", "173558.597000", "173558.601000", "173558.604000", "173558.607000", "173558.610000", "173558.614000", "173558.617000", "173558.620000", "173558.623000", "173558.627000", "173558.630000", "173558.633000", "173558.637000", "173558.640000", "173558.643000", "173558.646000", "173558.650000", "173618.588000", "173618.592000", "173618.595000", "173618.598000", "173618.602000", "173618.605000", "173618.608000", "173618.611000", "173618.615000", "173618.618000", "173618.621000", "173618.624000", "173618.627000", "173618.631000", "173618.634000", "173618.637000", "173618.640000", "173618.644000", "173618.647000", "173618.650000", "173638.588000", "173638.592000", "173638.595000", "173638.598000", "173638.601000", "173638.605000", "173638.608000", "173638.611000", "173638.614000", "173638.617000", "173638.621000", "173638.624000", "173638.627000", "173638.630000", "173638.634000", "173638.637000", "173638.640000", "173638.644000", "173638.647000", "173638.654000", "173638.664000", "173718.588000", "173718.605000", "173718.609000", "173718.612000", "173718.615000", "173718.619000", "173718.622000", "173718.625000", "173718.628000", "173718.632000", "173718.635000", "173718.638000", "173718.642000", "173718.645000", "173718.648000", "173718.652000", "173718.655000", "173718.658000", "173718.661000", "173718.665000", "173718.668000", "173718.671000", "173718.674000", "173718.678000", "173718.681000", "173718.685000", "173718.688000", "173758.587000", "173758.591000", "173758.594000", "173758.597000", "173758.601000", "173758.604000", "173758.607000", "173758.611000", "173758.614000", "173758.617000", "173758.621000", "173758.624000", "173758.627000", "173758.630000", "173758.634000", "173758.637000", "173758.640000", "173758.644000", "173758.647000", "173758.650000", "173758.654000", "173758.657000", "173758.660000", "173758.663000", "173758.667000", "173758.679000", "173758.682000", "173838.587000", "173838.591000", "173838.594000", "173838.598000", "173838.601000", "173838.604000", "173838.608000", "173838.611000", "173838.614000", "173838.617000", "173838.621000", "173838.624000", "173838.627000", "173838.630000", "173838.634000", "173838.637000", "173838.640000", "173838.644000", "173838.647000", "173838.650000", "173838.654000", "173838.657000", "173838.660000", "173838.664000", "173838.667000", "173838.670000", "173838.673000", "173918.588000", "173918.598000", "173918.601000", "173918.605000", "173918.608000", "173918.611000", "173918.615000", "173918.618000", "173918.621000", "173918.625000", "173918.628000", "173918.631000", "173918.635000", "173918.638000", "173918.641000", "173918.644000", "173918.648000", "173918.651000", "173918.654000", "173918.658000", "173918.661000", "173918.664000", "173918.668000", "173918.680000", "173918.693000", "173918.696000", "173918.699000", "173958.588000", "173958.592000", "173958.602000", "173958.606000", "173958.609000", "173958.612000", "173958.615000", "173958.619000", "173958.622000", "173958.625000", "173958.629000", "173958.632000", "173958.635000", "173958.639000", "173958.642000", "173958.645000", "173958.648000", "173958.652000", "173958.655000", "173958.658000", "173958.661000", "173958.665000", "173958.668000", "173958.671000", "173958.674000", "173958.678000", "173958.681000", "174038.587000", "174038.591000", "174038.594000", "174038.598000", "174038.601000", "174038.604000", "174038.608000", "174038.611000", "174038.614000", "174038.618000", "174038.621000", "174038.624000", "174038.627000", "174038.631000", "174038.634000", "174038.637000", "174038.641000", "174038.644000", "174038.647000", "174038.651000", "174038.654000", "174038.657000", "174038.660000", "174038.664000", "174038.667000", "174038.670000", "174038.674000", "174118.588000", "174118.592000", "174118.595000", "174118.599000", "174118.602000", "174118.605000", "174118.608000", "174118.612000", "174118.615000", "174118.619000", "174118.622000", "174118.625000", "174118.629000", "174118.632000", "174118.635000", "174118.639000", "174118.642000", "174118.645000", "174118.648000", "174118.652000", "174118.655000", "174118.658000", "174118.662000", "174118.665000", "174118.668000", "174118.672000", "174118.675000", "174158.588000", "174158.592000", "174158.595000", "174158.599000", "174158.602000", "174158.605000", "174158.608000", "174158.625000", "174158.628000", "174158.632000", "174158.635000", "174158.638000", "174158.641000", "174158.645000", "174158.648000", "174158.651000", "174158.655000", "174158.658000", "174158.661000", "174158.664000", "174158.668000", "174158.671000", "174158.674000", "174158.678000", "174158.682000", "174158.685000", "174218.588000", "174218.592000", "174218.595000", "174218.599000", "174218.602000", "174218.605000", "174218.609000", "174218.612000", "174218.615000", "174218.619000", "174218.622000", "174218.625000", "174218.628000", "174218.632000", "174258.587000", "174258.591000", "174258.594000", "174258.597000", "174258.601000", "174258.604000", "174258.607000", "174258.611000", "174258.614000", "174258.617000", "174258.621000", "174258.624000", "174258.627000", "174258.630000", "174258.634000", "174258.637000", "174258.640000", "174258.644000", "174258.647000", "174258.650000", "174258.653000", "174258.657000", "174258.660000", "174258.663000", "174258.666000", "174258.670000", "174258.673000", "174338.588000", "174338.592000", "174338.595000", "174338.599000", "174338.602000", "174338.605000", "174338.609000", "174338.612000", "174338.616000", "174338.619000", "174338.622000", "174338.626000", "174338.631000", "174338.634000", "174338.638000", "174338.641000", "174338.644000", "174338.661000", "174338.664000", "174338.668000", "174338.671000", "174338.674000", "174338.677000", "174338.681000", "174338.684000", "174338.689000", "174418.603000", "174418.607000", "174418.610000", "174418.613000", "174418.617000", "174418.620000", "174418.623000", "174418.626000", "174418.630000", "174418.633000", "174418.636000", "174418.639000", "174418.643000", "174418.646000", "174418.649000", "174418.653000", "174418.656000", "174418.659000", "174418.662000", "174418.666000", "174418.669000", "174418.672000", "174418.676000", "174418.679000", "174418.682000", "174418.685000", "174418.689000", "174428.442000", "174428.446000", "174428.449000", "174428.452000", "174428.456000", "174428.459000", "174428.462000"],
      "InstanceCreationTime": ["173458.623000", "173458.627000", "173458.630000", "173518.589000", "173518.593000", "173518.614000", "173518.617000", "173518.620000", "173518.623000", "173518.627000", "173518.630000", "173518.633000", "173518.636000", "173518.640000", "173518.643000", "173518.646000", "173518.649000", "173518.653000", "173518.656000", "173518.659000", "173518.662000", "173518.666000", "173518.669000", "173538.587000", "173538.591000", "173538.594000", "173538.597000", "173538.600000", "173538.604000", "173538.607000", "173538.610000", "173538.613000", "173538.617000", "173538.620000", "173538.623000", "173538.626000", "173538.630000", "173538.633000", "173538.636000", "173538.640000", "173538.643000", "173538.646000", "173538.649000", "173558.587000", "173558.591000", "173558.594000", "173558.597000", "173558.601000", "173558.604000", "173558.607000", "173558.610000", "173558.614000", "173558.617000", "173558.620000", "173558.623000", "173558.627000", "173558.630000", "173558.633000", "173558.637000", "173558.640000", "173558.643000", "173558.646000", "173558.650000", "173618.588000", "173618.592000", "173618.595000", "173618.598000", "173618.602000", "173618.605000", "173618.608000", "173618.611000", "173618.615000", "173618.618000", "173618.621000", "173618.624000", "173618.627000", "173618.631000", "173618.634000", "173618.637000", "173618.640000", "173618.644000", "173618.647000", "173618.650000", "173638.588000", "173638.592000", "173638.595000", "173638.598000", "173638.601000", "173638.605000", "173638.608000", "173638.611000", "173638.614000", "173638.617000", "173638.621000", "173638.624000", "173638.627000", "173638.630000", "173638.634000", "173638.637000", "173638.640000", "173638.644000", "173638.647000", "173638.654000", "173638.664000", "173718.588000", "173718.605000", "173718.609000", "173718.612000", "173718.615000", "173718.619000", "173718.622000", "173718.625000", "173718.628000", "173718.632000", "173718.635000", "173718.638000", "173718.642000", "173718.645000", "173718.648000", "173718.652000", "173718.655000", "173718.658000", "173718.661000", "173718.665000", "173718.668000", "173718.671000", "173718.674000", "173718.678000", "173718.681000", "173718.685000", "173718.688000", "173758.587000", "173758.591000", "173758.594000", "173758.597000", "173758.601000", "173758.604000", "173758.607000", "173758.611000", "173758.614000", "173758.617000", "173758.621000", "173758.624000", "173758.627000", "173758.630000", "173758.634000", "173758.637000", "173758.640000", "173758.644000", "173758.647000", "173758.650000", "173758.654000", "173758.657000", "173758.660000", "173758.663000", "173758.667000", "173758.679000", "173758.682000", "173838.587000", "173838.591000", "173838.594000", "173838.598000", "173838.601000", "173838.604000", "173838.608000", "173838.611000", "173838.614000", "173838.617000", "173838.621000", "173838.624000", "173838.627000", "173838.630000", "173838.634000", "173838.637000", "173838.640000", "173838.644000", "173838.647000", "173838.650000", "173838.654000", "173838.657000", "173838.660000", "173838.664000", "173838.667000", "173838.670000", "173838.673000", "173918.588000", "173918.598000", "173918.601000", "173918.605000", "173918.608000", "173918.611000", "173918.615000", "173918.618000", "173918.621000", "173918.625000", "173918.628000", "173918.631000", "173918.635000", "173918.638000", "173918.641000", "173918.644000", "173918.648000", "173918.651000", "173918.654000", "173918.658000", "173918.661000", "173918.664000", "173918.668000", "173918.680000", "173918.693000", "173918.696000", "173918.699000", "173958.588000", "173958.592000", "173958.602000", "173958.606000", "173958.609000", "173958.612000", "173958.615000", "173958.619000", "173958.622000", "173958.625000", "173958.629000", "173958.632000", "173958.635000", "173958.639000", "173958.642000", "173958.645000", "173958.648000", "173958.652000", "173958.655000", "173958.658000", "173958.661000", "173958.665000", "173958.668000", "173958.671000", "173958.674000", "173958.678000", "173958.681000", "174038.587000", "174038.591000", "174038.594000", "174038.598000", "174038.601000", "174038.604000", "174038.608000", "174038.611000", "174038.614000", "174038.618000", "174038.621000", "174038.624000", "174038.627000", "174038.631000", "174038.634000", "174038.637000", "174038.641000", "174038.644000", "174038.647000", "174038.651000", "174038.654000", "174038.657000", "174038.660000", "174038.664000", "174038.667000", "174038.670000", "174038.674000", "174118.588000", "174118.592000", "174118.595000", "174118.599000", "174118.602000", "174118.605000", "174118.608000", "174118.612000", "174118.615000", "174118.619000", "174118.622000", "174118.625000", "174118.629000", "174118.632000", "174118.635000", "174118.639000", "174118.642000", "174118.645000", "174118.648000", "174118.652000", "174118.655000", "174118.658000", "174118.662000", "174118.665000", "174118.668000", "174118.672000", "174118.675000", "174158.588000", "174158.592000", "174158.595000", "174158.599000", "174158.602000", "174158.605000", "174158.608000", "174158.625000", "174158.628000", "174158.632000", "174158.635000", "174158.638000", "174158.641000", "174158.645000", "174158.648000", "174158.651000", "174158.655000", "174158.658000", "174158.661000", "174158.664000", "174158.668000", "174158.671000", "174158.674000", "174158.678000", "174158.682000", "174158.685000", "174218.588000", "174218.592000", "174218.595000", "174218.599000", "174218.602000", "174218.605000", "174218.609000", "174218.612000", "174218.615000", "174218.619000", "174218.622000", "174218.625000", "174218.628000", "174218.632000", "174258.587000", "174258.591000", "174258.594000", "174258.597000", "174258.601000", "174258.604000", "174258.607000", "174258.611000", "174258.614000", "174258.617000", "174258.621000", "174258.624000", "174258.627000", "174258.630000", "174258.634000", "174258.637000", "174258.640000", "174258.644000", "174258.647000", "174258.650000", "174258.653000", "174258.657000", "174258.660000", "174258.663000", "174258.666000", "174258.670000", "174258.673000", "174338.588000", "174338.592000", "174338.595000", "174338.599000", "174338.602000", "174338.605000", "174338.609000", "174338.612000", "174338.616000", "174338.619000", "174338.622000", "174338.626000", "174338.631000", "174338.634000", "174338.638000", "174338.641000", "174338.644000", "174338.661000", "174338.664000", "174338.668000", "174338.671000", "174338.674000", "174338.677000", "174338.681000", "174338.684000", "174338.689000", "174418.603000", "174418.607000", "174418.610000", "174418.613000", "174418.617000", "174418.620000", "174418.623000", "174418.626000", "174418.630000", "174418.633000", "174418.636000", "174418.639000", "174418.643000", "174418.646000", "174418.649000", "174418.653000", "174418.656000", "174418.659000", "174418.662000", "174418.666000", "174418.669000", "174418.672000", "174418.676000", "174418.679000", "174418.682000", "174418.685000", "174418.689000", "174428.442000", "174428.446000", "174428.449000", "174428.452000", "174428.456000", "174428.459000", "174428.462000"],
