{
  "AcquisitionMatrixPE": 104,
  "AcquisitionNumber": 1,
  "AcquisitionTime": "17:42:12.742500",
  "BandwidthPerPixelPhaseEncode": 17.17,
  "BaseResolution": 104,
  "BodyPartExamined": "BRAIN",
  "CoilCombinationMethod": "Sum of Squares",
  "ConsistencyInfo": "N4_VE11C_LATEST_20160120",
  "ConversionSoftware": "dcm2niix",
  "ConversionSoftwareVersion": "v1.0.20211006",
  "DerivedVendorReportedEchoSpacing": 0.000560011,
  "DeviceSerialNumber": "167006",
  "DwellTime": 2.1e-06,
  "EchoTime": 0.037,
  "EchoTrainLength": 104,
  "EffectiveEchoSpacing": 0.000560011,
  "FlipAngle": 52,
  "HeudiconvVersion": "0.10.0",
  "ImageComments": "Unaliased MB4/PE3/LB",
  "ImageOrientationPatientDICOM": [0.999483, 0.00640232, 0.0315127, 0.00244225, 0.962036, -0.272913],
  "ImageOrientationText": "Tra>Cor(-15.8)>Sag(1.8)",
  "ImageType": [
    "ORIGINAL",
    "PRIMARY",
    "M",
    "MB",
    "ND",
    "MOSAIC"
],
  "ImagingFrequency": 123.259,
  "InPlanePhaseEncodingDirectionDICOM": "COL",
  "InstitutionAddress": "Chemin Queen-Mary 4565,Montreal,District,CA,H3W 1W5",
  "InstitutionName": "IUGM",
  "InstitutionalDepartmentName": "Department",
  "MRAcquisitionType": "2D",
  "MagneticFieldStrength": 3,
  "Manufacturer": "Siemens",
  "ManufacturersModelName": "Prisma_fit",
  "MatrixCoilMode": "SENSE",
  "Modality": "MR",
  "MultibandAccelerationFactor": 4,
  "PartialFourier": 1,
  "PatientPosition": "HFS",
  "PercentPhaseFOV": 100,
  "PercentSampling": 100,
  "PhaseEncodingDirection": "j",
  "PhaseEncodingSteps": 104,
  "PhaseResolution": 1,
  "PixelBandwidth": 2290,
  "ProcedureStepDescription": "games^mario",
  "ProtocolName": "func_task-mario_run-03",
  "PulseSequenceDetails": "%CustomerSeq%\\cmrr_mbep2d_bold",
  "ReceiveCoilActiveElements": "HC1-7;NC1,2",
  "ReceiveCoilName": "HeadNeck_64",
  "ReconMatrixPE": 104,
  "RepetitionTime": 1.49,
  "SAR": 0.0492056,
  "ScanOptions": "FS",
  "ScanningSequence": "EP",
  "SequenceName": "epfid2d1_104",
  "SequenceVariant": "SK\\SS",
  "SeriesDescription": "func_task-mario_run-03",
  "SeriesNumber": 16,
  "ShimSetting": [635, -7223, -8788, 709, 40, -33, 57, -23],
  "SliceThickness": 2,
  "SliceTiming": [0, 0.7825, 0.0975, 0.88, 0.195, 0.98, 0.2925, 1.0775, 0.39, 1.175, 0.49, 1.2725, 0.5875, 1.37, 0.685, 0, 0.7825, 0.0975, 0.88, 0.195, 0.98, 0.2925, 1.0775, 0.39, 1.175, 0.49, 1.2725, 0.5875, 1.37, 0.685, 0, 0.7825, 0.0975, 0.88, 0.195, 0.98, 0.2925, 1.0775, 0.39, 1.175, 0.49, 1.2725, 0.5875, 1.37, 0.685, 0, 0.7825, 0.0975, 0.88, 0.195, 0.98, 0.2925, 1.0775, 0.39, 1.175, 0.49, 1.2725, 0.5875, 1.37, 0.685],
  "SoftwareVersions": "syngo MR E11",
  "SpacingBetweenSlices": 2,
  "StationName": "MRC35049",
  "TaskName": "mario",
  "TotalReadoutTime": 0.0576811,
  "TxRefAmp": 237.366,
  "WipMemBlock": "621a5750-ad01-4a1f-8e5f-6ad5458455f0||Sequence: R016 ve11c/master r/e634e98; Dec 19 2017 11:00:25 by eja",
  "dcmmeta_affine": [
    [-1.9989657402038574, 0.004884491208940744, 0.06412726640701294, 107.16583251953125],
    [-0.012804631143808365, 1.9240710735321045, -0.5456981062889099, -72.16642761230469],
    [0.06302543729543686, 0.5458264350891113, 1.9230448007583618, -65.45317840576172],
    [0.0, 0.0, 0.0, 1.0]
],
  "dcmmeta_reorient_transform": [
    [0.0, -1.0, 0.0, 103.0],
    [1.0, 0.0, 0.0, 0.0],
    [0.0, 0.0, 1.0, 0.0],
    [0.0, 0.0, 0.0, 1.0]
],
  "dcmmeta_shape": [104, 104, 60, 439],
  "dcmmeta_slice_dim": 2,
  "dcmmeta_version": 0.6,
  "global": {
    "const": {
      "AcquisitionMatrix": [104, 0, 0, 104],
      "AngioFlag": "N",
      "BitsAllocated": 16,
      "BitsStored": 16,
      "BodyPartExamined": "BRAIN",
      "Columns": 832,
      "EchoNumbers": 1,
      "EchoTime": 37.0,
      "EchoTrainLength": 104,
      "FlipAngle": 52.0,
      "HighBit": 15,
      "ImageOrientationPatient": [0.99948284571358, 0.00640231569398, 0.03151271930579, 0.00244224551062, 0.96203555425431, -0.2729132239146],
      "ImagePositionPatient": [-837.0704049177, -831.03566454747, 166.50651667902],
      "ImageType": [
        "ORIGINAL",
        "PRIMARY",
        "M",
        "MB",
        "ND",
        "MOSAIC"
],
      "ImagedNucleus": "1H",
      "ImagingFrequency": 123.258876,
      "InPlanePhaseEncodingDirection": "COL",
      "MRAcquisitionType": "2D",
      "MagneticFieldStrength": 3.0,
      "Manufacturer": "SIEMENS",
      "ManufacturerModelName": "Prisma_fit",
      "Modality": "MR",
      "NumberOfAverages": 1.0,
      "NumberOfPhaseEncodingSteps": 104,
      "PercentPhaseFieldOfView": 100.0,
      "PercentSampling": 100.0,
      "PerformedProcedureStepStartTime": "165537.084000",
      "PhotometricInterpretation": "MONOCHROME2",
      "PixelBandwidth": 2290.0,
      "PixelRepresentation": 0,
      "PixelSpacing": [2.0, 2.0],
      "ProtocolName": "func_task-mario_run-03",
      "RepetitionTime": 1490.0,
      "Rows": 832,
      "SAR": 0.04920561631576,
      "SamplesPerPixel": 1,
      "ScanOptions": "FS",
      "ScanningSequence": "EP",
      "SequenceName": "epfid2d1_104",
      "SequenceVariant": [
        "SK",
        "SS"
],
      "SeriesDescription": "func_task-mario_run-03",
      "SeriesNumber": 16,
      "SeriesTime": "174309.858000",
      "SliceLocation": -39.808026122778,
      "SliceThickness": 2.0,
      "SmallestImagePixelValue": 0,
      "SoftwareVersions": "syngo MR E11",
      "SpacingBetweenSlices": 2.0000000298745,
      "SpecificCharacterSet": "ISO_IR 100",
      "StudyID": "1",
      "StudyTime": "165537.031000",
      "TransmitCoilName": "Body",
      "VariableFlipAngleFlag": "N",
      "WindowCenterWidthExplanation": "Algo1",
      "dBdt": 0.0},
    "slices": {}
  },
  "time": {
    "samples": {
      "AcquisitionNumber": [1, 2, 3, 4, 5, 6, 7, 8, 9, 10, 11, 12, 13, 14, 15, 16, 17, 18, 19, 20, 21, 22, 23, 24, 25, 26, 27, 28, 29, 30, 31, 32, 33, 34, 35, 36, 37, 38, 39, 40, 41, 42, 43, 44, 45, 46, 47, 48, 49, 50, 51, 52, 53, 54, 55, 56, 57, 58, 59, 60, 61, 62, 63, 64, 65, 66, 67, 68, 69, 70, 71, 72, 73, 74, 75, 76, 77, 78, 79, 80, 81, 82, 83, 84, 85, 86, 87, 88, 89, 90, 91, 92, 93, 94, 95, 96, 97, 98, 99, 100, 101, 102, 103, 104, 105, 106, 107, 108, 109, 110, 111, 112, 113, 114, 115, 116, 117, 118, 119, 120, 121, 122, 123, 124, 125, 126, 127, 128, 129, 130, 131, 132, 133, 134, 135, 136, 137, 138, 139, 140, 141, 142, 143, 144, 145, 146, 147, 148, 149, 150, 151, 152, 153, 154, 155, 156, 157, 158, 159, 160, 161, 162, 163, 164, 165, 166, 167, 168, 169, 170, 171, 172, 173, 174, 175, 176, 177, 178, 179, 180, 181, 182, 183, 184, 185, 186, 187, 188, 189, 190, 191, 192, 193, 194, 195, 196, 197, 198, 199, 200, 201, 202, 203, 204, 205, 206, 207, 208, 209, 210, 211, 212, 213, 214, 215, 216, 217, 218, 219, 220, 221, 222, 223, 224, 225, 226, 227, 228, 229, 230, 231, 232, 233, 234, 235, 236, 237, 238, 239, 240, 241, 242, 243, 244, 245, 246, 247, 248, 249, 250, 251, 252, 253, 254, 255, 256, 257, 258, 259, 260, 261, 262, 263, 264, 265, 266, 267, 268, 269, 270, 271, 272, 273, 274, 275, 276, 277, 278, 279, 280, 281, 282, 283, 284, 285, 286, 287, 288, 289, 290, 291, 292, 293, 294, 295, 296, 297, 298, 299, 300, 301, 302, 303, 304, 305, 306, 307, 308, 309, 310, 311, 312, 313, 314, 315, 316, 317, 318, 319, 320, 321, 322, 323, 324, 325, 326, 327, 328, 329, 330, 331, 332, 333, 334, 335, 336, 337, 338, 339, 340, 341, 342, 343, 344, 345, 346, 347, 348, 349, 350, 351, 352, 353, 354, 355, 356, 357, 358, 359, 360, 361, 362, 363, 364, 365, 366, 367, 368, 369, 370, 371, 372, 373, 374, 375, 376, 377, 378, 379, 380, 381, 382, 383, 384, 385, 386, 387, 388, 389, 390, 391, 392, 393, 394, 395, 396, 397, 398, 399, 400, 401, 402, 403, 404, 405, 406, 407, 408, 409, 410, 411, 412, 413, 414, 415, 416, 417, 418, 419, 420, 421, 422, 423, 424, 425, 426, 427, 428, 429, 430, 431, 432, 433, 434, 435, 436, 437, 438, 439],
      "AcquisitionTime": ["174212.742500", "174214.232500", "174215.722500", "174217.212500", "174218.702500", "174220.192500", "174221.682500", "174223.172500", "174224.662500", "174226.152500", "174227.642500", "174229.132500", "174230.622500", "174232.112500", "174233.602500", "174235.092500", "174236.582500", "174238.072500", "174239.562500", "174241.052500", "174242.542500", "174244.032500", "174245.522500", "174247.012500", "174248.502500", "174249.992500", "174251.482500", "174252.972500", "174254.462500", "174255.952500", "174257.442500", "174258.932500", "174300.422500", "174301.912500", "174303.402500", "174304.892500", "174306.382500", "174307.872500", "174309.362500", "174310.852500", "174312.342500", "174313.832500", "174315.322500", "174316.812500", "174318.302500", "174319.792500", "174321.282500", "174322.772500", "174324.262500", "174325.752500", "174327.242500", "174328.732500", "174330.222500", "174331.712500", "174333.202500", "174334.692500", "174336.182500", "174337.672500", "174339.162500", "174340.652500", "174342.142500", "174343.632500", "174345.122500", "174346.612500", "174348.102500", "174349.592500", "174351.082500", "174352.572500", "174354.062500", "174355.552500", "174357.042500", "174358.532500", "174400.022500", "174401.512500", "174403.002500", "174404.492500", "174405.982500", "174407.472500", "174408.962500", "174410.452500", "174411.942500", "174413.432500", "174414.922500", "174416.412500", "174417.902500", "174419.392500", "174420.882500", "174422.372500", "174423.862500", "174425.352500", "174426.842500", "174428.332500", "174429.822500", "174431.312500", "174432.802500", "174434.292500", "174435.782500", "174437.272500", "174438.762500", "174440.252500", "174441.742500", "174443.232500", "174444.722500", "174446.212500", "174447.702500", "174449.192500", "174450.682500", "174452.172500", "174453.662500", "174455.152500", "174456.642500", "174458.132500", "174459.622500", "174501.112500", "174502.602500", "174504.092500", "174505.582500", "174507.072500", "174508.562500", "174510.052500", "174511.542500", "174513.032500", "174514.522500", "174516.012500", "174517.502500", "174518.992500", "174520.482500", "174521.972500", "174523.462500", "174524.952500", "174526.442500", "174527.932500", "174529.422500", "174530.912500", "174532.402500", "174533.892500", "174535.382500", "174536.872500", "174538.362500", "174539.852500", "174541.342500", "174542.832500", "174544.322500", "174545.812500", "174547.302500", "174548.792500", "174550.282500", "174551.772500", "174553.262500", "174554.752500", "174556.242500", "174557.732500", "174559.222500", "174600.712500", "174602.202500", "174603.692500", "174605.182500", "174606.672500", "174608.162500", "174609.652500", "174611.142500", "174612.632500", "174614.122500", "174615.612500", "174617.102500", "174618.592500", "174620.082500", "174621.572500", "174623.062500", "174624.552500", "174626.042500", "174627.532500", "174629.022500", "174630.512500", "174632.002500", "174633.492500", "174634.982500", "174636.472500", "174637.962500", "174639.452500", "174640.942500", "174642.432500", "174643.922500", "174645.412500", "174646.902500", "174648.392500", "174649.882500", "174651.372500", "174652.862500", "174654.352500", "174655.842500", "174657.332500", "174658.822500", "174700.312500", "174701.802500", "174703.292500", "174704.782500", "174706.272500", "174707.762500", "174709.252500", "174710.742500", "174712.232500", "174713.722500", "174715.212500", "174716.702500", "174718.192500", "174719.682500", "174721.172500", "174722.662500", "174724.152500", "174725.642500", "174727.132500", "174728.622500", "174730.112500", "174731.602500", "174733.092500", "174734.582500", "174736.072500", "174737.562500", "174739.052500", "174740.542500", "174742.032500", "174743.522500", "174745.012500", "174746.502500", "174747.992500", "174749.482500", "174750.972500", "174752.462500", "174753.952500", "174755.442500", "174756.932500", "174758.422500", "174759.912500", "174801.402500", "174802.892500", "174804.382500", "174805.872500", "174807.362500", "174808.852500", "174810.342500", "174811.832500", "174813.322500", "174814.812500", "174816.302500", "174817.792500", "174819.282500", "174820.772500", "174822.262500", "174823.752500", "174825.242500", "174826.732500", "174828.222500", "174829.712500", "174831.202500", "174832.692500", "174834.182500", "174835.672500", "174837.162500", "174838.652500", "174840.142500", "174841.632500", "174843.122500", "174844.612500", "174846.102500", "174847.592500", "174849.082500", "174850.572500", "174852.062500", "174853.552500", "174855.042500", "174856.532500", "174858.022500", "174859.512500", "174901.002500", "174902.492500", "174903.982500", "174905.472500", "174906.962500", "174908.452500", "174909.942500", "174911.432500", "174912.922500", "174914.412500", "174915.902500", "174917.392500", "174918.882500", "174920.372500", "174921.862500", "174923.352500", "174924.842500", "174926.332500", "174927.822500", "174929.312500", "174930.802500", "174932.292500", "174933.782500", "174935.272500", "174936.762500", "174938.252500", "174939.742500", "174941.232500", "174942.722500", "174944.212500", "174945.702500", "174947.192500", "174948.682500", "174950.172500", "174951.662500", "174953.152500", "174954.642500", "174956.132500", "174957.622500", "174959.112500", "175000.602500", "175002.092500", "175003.582500", "175005.072500", "175006.562500", "175008.052500", "175009.542500", "175011.032500", "175012.522500", "175014.012500", "175015.502500", "175016.992500", "175018.482500", "175019.972500", "175021.462500", "175022.952500", "175024.442500", "175025.932500", "175027.422500", "175028.912500", "175030.402500", "175031.892500", "175033.382500", "175034.872500", "175036.362500", "175037.852500", "175039.342500", "175040.832500", "175042.322500", "175043.812500", "175045.302500", "175046.792500", "175048.282500", "175049.772500", "175051.262500", "175052.752500", "175054.242500", "175055.732500", "175057.222500", "175058.712500", "175100.202500", "175101.692500", "175103.182500", "175104.672500", "175106.162500", "175107.652500", "175109.142500", "175110.632500", "175112.122500", "175113.612500", "175115.102500", "175116.592500", "175118.082500", "175119.572500", "175121.062500", "175122.552500", "175124.042500", "175125.532500", "175127.022500", "175128.512500", "175130.002500", "175131.492500", "175132.982500", "175134.472500", "175135.962500", "175137.452500", "175138.942500", "175140.432500", "175141.922500", "175143.412500", "175144.902500", "175146.392500", "175147.882500", "175149.372500", "175150.862500", "175152.352500", "175153.842500", "175155.332500", "175156.822500", "175158.312500", "175159.802500", "175201.292500", "175202.782500", "175204.272500", "175205.762500", "175207.252500", "175208.742500", "175210.232500", "175211.722500", "175213.212500", "175214.702500", "175216.192500", "175217.682500", "175219.172500", "175220.662500", "175222.152500", "175223.642500", "175225.132500", "175226.622500", "175228.112500", "175229.602500", "175231.092500", "175232.582500", "175234.072500", "175235.562500", "175237.052500", "175238.542500", "175240.032500", "175241.522500", "175243.012500", "175244.502500", "175245.992500", "175247.482500", "175248.972500", "175250.462500", "175251.952500", "175253.442500", "175254.932500", "175256.422500", "175257.912500", "175259.402500", "175300.892500", "175302.382500", "175303.872500", "175305.362500"],
      "ContentTime": ["174309.861000", "174309.865000", "174309.868000", "174309.872000", "174329.810000", "174329.814000", "174329.817000", "174329.821000", "174329.829000", "174329.832000", "174329.836000", "174329.839000", "174329.842000", "174329.846000", "174329.849000", "174329.853000", "174329.856000", "174329.859000", "174329.863000", "174329.866000", "174329.869000", "174329.873000", "174329.876000", "174329.883000", "174349.810000", "174349.814000", "174349.817000", "174349.820000", "174349.824000", "174349.827000", "174349.830000", "174349.834000", "174349.837000", "174349.840000", "174349.844000", "174349.847000", "174349.850000", "174349.854000", "174349.857000", "174349.860000", "174349.864000", "174349.867000", "174349.870000", "174349.874000", "174349.877000", "174409.809000", "174409.813000", "174409.816000", "174409.820000", "174409.823000", "174409.826000", "174409.830000", "174409.833000", "174409.836000", "174409.840000", "174409.843000", "174409.846000", "174409.850000", "174409.853000", "174409.856000", "174409.860000", "174409.863000", "174409.866000", "174409.870000", "174409.873000", "174429.809000", "174429.813000", "174429.816000", "174429.820000", "174429.823000", "174429.826000", "174429.830000", "174429.833000", "174429.836000", "174429.839000", "174429.843000", "174429.846000", "174429.849000", "174429.853000", "174429.856000", "174429.859000", "174429.863000", "174429.866000", "174429.869000", "174429.873000", "174509.810000", "174509.814000", "174509.817000", "174509.821000", "174509.824000", "174509.828000", "174509.831000", "174509.834000", "174509.838000", "174509.841000", "174509.845000", "174509.848000", "174509.859000", "174509.863000", "174509.866000", "174509.877000", "174509.881000", "174509.884000", "174509.888000", "174509.891000", "174509.894000", "174509.898000", "174509.901000", "174509.905000", "174509.908000", "174509.911000", "174509.915000", "174509.918000", "174509.921000", "174509.925000", "174509.928000", "174509.932000", "174509.935000", "174549.810000", "174549.814000", "174549.817000", "174549.821000", "174549.824000", "174549.827000", "174549.831000", "174549.834000", "174549.838000", "174549.841000", "174549.844000", "174549.848000", "174549.851000", "174549.855000", "174549.858000", "174549.861000", "174549.865000", "174549.868000", "174549.872000", "174549.875000", "174549.879000", "174549.882000", "174549.885000", "174549.889000", "174549.892000", "174549.895000", "174549.899000", "174629.809000", "174629.813000", "174629.816000", "174629.820000", "174629.824000", "174629.827000", "174629.830000", "174629.834000", "174629.837000", "174629.841000", "174629.844000", "174629.847000", "174629.851000", "174629.854000", "174629.858000", "174629.861000", "174629.865000", "174629.868000", "174629.871000", "174629.875000", "174629.878000", "174629.881000", "174629.885000", "174629.889000", "174629.892000", "174629.896000", "174709.810000", "174709.814000", "174709.817000", "174709.821000", "174709.824000", "174709.827000", "174709.831000", "174709.834000", "174709.838000", "174709.841000", "174709.845000", "174709.848000", "174709.851000", "174709.855000", "174709.858000", "174709.861000", "174709.865000", "174709.868000", "174709.872000", "174709.875000", "174709.878000", "174709.881000", "174709.885000", "174709.888000", "174709.891000", "174709.895000", "174709.898000", "174749.810000", "174749.829000", "174749.833000", "174749.836000", "174749.840000", "174749.843000", "174749.846000", "174749.850000", "174749.853000", "174749.857000", "174749.860000", "174749.863000", "174749.867000", "174749.870000", "174749.873000", "174749.877000", "174749.880000", "174749.883000", "174749.887000", "174749.890000", "174749.894000", "174749.897000", "174749.900000", "174749.904000", "174749.907000", "174749.911000", "174749.914000", "174829.810000", "174829.814000", "174829.817000", "174829.821000", "174829.824000", "174829.827000", "174829.831000", "174829.834000", "174829.848000", "174829.852000", "174829.855000", "174829.858000", "174829.862000", "174829.865000", "174829.868000", "174829.872000", "174829.875000", "174829.879000", "174829.882000", "174829.885000", "174829.889000", "174829.892000", "174829.895000", "174829.899000", "174829.902000", "174829.905000", "174829.909000", "174909.809000", "174909.813000", "174909.816000", "174909.820000", "174909.823000", "174909.826000", "174909.830000", "174909.833000", "174909.837000", "174909.840000", "174909.843000", "174909.847000", "174909.850000", "174909.853000", "174909.857000", "174909.860000", "174909.863000", "174909.867000", "174909.870000", "174909.874000", "174909.877000", "174909.880000", "174909.883000", "174909.887000", "174909.906000", "174909.909000", "174909.912000", "174949.810000", "174949.814000", "174949.818000", "174949.821000", "174949.824000", "174949.828000", "174949.831000", "174949.835000", "174949.838000", "174949.841000", "174949.845000", "174949.848000", "174949.852000", "174949.855000", "174949.859000", "174949.862000", "174949.865000", "174949.869000", "174949.872000", "174949.876000", "174949.879000", "174949.882000", "174949.886000", "174949.905000", "174949.908000", "174949.912000", "174949.915000", "175029.810000", "175029.814000", "175029.817000", "175029.821000", "175029.824000", "175029.828000", "175029.831000", "175029.834000", "175029.838000", "175029.841000", "175029.845000", "175029.848000", "175029.851000", "175029.855000", "175029.858000", "175029.861000", "175029.865000", "175029.868000", "175029.872000", "175029.875000", "175029.878000", "175029.882000", "175029.885000", "175029.889000", "175029.892000", "175029.895000", "175029.899000", "175109.809000", "175109.813000", "175109.816000", "175109.820000", "175109.823000", "175109.827000", "175109.830000", "175109.833000", "175109.837000", "175109.840000", "175109.844000", "175109.847000", "175109.850000", "175109.854000", "175109.857000", "175109.861000", "175109.864000", "175109.867000", "175109.871000", "175109.874000", "175109.878000", "175109.882000", "175109.886000", "175109.889000", "175109.893000", "175109.896000", "175149.810000", "175149.814000", "175149.818000", "175149.821000", "175149.824000", "175149.828000", "175149.831000", "175149.835000", "175149.838000", "175149.842000", "175149.845000", "175149.849000", "175149.852000", "175149.855000", "175149.859000", "175149.862000", "175149.867000", "175149.871000", "175149.874000", "175149.877000", "175149.881000", "175149.884000", "175149.887000", "175149.891000", "175149.894000", "175149.898000", "175149.901000", "175229.829000", "175229.833000", "175229.836000", "175229.839000", "175229.843000", "175229.846000", "175229.850000", "175229.853000", "175229.857000", "175229.860000", "175229.863000", "175229.867000", "175229.870000", "175229.874000", "175229.877000", "175229.880000", "175229.884000", "175229.887000", "175229.891000", "175229.894000", "175229.897000", "175229.901000", "175229.904000", "175229.908000", "175229.912000", "175229.915000", "175229.918000", "175308.444000", "175308.452000", "175308.456000", "175308.460000", "175308.463000", "175308.466000", "175308.470000", "175308.473000", "175308.477000", "175308.480000", "175308.484000", "175308.487000", "175308.490000", "175308.494000", "175308.497000", "175308.500000", "175308.504000", "175308.507000", "175308.511000", "175308.514000", "175308.517000", "175308.521000", "175308.524000", "175308.527000", "175308.531000", "175308.534000"],
