{
  "AcquisitionMatrixPE": 104,
  "AcquisitionNumber": 1,
  "AcquisitionTime": "17:13:55.170000",
  "BandwidthPerPixelPhaseEncode": 17.17,
  "BaseResolution": 104,
  "BodyPartExamined": "BRAIN",
  "CoilCombinationMethod": "Sum of Squares",
  "ConsistencyInfo": "N4_VE11C_LATEST_20160120",
  "ConversionSoftware": "dcm2niix",
  "ConversionSoftwareVersion": "v1.0.20211006",
  "DerivedVendorReportedEchoSpacing": 0.000560011,
  "DeviceSerialNumber": "167006",
  "DwellTime": 2.1e-06,
  "EchoTime": 0.037,
  "EchoTime1": 0.037,
  "EchoTime2": 0.001,
  "EchoTrainLength": 104,
  "EffectiveEchoSpacing": 0.000560011,
  "FlipAngle": 52,
  "HeudiconvVersion": "0.10.0",
  "ImageComments": "Unaliased MB4/PE3/LB",
  "ImageOrientationPatientDICOM": [0.999483, 0.00640232, 0.0315127, 0.00244225, 0.962036, -0.272913],
  "ImageOrientationText": "Tra>Cor(-15.8)>Sag(1.8)",
  "ImageType": [
    "ORIGINAL",
    "PRIMARY",
    "P",
    "MB",
    "ND",
    "MOSAIC",
    "PHASE"
],
  "ImagingFrequency": 123.259,
  "InPlanePhaseEncodingDirectionDICOM": "COL",
  "InstitutionAddress": "Chemin Queen-Mary 4565,Montreal,District,CA,H3W 1W5",
  "InstitutionName": "IUGM",
  "InstitutionalDepartmentName": "Department",
  "MRAcquisitionType": "2D",
  "MagneticFieldStrength": 3,
  "Manufacturer": "Siemens",
  "ManufacturersModelName": "Prisma_fit",
  "MatrixCoilMode": "SENSE",
  "Modality": "MR",
  "MultibandAccelerationFactor": 4,
  "PartialFourier": 1,
  "PatientPosition": "HFS",
  "PercentPhaseFOV": 100,
  "PercentSampling": 100,
  "PhaseEncodingDirection": "j",
  "PhaseEncodingSteps": 104,
  "PhaseResolution": 1,
  "PixelBandwidth": 2290,
  "ProcedureStepDescription": "games^mario",
  "ProtocolName": "func_task-mario_run-01",
  "PulseSequenceDetails": "%CustomerSeq%\\cmrr_mbep2d_bold",
  "ReceiveCoilActiveElements": "HC1-7;NC1,2",
  "ReceiveCoilName": "HeadNeck_64",
  "ReconMatrixPE": 104,
  "RepetitionTime": 1.49,
  "SAR": 0.0492056,
  "ScanOptions": "FS",
  "ScanningSequence": "EP",
  "SequenceName": "epfid2d1_104",
  "SequenceVariant": "SK\\SS",
  "SeriesDescription": "func_task-mario_run-01",
  "SeriesNumber": 11,
  "ShimSetting": [635, -7223, -8788, 709, 40, -33, 57, -23],
  "SliceThickness": 2,
  "SliceTiming": [0, 0.7825, 0.0975, 0.88, 0.195, 0.98, 0.2925, 1.0775, 0.39, 1.175, 0.49, 1.2725, 0.5875, 1.37, 0.685, 0, 0.7825, 0.0975, 0.88, 0.195, 0.98, 0.2925, 1.0775, 0.39, 1.175, 0.49, 1.2725, 0.5875, 1.37, 0.685, 0, 0.7825, 0.0975, 0.88, 0.195, 0.98, 0.2925, 1.0775, 0.39, 1.175, 0.49, 1.2725, 0.5875, 1.37, 0.685, 0, 0.7825, 0.0975, 0.88, 0.195, 0.98, 0.2925, 1.0775, 0.39, 1.175, 0.49, 1.2725, 0.5875, 1.37, 0.685],
  "SoftwareVersions": "syngo MR E11",
  "SpacingBetweenSlices": 2,
  "StationName": "MRC35049",
  "TaskName": "mario",
  "TotalReadoutTime": 0.0576811,
  "TxRefAmp": 237.366,
  "WipMemBlock": "13f725e1-c99f-49e9-9765-f1b6aa41d774||Sequence: R016 ve11c/master r/e634e98; Dec 19 2017 11:00:25 by eja",
  "dcmmeta_affine": [
    [-1.9989657402038574, 0.004884491208940744, 0.06412726640701294, 107.16583251953125],
    [-0.012804631143808365, 1.9240710735321045, -0.5456981062889099, -72.16642761230469],
    [0.06302543729543686, 0.5458264350891113, 1.9230448007583618, -65.45317840576172],
    [0.0, 0.0, 0.0, 1.0]
],
  "dcmmeta_reorient_transform": [
    [0.0, -1.0, 0.0, 103.0],
    [1.0, 0.0, 0.0, 0.0],
    [0.0, 0.0, 1.0, 0.0],
    [0.0, 0.0, 0.0, 1.0]
],
  "dcmmeta_shape": [104, 104, 60, 454],
  "dcmmeta_slice_dim": 2,
  "dcmmeta_version": 0.6,
  "global": {
    "const": {
      "AcquisitionMatrix": [104, 0, 0, 104],
      "AngioFlag": "N",
      "BitsAllocated": 16,
      "BitsStored": 16,
      "BodyPartExamined": "BRAIN",
      "Columns": 832,
      "EchoNumbers": 1,
      "EchoTime": 37.0,
      "EchoTrainLength": 104,
      "FlipAngle": 52.0,
      "HighBit": 15,
      "ImageOrientationPatient": [0.99948284571358, 0.00640231569398, 0.03151271930579, 0.00244224551062, 0.96203555425431, -0.2729132239146],
      "ImagePositionPatient": [-837.0704049177, -831.03566454747, 166.50651667902],
      "ImageType": [
        "ORIGINAL",
        "PRIMARY",
        "P",
        "MB",
        "ND",
        "MOSAIC"
],
      "ImagedNucleus": "1H",
      "ImagingFrequency": 123.25886,
      "InPlanePhaseEncodingDirection": "COL",
      "LargestImagePixelValue": 4095,
      "MRAcquisitionType": "2D",
      "MagneticFieldStrength": 3.0,
      "Manufacturer": "SIEMENS",
      "ManufacturerModelName": "Prisma_fit",
      "Modality": "MR",
      "NumberOfAverages": 1.0,
      "NumberOfPhaseEncodingSteps": 104,
      "PercentPhaseFieldOfView": 100.0,
      "PercentSampling": 100.0,
      "PerformedProcedureStepStartTime": "165537.084000",
      "PhotometricInterpretation": "MONOCHROME2",
      "PixelBandwidth": 2290.0,
      "PixelRepresentation": 0,
      "PixelSpacing": [2.0, 2.0],
      "ProtocolName": "func_task-mario_run-01",
      "RepetitionTime": 1490.0,
      "RescaleIntercept": -4096.0,
      "RescaleSlope": 2.0,
      "RescaleType": "US",
      "Rows": 832,
      "SAR": 0.04920561631576,
      "SamplesPerPixel": 1,
      "ScanOptions": "FS",
      "ScanningSequence": "EP",
      "SequenceName": "epfid2d1_104",
      "SequenceVariant": [
        "SK",
        "SS"
],
      "SeriesDescription": "func_task-mario_run-01",
      "SeriesNumber": 11,
      "SeriesTime": "171525.504000",
      "SliceLocation": -39.808026122778,
      "SliceThickness": 2.0,
      "SmallestImagePixelValue": 0,
      "SoftwareVersions": "syngo MR E11",
      "SpacingBetweenSlices": 2.0000000298745,
      "SpecificCharacterSet": "ISO_IR 100",
      "StudyID": "1",
      "StudyTime": "165537.031000",
      "TransmitCoilName": "Body",
      "VariableFlipAngleFlag": "N",
      "WindowCenterWidthExplanation": "Algo1",
      "dBdt": 0.0},
    "slices": {}
  },
  "time": {
    "samples": {
      "AcquisitionNumber": [1, 2, 3, 4, 5, 6, 7, 8, 9, 10, 11, 12, 13, 14, 15, 16, 17, 18, 19, 20, 21, 22, 23, 24, 25, 26, 27, 28, 29, 30, 31, 32, 33, 34, 35, 36, 37, 38, 39, 40, 41, 42, 43, 44, 45, 46, 47, 48, 49, 50, 51, 52, 53, 54, 55, 56, 57, 58, 59, 60, 61, 62, 63, 64, 65, 66, 67, 68, 69, 70, 71, 72, 73, 74, 75, 76, 77, 78, 79, 80, 81, 82, 83, 84, 85, 86, 87, 88, 89, 90, 91, 92, 93, 94, 95, 96, 97, 98, 99, 100, 101, 102, 103, 104, 105, 106, 107, 108, 109, 110, 111, 112, 113, 114, 115, 116, 117, 118, 119, 120, 121, 122, 123, 124, 125, 126, 127, 128, 129, 130, 131, 132, 133, 134, 135, 136, 137, 138, 139, 140, 141, 142, 143, 144, 145, 146, 147, 148, 149, 150, 151, 152, 153, 154, 155, 156, 157, 158, 159, 160, 161, 162, 163, 164, 165, 166, 167, 168, 169, 170, 171, 172, 173, 174, 175, 176, 177, 178, 179, 180, 181, 182, 183, 184, 185, 186, 187, 188, 189, 190, 191, 192, 193, 194, 195, 196, 197, 198, 199, 200, 201, 202, 203, 204, 205, 206, 207, 208, 209, 210, 211, 212, 213, 214, 215, 216, 217, 218, 219, 220, 221, 222, 223, 224, 225, 226, 227, 228, 229, 230, 231, 232, 233, 234, 235, 236, 237, 238, 239, 240, 241, 242, 243, 244, 245, 246, 247, 248, 249, 250, 251, 252, 253, 254, 255, 256, 257, 258, 259, 260, 261, 262, 263, 264, 265, 266, 267, 268, 269, 270, 271, 272, 273, 274, 275, 276, 277, 278, 279, 280, 281, 282, 283, 284, 285, 286, 287, 288, 289, 290, 291, 292, 293, 294, 295, 296, 297, 298, 299, 300, 301, 302, 303, 304, 305, 306, 307, 308, 309, 310, 311, 312, 313, 314, 315, 316, 317, 318, 319, 320, 321, 322, 323, 324, 325, 326, 327, 328, 329, 330, 331, 332, 333, 334, 335, 336, 337, 338, 339, 340, 341, 342, 343, 344, 345, 346, 347, 348, 349, 350, 351, 352, 353, 354, 355, 356, 357, 358, 359, 360, 361, 362, 363, 364, 365, 366, 367, 368, 369, 370, 371, 372, 373, 374, 375, 376, 377, 378, 379, 380, 381, 382, 383, 384, 385, 386, 387, 388, 389, 390, 391, 392, 393, 394, 395, 396, 397, 398, 399, 400, 401, 402, 403, 404, 405, 406, 407, 408, 409, 410, 411, 412, 413, 414, 415, 416, 417, 418, 419, 420, 421, 422, 423, 424, 425, 426, 427, 428, 429, 430, 431, 432, 433, 434, 435, 436, 437, 438, 439, 440, 441, 442, 443, 444, 445, 446, 447, 448, 449, 450, 451, 452, 453, 454],
      "AcquisitionTime": ["171355.170000", "171356.660000", "171358.150000", "171359.640000", "171401.130000", "171402.620000", "171404.110000", "171405.600000", "171407.090000", "171408.580000", "171410.070000", "171411.560000", "171413.050000", "171414.540000", "171416.030000", "171417.520000", "171419.010000", "171420.500000", "171421.990000", "171423.480000", "171424.970000", "171426.460000", "171427.950000", "171429.440000", "171430.930000", "171432.420000", "171433.910000", "171435.400000", "171436.890000", "171438.380000", "171439.870000", "171441.360000", "171442.850000", "171444.340000", "171445.830000", "171447.320000", "171448.810000", "171450.300000", "171451.790000", "171453.280000", "171454.770000", "171456.260000", "171457.750000", "171459.240000", "171500.730000", "171502.220000", "171503.710000", "171505.200000", "171506.690000", "171508.180000", "171509.670000", "171511.160000", "171512.650000", "171514.140000", "171515.630000", "171517.120000", "171518.610000", "171520.100000", "171521.590000", "171523.080000", "171524.570000", "171526.060000", "171527.550000", "171529.040000", "171530.530000", "171532.020000", "171533.510000", "171535.000000", "171536.490000", "171537.980000", "171539.470000", "171540.960000", "171542.450000", "171543.940000", "171545.430000", "171546.920000", "171548.410000", "171549.900000", "171551.390000", "171552.880000", "171554.370000", "171555.860000", "171557.350000", "171558.840000", "171600.330000", "171601.820000", "171603.310000", "171604.800000", "171606.290000", "171607.780000", "171609.270000", "171610.760000", "171612.250000", "171613.740000", "171615.230000", "171616.720000", "171618.210000", "171619.700000", "171621.190000", "171622.680000", "171624.170000", "171625.660000", "171627.150000", "171628.640000", "171630.130000", "171631.620000", "171633.110000", "171634.600000", "171636.090000", "171637.580000", "171639.070000", "171640.560000", "171642.050000", "171643.540000", "171645.030000", "171646.520000", "171648.010000", "171649.500000", "171650.990000", "171652.480000", "171653.970000", "171655.460000", "171656.950000", "171658.440000", "171659.930000", "171701.420000", "171702.910000", "171704.400000", "171705.890000", "171707.380000", "171708.870000", "171710.360000", "171711.850000", "171713.340000", "171714.830000", "171716.320000", "171717.810000", "171719.300000", "171720.790000", "171722.280000", "171723.770000", "171725.260000", "171726.750000", "171728.240000", "171729.730000", "171731.220000", "171732.710000", "171734.200000", "171735.690000", "171737.180000", "171738.670000", "171740.160000", "171741.650000", "171743.140000", "171744.630000", "171746.120000", "171747.610000", "171749.100000", "171750.590000", "171752.080000", "171753.570000", "171755.060000", "171756.550000", "171758.040000", "171759.530000", "171801.020000", "171802.510000", "171804.000000", "171805.490000", "171806.980000", "171808.470000", "171809.960000", "171811.450000", "171812.940000", "171814.430000", "171815.920000", "171817.410000", "171818.900000", "171820.390000", "171821.880000", "171823.370000", "171824.860000", "171826.350000", "171827.840000", "171829.330000", "171830.820000", "171832.310000", "171833.800000", "171835.290000", "171836.780000", "171838.270000", "171839.760000", "171841.250000", "171842.740000", "171844.230000", "171845.720000", "171847.210000", "171848.700000", "171850.190000", "171851.680000", "171853.170000", "171854.660000", "171856.150000", "171857.640000", "171859.130000", "171900.620000", "171902.110000", "171903.600000", "171905.090000", "171906.580000", "171908.070000", "171909.560000", "171911.050000", "171912.540000", "171914.030000", "171915.520000", "171917.010000", "171918.500000", "171919.990000", "171921.480000", "171922.970000", "171924.460000", "171925.950000", "171927.440000", "171928.930000", "171930.420000", "171931.910000", "171933.400000", "171934.890000", "171936.380000", "171937.870000", "171939.360000", "171940.850000", "171942.340000", "171943.830000", "171945.320000", "171946.810000", "171948.300000", "171949.790000", "171951.280000", "171952.770000", "171954.260000", "171955.750000", "171957.240000", "171958.730000", "172000.220000", "172001.710000", "172003.200000", "172004.690000", "172006.180000", "172007.670000", "172009.160000", "172010.650000", "172012.140000", "172013.630000", "172015.120000", "172016.610000", "172018.100000", "172019.590000", "172021.080000", "172022.570000", "172024.060000", "172025.550000", "172027.040000", "172028.530000", "172030.020000", "172031.510000", "172033.000000", "172034.490000", "172035.980000", "172037.470000", "172038.960000", "172040.450000", "172041.940000", "172043.430000", "172044.920000", "172046.410000", "172047.900000", "172049.390000", "172050.880000", "172052.370000", "172053.860000", "172055.350000", "172056.840000", "172058.330000", "172059.820000", "172101.310000", "172102.800000", "172104.290000", "172105.780000", "172107.270000", "172108.760000", "172110.250000", "172111.740000", "172113.230000", "172114.720000", "172116.210000", "172117.700000", "172119.190000", "172120.680000", "172122.170000", "172123.660000", "172125.150000", "172126.640000", "172128.130000", "172129.620000", "172131.110000", "172132.600000", "172134.090000", "172135.580000", "172137.070000", "172138.560000", "172140.050000", "172141.540000", "172143.030000", "172144.520000", "172146.010000", "172147.500000", "172148.990000", "172150.480000", "172151.970000", "172153.460000", "172154.950000", "172156.440000", "172157.930000", "172159.420000", "172200.910000", "172202.400000", "172203.890000", "172205.380000", "172206.870000", "172208.360000", "172209.850000", "172211.340000", "172212.830000", "172214.320000", "172215.810000", "172217.300000", "172218.790000", "172220.280000", "172221.770000", "172223.260000", "172224.750000", "172226.240000", "172227.730000", "172229.220000", "172230.710000", "172232.200000", "172233.690000", "172235.180000", "172236.670000", "172238.160000", "172239.650000", "172241.140000", "172242.630000", "172244.120000", "172245.610000", "172247.100000", "172248.590000", "172250.080000", "172251.570000", "172253.060000", "172254.550000", "172256.040000", "172257.530000", "172259.020000", "172300.510000", "172302.000000", "172303.490000", "172304.980000", "172306.470000", "172307.960000", "172309.450000", "172310.940000", "172312.430000", "172313.920000", "172315.410000", "172316.900000", "172318.390000", "172319.880000", "172321.370000", "172322.860000", "172324.350000", "172325.840000", "172327.330000", "172328.820000", "172330.310000", "172331.800000", "172333.290000", "172334.780000", "172336.270000", "172337.760000", "172339.250000", "172340.740000", "172342.230000", "172343.720000", "172345.210000", "172346.700000", "172348.190000", "172349.680000", "172351.170000", "172352.660000", "172354.150000", "172355.640000", "172357.130000", "172358.620000", "172400.110000", "172401.600000", "172403.090000", "172404.580000", "172406.070000", "172407.560000", "172409.050000", "172410.540000", "172412.030000", "172413.520000", "172415.010000", "172416.500000", "172417.990000", "172419.480000", "172420.970000", "172422.460000", "172423.950000", "172425.440000", "172426.930000", "172428.420000", "172429.910000", "172431.400000", "172432.890000", "172434.380000", "172435.870000", "172437.360000", "172438.850000", "172440.340000", "172441.830000", "172443.320000", "172444.810000", "172446.300000", "172447.790000", "172449.280000", "172450.770000", "172452.260000", "172453.750000", "172455.240000", "172456.730000", "172458.220000", "172459.710000", "172501.200000", "172502.690000", "172504.180000", "172505.670000", "172507.160000", "172508.650000", "172510.140000"],
      "ContentTime": ["171525.506000", "171525.509000", "171525.511000", "171525.514000", "171525.516000", "171525.519000", "171525.521000", "171525.523000", "171525.526000", "171525.529000", "171525.531000", "171525.534000", "171525.536000", "171525.539000", "171525.541000", "171525.544000", "171525.546000", "171525.556000", "171525.558000", "171525.561000", "171525.563000", "171525.565000", "171525.568000", "171525.571000", "171525.573000", "171525.576000", "171525.578000", "171525.581000", "171525.583000", "171525.586000", "171525.588000", "171525.591000", "171525.593000", "171525.596000", "171525.598000", "171525.600000", "171525.603000", "171545.383000", "171545.386000", "171545.388000", "171545.391000", "171545.393000", "171545.396000", "171545.398000", "171545.401000", "171545.403000", "171545.405000", "171545.408000", "171545.410000", "171545.413000", "171545.415000", "171545.418000", "171545.420000", "171545.423000", "171545.425000", "171545.428000", "171545.430000", "171545.442000", "171605.382000", "171605.385000", "171605.387000", "171605.390000", "171605.393000", "171605.396000", "171605.398000", "171605.401000", "171605.403000", "171605.405000", "171605.408000", "171605.410000", "171605.413000", "171605.415000", "171605.418000", "171605.420000", "171605.423000", "171605.425000", "171605.428000", "171605.430000", "171625.375000", "171625.378000", "171625.380000", "171625.383000", "171625.385000", "171625.388000", "171625.390000", "171625.393000", "171625.395000", "171625.398000", "171625.400000", "171625.403000", "171625.405000", "171625.408000", "171625.410000", "171625.413000", "171625.415000", "171625.418000", "171625.420000", "171625.423000", "171705.440000", "171705.443000", "171705.445000", "171705.448000", "171705.450000", "171705.453000", "171705.455000", "171705.458000", "171705.460000", "171705.463000", "171705.465000", "171705.468000", "171705.470000", "171705.473000", "171705.475000", "171705.478000", "171705.480000", "171705.483000", "171705.485000", "171705.488000", "171705.490000", "171705.493000", "171705.495000", "171705.498000", "171705.500000", "171705.503000", "171705.505000", "171705.508000", "171705.511000", "171745.437000", "171745.439000", "171745.442000", "171745.445000", "171745.447000", "171745.450000", "171745.452000", "171745.455000", "171745.457000", "171745.460000", "171745.462000", "171745.465000", "171745.467000", "171745.470000", "171745.472000", "171745.475000", "171745.477000", "171745.480000", "171745.482000", "171745.485000", "171745.487000", "171745.490000", "171745.493000", "171745.495000", "171745.498000", "171745.500000", "171825.872000", "171825.875000", "171825.877000", "171825.880000", "171825.882000", "171825.885000", "171825.888000", "171825.890000", "171825.892000", "171825.895000", "171825.898000", "171825.900000", "171825.903000", "171825.905000", "171825.908000", "171825.910000", "171825.913000", "171825.915000", "171825.918000", "171825.920000", "171825.923000", "171825.925000", "171825.928000", "171825.931000", "171825.933000", "171825.936000", "171825.938000", "171905.412000", "171905.414000", "171905.417000", "171905.419000", "171905.422000", "171905.424000", "171905.427000", "171905.429000", "171905.432000", "171905.435000", "171905.437000", "171905.440000", "171905.442000", "171905.445000", "171905.447000", "171905.450000", "171905.452000", "171905.455000", "171905.457000", "171905.460000", "171905.462000", "171905.465000", "171905.467000", "171905.476000", "171905.479000", "171905.481000", "171905.484000", "171945.402000", "171945.405000", "171945.407000", "171945.410000", "171945.413000", "171945.415000", "171945.418000", "171945.420000", "171945.423000", "171945.425000", "171945.428000", "171945.430000", "171945.433000", "171945.435000", "171945.438000", "171945.440000", "171945.443000", "171945.445000", "171945.448000", "171945.450000", "171945.453000", "171945.455000", "171945.458000", "171945.460000", "171945.463000", "171945.465000", "171945.468000", "172025.411000", "172025.414000", "172025.416000", "172025.419000", "172025.421000", "172025.424000", "172025.426000", "172025.429000", "172025.431000", "172025.434000", "172025.436000", "172025.439000", "172025.441000", "172025.444000", "172025.447000", "172025.449000", "172025.452000", "172025.454000", "172025.457000", "172025.459000", "172025.462000", "172025.464000", "172025.467000", "172025.469000", "172025.472000", "172025.474000", "172025.477000", "172105.401000", "172105.404000", "172105.407000", "172105.409000", "172105.412000", "172105.414000", "172105.417000", "172105.419000", "172105.422000", "172105.424000", "172105.427000", "172105.429000", "172105.432000", "172105.434000", "172105.437000", "172105.440000", "172105.443000", "172105.446000", "172105.449000", "172105.451000", "172105.454000", "172105.457000", "172105.459000", "172105.462000", "172105.465000", "172105.467000", "172105.470000", "172145.432000", "172145.435000", "172145.437000", "172145.440000", "172145.442000", "172145.445000", "172145.447000", "172145.450000", "172145.452000", "172145.455000", "172145.457000", "172145.460000", "172145.462000", "172145.465000", "172145.468000", "172145.470000", "172145.473000", "172145.475000", "172145.478000", "172145.480000", "172145.483000", "172145.485000", "172145.488000", "172145.490000", "172145.493000", "172145.495000", "172145.498000", "172225.413000", "172225.415000", "172225.418000", "172225.421000", "172225.423000", "172225.426000", "172225.428000", "172225.431000", "172225.433000", "172225.436000", "172225.439000", "172225.441000", "172225.444000", "172225.446000", "172225.449000", "172225.452000", "172225.455000", "172225.458000", "172225.461000", "172225.463000", "172225.466000", "172225.468000", "172225.471000", "172225.474000", "172225.477000", "172225.480000", "172305.415000", "172305.417000", "172305.420000", "172305.422000", "172305.425000", "172305.428000", "172305.430000", "172305.433000", "172305.435000", "172305.438000", "172305.440000", "172305.443000", "172305.445000", "172305.448000", "172305.451000", "172305.453000", "172305.456000", "172305.458000", "172305.461000", "172305.463000", "172305.466000", "172305.468000", "172305.471000", "172305.474000", "172305.476000", "172305.479000", "172305.481000", "172345.423000", "172345.426000", "172345.428000", "172345.431000", "172345.433000", "172345.436000", "172345.438000", "172345.441000", "172345.443000", "172345.446000", "172345.448000", "172345.451000", "172345.454000", "172345.456000", "172345.459000", "172345.461000", "172345.464000", "172345.467000", "172345.469000", "172345.472000", "172345.474000", "172345.477000", "172345.479000", "172345.482000", "172345.484000", "172345.487000", "172345.489000", "172425.414000", "172425.417000", "172425.419000", "172425.422000", "172425.424000", "172425.427000", "172425.429000", "172425.432000", "172425.456000", "172425.459000", "172425.462000", "172425.465000", "172425.468000", "172425.471000", "172425.473000", "172425.476000", "172425.478000", "172425.481000", "172425.484000", "172425.486000", "172425.489000", "172425.491000", "172425.494000", "172425.496000", "172425.499000", "172425.501000", "172425.504000", "172505.423000", "172505.425000", "172505.428000", "172505.430000", "172505.433000", "172505.436000", "172505.438000", "172505.441000", "172505.443000", "172505.446000", "172505.448000", "172505.451000", "172505.453000", "172505.456000", "172505.458000", "172505.461000", "172505.463000", "172505.466000", "172505.468000", "172505.471000", "172505.474000", "172505.476000", "172505.479000", "172505.481000", "172505.484000", "172505.486000", "172505.489000", "172513.406000", "172513.409000", "172513.412000", "172513.414000", "172513.417000"],
