{
  "AcquisitionMatrixPE": 104,
  "AcquisitionNumber": 1,
  "AcquisitionTime": "17:13:55.170000",
  "BandwidthPerPixelPhaseEncode": 17.17,
  "BaseResolution": 104,
  "BodyPartExamined": "BRAIN",
  "CoilCombinationMethod": "Sum of Squares",
  "ConsistencyInfo": "N4_VE11C_LATEST_20160120",
  "ConversionSoftware": "dcm2niix",
  "ConversionSoftwareVersion": "v1.0.20211006",
  "DerivedVendorReportedEchoSpacing": 0.000560011,
  "DeviceSerialNumber": "167006",
  "DwellTime": 2.1e-06,
  "EchoTime": 0.037,
  "EchoTrainLength": 104,
  "EffectiveEchoSpacing": 0.000560011,
  "FlipAngle": 52,
  "HeudiconvVersion": "0.10.0",
  "ImageComments": "Unaliased MB4/PE3/LB",
  "ImageOrientationPatientDICOM": [0.999483, 0.00640232, 0.0315127, 0.00244225, 0.962036, -0.272913],
  "ImageOrientationText": "Tra>Cor(-15.8)>Sag(1.8)",
  "ImageType": [
    "ORIGINAL",
    "PRIMARY",
    "M",
    "MB",
    "ND",
    "MOSAIC"
],
  "ImagingFrequency": 123.259,
  "InPlanePhaseEncodingDirectionDICOM": "COL",
  "InstitutionAddress": "Chemin Queen-Mary 4565,Montreal,District,CA,H3W 1W5",
  "InstitutionName": "IUGM",
  "InstitutionalDepartmentName": "Department",
  "MRAcquisitionType": "2D",
  "MagneticFieldStrength": 3,
  "Manufacturer": "Siemens",
  "ManufacturersModelName": "Prisma_fit",
  "MatrixCoilMode": "SENSE",
  "Modality": "MR",
  "MultibandAccelerationFactor": 4,
  "PartialFourier": 1,
  "PatientPosition": "HFS",
  "PercentPhaseFOV": 100,
  "PercentSampling": 100,
  "PhaseEncodingDirection": "j",
  "PhaseEncodingSteps": 104,
  "PhaseResolution": 1,
  "PixelBandwidth": 2290,
  "ProcedureStepDescription": "games^mario",
  "ProtocolName": "func_task-mario_run-01",
  "PulseSequenceDetails": "%CustomerSeq%\\cmrr_mbep2d_bold",
  "ReceiveCoilActiveElements": "HC1-7;NC1,2",
  "ReceiveCoilName": "HeadNeck_64",
  "ReconMatrixPE": 104,
  "RepetitionTime": 1.49,
  "SAR": 0.0492056,
  "ScanOptions": "FS",
  "ScanningSequence": "EP",
  "SequenceName": "epfid2d1_104",
  "SequenceVariant": "SK\\SS",
  "SeriesDescription": "func_task-mario_run-01",
  "SeriesNumber": 10,
  "ShimSetting": [635, -7223, -8788, 709, 40, -33, 57, -23],
  "SliceThickness": 2,
  "SliceTiming": [0, 0.7825, 0.0975, 0.88, 0.195, 0.98, 0.2925, 1.0775, 0.39, 1.175, 0.49, 1.2725, 0.5875, 1.37, 0.685, 0, 0.7825, 0.0975, 0.88, 0.195, 0.98, 0.2925, 1.0775, 0.39, 1.175, 0.49, 1.2725, 0.5875, 1.37, 0.685, 0, 0.7825, 0.0975, 0.88, 0.195, 0.98, 0.2925, 1.0775, 0.39, 1.175, 0.49, 1.2725, 0.5875, 1.37, 0.685, 0, 0.7825, 0.0975, 0.88, 0.195, 0.98, 0.2925, 1.0775, 0.39, 1.175, 0.49, 1.2725, 0.5875, 1.37, 0.685],
  "SoftwareVersions": "syngo MR E11",
  "SpacingBetweenSlices": 2,
  "StationName": "MRC35049",
  "TaskName": "mario",
  "TotalReadoutTime": 0.0576811,
  "TxRefAmp": 237.366,
  "WipMemBlock": "13f725e1-c99f-49e9-9765-f1b6aa41d774||Sequence: R016 ve11c/master r/e634e98; Dec 19 2017 11:00:25 by eja",
  "dcmmeta_affine": [
    [-1.9989657402038574, 0.004884491208940744, 0.06412726640701294, 107.16583251953125],
    [-0.012804631143808365, 1.9240710735321045, -0.5456981062889099, -72.16642761230469],
    [0.06302543729543686, 0.5458264350891113, 1.9230448007583618, -65.45317840576172],
    [0.0, 0.0, 0.0, 1.0]
],
  "dcmmeta_reorient_transform": [
    [0.0, -1.0, 0.0, 103.0],
    [1.0, 0.0, 0.0, 0.0],
    [0.0, 0.0, 1.0, 0.0],
    [0.0, 0.0, 0.0, 1.0]
],
  "dcmmeta_shape": [104, 104, 60, 454],
  "dcmmeta_slice_dim": 2,
  "dcmmeta_version": 0.6,
  "global": {
    "const": {
      "AcquisitionMatrix": [104, 0, 0, 104],
      "AngioFlag": "N",
      "BitsAllocated": 16,
      "BitsStored": 16,
      "BodyPartExamined": "BRAIN",
      "Columns": 832,
      "EchoNumbers": 1,
      "EchoTime": 37.0,
      "EchoTrainLength": 104,
      "FlipAngle": 52.0,
      "HighBit": 15,
      "ImageOrientationPatient": [0.99948284571358, 0.00640231569398, 0.03151271930579, 0.00244224551062, 0.96203555425431, -0.2729132239146],
      "ImagePositionPatient": [-837.0704049177, -831.03566454747, 166.50651667902],
      "ImageType": [
        "ORIGINAL",
        "PRIMARY",
        "M",
        "MB",
        "ND",
        "MOSAIC"
],
      "ImagedNucleus": "1H",
      "ImagingFrequency": 123.25886,
      "InPlanePhaseEncodingDirection": "COL",
      "MRAcquisitionType": "2D",
      "MagneticFieldStrength": 3.0,
      "Manufacturer": "SIEMENS",
      "ManufacturerModelName": "Prisma_fit",
      "Modality": "MR",
      "NumberOfAverages": 1.0,
      "NumberOfPhaseEncodingSteps": 104,
      "PercentPhaseFieldOfView": 100.0,
      "PercentSampling": 100.0,
      "PerformedProcedureStepStartTime": "165537.084000",
      "PhotometricInterpretation": "MONOCHROME2",
      "PixelBandwidth": 2290.0,
      "PixelRepresentation": 0,
      "PixelSpacing": [2.0, 2.0],
      "ProtocolName": "func_task-mario_run-01",
      "RepetitionTime": 1490.0,
      "Rows": 832,
      "SAR": 0.04920561631576,
      "SamplesPerPixel": 1,
      "ScanOptions": "FS",
      "ScanningSequence": "EP",
      "SequenceName": "epfid2d1_104",
      "SequenceVariant": [
        "SK",
        "SS"
],
      "SeriesDescription": "func_task-mario_run-01",
      "SeriesNumber": 10,
      "SeriesTime": "171525.304000",
      "SliceLocation": -39.808026122778,
      "SliceThickness": 2.0,
      "SmallestImagePixelValue": 0,
      "SoftwareVersions": "syngo MR E11",
      "SpacingBetweenSlices": 2.0000000298745,
      "SpecificCharacterSet": "ISO_IR 100",
      "StudyID": "1",
      "StudyTime": "165537.031000",
      "TransmitCoilName": "Body",
      "VariableFlipAngleFlag": "N",
      "WindowCenterWidthExplanation": "Algo1",
      "dBdt": 0.0},
    "slices": {}
  },
  "time": {
    "samples": {
      "AcquisitionNumber": [1, 2, 3, 4, 5, 6, 7, 8, 9, 10, 11, 12, 13, 14, 15, 16, 17, 18, 19, 20, 21, 22, 23, 24, 25, 26, 27, 28, 29, 30, 31, 32, 33, 34, 35, 36, 37, 38, 39, 40, 41, 42, 43, 44, 45, 46, 47, 48, 49, 50, 51, 52, 53, 54, 55, 56, 57, 58, 59, 60, 61, 62, 63, 64, 65, 66, 67, 68, 69, 70, 71, 72, 73, 74, 75, 76, 77, 78, 79, 80, 81, 82, 83, 84, 85, 86, 87, 88, 89, 90, 91, 92, 93, 94, 95, 96, 97, 98, 99, 100, 101, 102, 103, 104, 105, 106, 107, 108, 109, 110, 111, 112, 113, 114, 115, 116, 117, 118, 119, 120, 121, 122, 123, 124, 125, 126, 127, 128, 129, 130, 131, 132, 133, 134, 135, 136, 137, 138, 139, 140, 141, 142, 143, 144, 145, 146, 147, 148, 149, 150, 151, 152, 153, 154, 155, 156, 157, 158, 159, 160, 161, 162, 163, 164, 165, 166, 167, 168, 169, 170, 171, 172, 173, 174, 175, 176, 177, 178, 179, 180, 181, 182, 183, 184, 185, 186, 187, 188, 189, 190, 191, 192, 193, 194, 195, 196, 197, 198, 199, 200, 201, 202, 203, 204, 205, 206, 207, 208, 209, 210, 211, 212, 213, 214, 215, 216, 217, 218, 219, 220, 221, 222, 223, 224, 225, 226, 227, 228, 229, 230, 231, 232, 233, 234, 235, 236, 237, 238, 239, 240, 241, 242, 243, 244, 245, 246, 247, 248, 249, 250, 251, 252, 253, 254, 255, 256, 257, 258, 259, 260, 261, 262, 263, 264, 265, 266, 267, 268, 269, 270, 271, 272, 273, 274, 275, 276, 277, 278, 279, 280, 281, 282, 283, 284, 285, 286, 287, 288, 289, 290, 291, 292, 293, 294, 295, 296, 297, 298, 299, 300, 301, 302, 303, 304, 305, 306, 307, 308, 309, 310, 311, 312, 313, 314, 315, 316, 317, 318, 319, 320, 321, 322, 323, 324, 325, 326, 327, 328, 329, 330, 331, 332, 333, 334, 335, 336, 337, 338, 339, 340, 341, 342, 343, 344, 345, 346, 347, 348, 349, 350, 351, 352, 353, 354, 355, 356, 357, 358, 359, 360, 361, 362, 363, 364, 365, 366, 367, 368, 369, 370, 371, 372, 373, 374, 375, 376, 377, 378, 379, 380, 381, 382, 383, 384, 385, 386, 387, 388, 389, 390, 391, 392, 393, 394, 395, 396, 397, 398, 399, 400, 401, 402, 403, 404, 405, 406, 407, 408, 409, 410, 411, 412, 413, 414, 415, 416, 417, 418, 419, 420, 421, 422, 423, 424, 425, 426, 427, 428, 429, 430, 431, 432, 433, 434, 435, 436, 437, 438, 439, 440, 441, 442, 443, 444, 445, 446, 447, 448, 449, 450, 451, 452, 453, 454],
      "AcquisitionTime": ["171355.170000", "171356.660000", "171358.150000", "171359.640000", "171401.130000", "171402.620000", "171404.110000", "171405.600000", "171407.090000", "171408.580000", "171410.070000", "171411.560000", "171413.050000", "171414.540000", "171416.030000", "171417.520000", "171419.010000", "171420.500000", "171421.990000", "171423.480000", "171424.970000", "171426.460000", "171427.950000", "171429.440000", "171430.930000", "171432.420000", "171433.910000", "171435.400000", "171436.890000", "171438.380000", "171439.870000", "171441.360000", "171442.850000", "171444.340000", "171445.830000", "171447.320000", "171448.810000", "171450.300000", "171451.790000", "171453.280000", "171454.770000", "171456.260000", "171457.750000", "171459.240000", "171500.730000", "171502.220000", "171503.710000", "171505.200000", "171506.690000", "171508.180000", "171509.670000", "171511.160000", "171512.650000", "171514.140000", "171515.630000", "171517.120000", "171518.610000", "171520.100000", "171521.590000", "171523.080000", "171524.570000", "171526.060000", "171527.550000", "171529.040000", "171530.530000", "171532.020000", "171533.510000", "171535.000000", "171536.490000", "171537.980000", "171539.470000", "171540.960000", "171542.450000", "171543.940000", "171545.430000", "171546.920000", "171548.410000", "171549.900000", "171551.390000", "171552.880000", "171554.370000", "171555.860000", "171557.350000", "171558.840000", "171600.330000", "171601.820000", "171603.310000", "171604.800000", "171606.290000", "171607.780000", "171609.270000", "171610.760000", "171612.250000", "171613.740000", "171615.230000", "171616.720000", "171618.210000", "171619.700000", "171621.190000", "171622.680000", "171624.170000", "171625.660000", "171627.150000", "171628.640000", "171630.130000", "171631.620000", "171633.110000", "171634.600000", "171636.090000", "171637.580000", "171639.070000", "171640.560000", "171642.050000", "171643.540000", "171645.030000", "171646.520000", "171648.010000", "171649.500000", "171650.990000", "171652.480000", "171653.970000", "171655.460000", "171656.950000", "171658.440000", "171659.930000", "171701.420000", "171702.910000", "171704.400000", "171705.890000", "171707.380000", "171708.870000", "171710.360000", "171711.850000", "171713.340000", "171714.830000", "171716.320000", "171717.810000", "171719.300000", "171720.790000", "171722.280000", "171723.770000", "171725.260000", "171726.750000", "171728.240000", "171729.730000", "171731.220000", "171732.710000", "171734.200000", "171735.690000", "171737.180000", "171738.670000", "171740.160000", "171741.650000", "171743.140000", "171744.630000", "171746.120000", "171747.610000", "171749.100000", "171750.590000", "171752.080000", "171753.570000", "171755.060000", "171756.550000", "171758.040000", "171759.530000", "171801.020000", "171802.510000", "171804.000000", "171805.490000", "171806.980000", "171808.470000", "171809.960000", "171811.450000", "171812.940000", "171814.430000", "171815.920000", "171817.410000", "171818.900000", "171820.390000", "171821.880000", "171823.370000", "171824.860000", "171826.350000", "171827.840000", "171829.330000", "171830.820000", "171832.310000", "171833.800000", "171835.290000", "171836.780000", "171838.270000", "171839.760000", "171841.250000", "171842.740000", "171844.230000", "171845.720000", "171847.210000", "171848.700000", "171850.190000", "171851.680000", "171853.170000", "171854.660000", "171856.150000", "171857.640000", "171859.130000", "171900.620000", "171902.110000", "171903.600000", "171905.090000", "171906.580000", "171908.070000", "171909.560000", "171911.050000", "171912.540000", "171914.030000", "171915.520000", "171917.010000", "171918.500000", "171919.990000", "171921.480000", "171922.970000", "171924.460000", "171925.950000", "171927.440000", "171928.930000", "171930.420000", "171931.910000", "171933.400000", "171934.890000", "171936.380000", "171937.870000", "171939.360000", "171940.850000", "171942.340000", "171943.830000", "171945.320000", "171946.810000", "171948.300000", "171949.790000", "171951.280000", "171952.770000", "171954.260000", "171955.750000", "171957.240000", "171958.730000", "172000.220000", "172001.710000", "172003.200000", "172004.690000", "172006.180000", "172007.670000", "172009.160000", "172010.650000", "172012.140000", "172013.630000", "172015.120000", "172016.610000", "172018.100000", "172019.590000", "172021.080000", "172022.570000", "172024.060000", "172025.550000", "172027.040000", "172028.530000", "172030.020000", "172031.510000", "172033.000000", "172034.490000", "172035.980000", "172037.470000", "172038.960000", "172040.450000", "172041.940000", "172043.430000", "172044.920000", "172046.410000", "172047.900000", "172049.390000", "172050.880000", "172052.370000", "172053.860000", "172055.350000", "172056.840000", "172058.330000", "172059.820000", "172101.310000", "172102.800000", "172104.290000", "172105.780000", "172107.270000", "172108.760000", "172110.250000", "172111.740000", "172113.230000", "172114.720000", "172116.210000", "172117.700000", "172119.190000", "172120.680000", "172122.170000", "172123.660000", "172125.150000", "172126.640000", "172128.130000", "172129.620000", "172131.110000", "172132.600000", "172134.090000", "172135.580000", "172137.070000", "172138.560000", "172140.050000", "172141.540000", "172143.030000", "172144.520000", "172146.010000", "172147.500000", "172148.990000", "172150.480000", "172151.970000", "172153.460000", "172154.950000", "172156.440000", "172157.930000", "172159.420000", "172200.910000", "172202.400000", "172203.890000", "172205.380000", "172206.870000", "172208.360000", "172209.850000", "172211.340000", "172212.830000", "172214.320000", "172215.810000", "172217.300000", "172218.790000", "172220.280000", "172221.770000", "172223.260000", "172224.750000", "172226.240000", "172227.730000", "172229.220000", "172230.710000", "172232.200000", "172233.690000", "172235.180000", "172236.670000", "172238.160000", "172239.650000", "172241.140000", "172242.630000", "172244.120000", "172245.610000", "172247.100000", "172248.590000", "172250.080000", "172251.570000", "172253.060000", "172254.550000", "172256.040000", "172257.530000", "172259.020000", "172300.510000", "172302.000000", "172303.490000", "172304.980000", "172306.470000", "172307.960000", "172309.450000", "172310.940000", "172312.430000", "172313.920000", "172315.410000", "172316.900000", "172318.390000", "172319.880000", "172321.370000", "172322.860000", "172324.350000", "172325.840000", "172327.330000", "172328.820000", "172330.310000", "172331.800000", "172333.290000", "172334.780000", "172336.270000", "172337.760000", "172339.250000", "172340.740000", "172342.230000", "172343.720000", "172345.210000", "172346.700000", "172348.190000", "172349.680000", "172351.170000", "172352.660000", "172354.150000", "172355.640000", "172357.130000", "172358.620000", "172400.110000", "172401.600000", "172403.090000", "172404.580000", "172406.070000", "172407.560000", "172409.050000", "172410.540000", "172412.030000", "172413.520000", "172415.010000", "172416.500000", "172417.990000", "172419.480000", "172420.970000", "172422.460000", "172423.950000", "172425.440000", "172426.930000", "172428.420000", "172429.910000", "172431.400000", "172432.890000", "172434.380000", "172435.870000", "172437.360000", "172438.850000", "172440.340000", "172441.830000", "172443.320000", "172444.810000", "172446.300000", "172447.790000", "172449.280000", "172450.770000", "172452.260000", "172453.750000", "172455.240000", "172456.730000", "172458.220000", "172459.710000", "172501.200000", "172502.690000", "172504.180000", "172505.670000", "172507.160000", "172508.650000", "172510.140000"],
      "ContentTime": ["171525.307000", "171525.311000", "171525.315000", "171525.318000", "171525.322000", "171525.325000", "171525.328000", "171525.332000", "171525.349000", "171525.352000", "171525.356000", "171525.359000", "171525.362000", "171525.366000", "171525.369000", "171525.372000", "171525.376000", "171525.379000", "171525.382000", "171525.386000", "171525.389000", "171525.393000", "171525.396000", "171525.399000", "171525.403000", "171525.406000", "171525.409000", "171525.423000", "171525.427000", "171525.430000", "171525.433000", "171525.437000", "171525.440000", "171525.443000", "171525.447000", "171525.450000", "171525.461000", "171545.266000", "171545.270000", "171545.273000", "171545.277000", "171545.280000", "171545.283000", "171545.287000", "171545.290000", "171545.293000", "171545.297000", "171545.300000", "171545.303000", "171545.307000", "171545.310000", "171545.313000", "171545.317000", "171545.320000", "171545.323000", "171545.327000", "171545.330000", "171545.333000", "171605.266000", "171605.270000", "171605.273000", "171605.276000", "171605.280000", "171605.283000", "171605.286000", "171605.290000", "171605.293000", "171605.297000", "171605.300000", "171605.303000", "171605.307000", "171605.310000", "171605.313000", "171605.316000", "171605.320000", "171605.323000", "171605.327000", "171605.330000", "171625.265000", "171625.269000", "171625.272000", "171625.276000", "171625.279000", "171625.282000", "171625.285000", "171625.289000", "171625.292000", "171625.295000", "171625.299000", "171625.302000", "171625.305000", "171625.309000", "171625.312000", "171625.315000", "171625.319000", "171625.322000", "171625.325000", "171625.329000", "171705.265000", "171705.269000", "171705.273000", "171705.276000", "171705.279000", "171705.283000", "171705.286000", "171705.289000", "171705.293000", "171705.296000", "171705.300000", "171705.303000", "171705.306000", "171705.310000", "171705.313000", "171705.316000", "171705.320000", "171705.323000", "171705.327000", "171705.330000", "171705.334000", "171705.337000", "171705.340000", "171705.344000", "171705.347000", "171705.351000", "171705.354000", "171705.357000", "171705.361000", "171745.266000", "171745.270000", "171745.273000", "171745.277000", "171745.280000", "171745.284000", "171745.287000", "171745.290000", "171745.294000", "171745.297000", "171745.300000", "171745.304000", "171745.307000", "171745.321000", "171745.324000", "171745.328000", "171745.331000", "171745.334000", "171745.338000", "171745.342000", "171745.345000", "171745.349000", "171745.352000", "171745.356000", "171745.361000", "171745.366000", "171825.266000", "171825.276000", "171825.280000", "171825.283000", "171825.286000", "171825.290000", "171825.294000", "171825.297000", "171825.301000", "171825.304000", "171825.308000", "171825.311000", "171825.314000", "171825.318000", "171825.321000", "171825.324000", "171825.328000", "171825.331000", "171825.334000", "171825.338000", "171825.341000", "171825.345000", "171825.348000", "171825.351000", "171825.355000", "171825.358000", "171825.361000", "171905.265000", "171905.269000", "171905.272000", "171905.276000", "171905.279000", "171905.282000", "171905.286000", "171905.289000", "171905.292000", "171905.296000", "171905.305000", "171905.308000", "171905.312000", "171905.315000", "171905.318000", "171905.322000", "171905.325000", "171905.329000", "171905.332000", "171905.335000", "171905.339000", "171905.342000", "171905.346000", "171905.349000", "171905.352000", "171905.356000", "171905.359000", "171945.265000", "171945.269000", "171945.272000", "171945.276000", "171945.279000", "171945.283000", "171945.286000", "171945.290000", "171945.293000", "171945.296000", "171945.300000", "171945.303000", "171945.306000", "171945.310000", "171945.313000", "171945.317000", "171945.320000", "171945.323000", "171945.327000", "171945.330000", "171945.334000", "171945.337000", "171945.340000", "171945.344000", "171945.347000", "171945.350000", "171945.354000", "172025.266000", "172025.270000", "172025.274000", "172025.277000", "172025.281000", "172025.284000", "172025.288000", "172025.291000", "172025.294000", "172025.298000", "172025.301000", "172025.304000", "172025.308000", "172025.311000", "172025.315000", "172025.318000", "172025.321000", "172025.325000", "172025.328000", "172025.331000", "172025.335000", "172025.338000", "172025.342000", "172025.345000", "172025.349000", "172025.353000", "172025.356000", "172105.265000", "172105.269000", "172105.273000", "172105.276000", "172105.279000", "172105.283000", "172105.286000", "172105.290000", "172105.293000", "172105.296000", "172105.300000", "172105.303000", "172105.307000", "172105.310000", "172105.313000", "172105.317000", "172105.320000", "172105.324000", "172105.327000", "172105.330000", "172105.334000", "172105.337000", "172105.340000", "172105.344000", "172105.347000", "172105.351000", "172105.354000", "172145.265000", "172145.269000", "172145.290000", "172145.294000", "172145.297000", "172145.301000", "172145.304000", "172145.308000", "172145.311000", "172145.314000", "172145.318000", "172145.321000", "172145.325000", "172145.328000", "172145.331000", "172145.335000", "172145.338000", "172145.342000", "172145.345000", "172145.348000", "172145.352000", "172145.355000", "172145.358000", "172145.362000", "172145.365000", "172145.368000", "172145.372000", "172225.266000", "172225.270000", "172225.273000", "172225.277000", "172225.280000", "172225.284000", "172225.287000", "172225.291000", "172225.294000", "172225.298000", "172225.301000", "172225.304000", "172225.319000", "172225.323000", "172225.326000", "172225.330000", "172225.333000", "172225.337000", "172225.341000", "172225.344000", "172225.348000", "172225.351000", "172225.354000", "172225.358000", "172225.361000", "172225.365000", "172305.266000", "172305.270000", "172305.274000", "172305.278000", "172305.281000", "172305.285000", "172305.288000", "172305.292000", "172305.295000", "172305.299000", "172305.302000", "172305.305000", "172305.309000", "172305.312000", "172305.316000", "172305.319000", "172305.322000", "172305.326000", "172305.329000", "172305.332000", "172305.336000", "172305.339000", "172305.343000", "172305.346000", "172305.350000", "172305.353000", "172305.356000", "172345.265000", "172345.269000", "172345.273000", "172345.276000", "172345.280000", "172345.283000", "172345.287000", "172345.290000", "172345.293000", "172345.297000", "172345.300000", "172345.304000", "172345.307000", "172345.310000", "172345.314000", "172345.317000", "172345.321000", "172345.324000", "172345.329000", "172345.332000", "172345.335000", "172345.339000", "172345.342000", "172345.346000", "172345.349000", "172345.352000", "172345.356000", "172425.265000", "172425.269000", "172425.273000", "172425.276000", "172425.280000", "172425.283000", "172425.286000", "172425.290000", "172425.293000", "172425.297000", "172425.300000", "172425.304000", "172425.307000", "172425.311000", "172425.314000", "172425.317000", "172425.321000", "172425.324000", "172425.327000", "172425.331000", "172425.335000", "172425.338000", "172425.341000", "172425.345000", "172425.348000", "172425.352000", "172425.355000", "172505.266000", "172505.270000", "172505.287000", "172505.290000", "172505.294000", "172505.297000", "172505.301000", "172505.304000", "172505.308000", "172505.312000", "172505.316000", "172505.319000", "172505.322000", "172505.326000", "172505.329000", "172505.333000", "172505.336000", "172505.340000", "172505.343000", "172505.347000", "172505.350000", "172505.353000", "172505.357000", "172505.360000", "172505.364000", "172505.367000", "172505.371000", "172513.354000", "172513.358000", "172513.362000", "172513.365000", "172513.369000"],
