{
  "AcquisitionMatrixPE": 104,
  "AcquisitionNumber": 1,
  "AcquisitionTime": "17:29:4.890000",
  "BandwidthPerPixelPhaseEncode": 17.17,
  "BaseResolution": 104,
  "BodyPartExamined": "BRAIN",
  "CoilCombinationMethod": "Sum of Squares",
  "ConsistencyInfo": "N4_VE11C_LATEST_20160120",
  "ConversionSoftware": "dcm2niix",
  "ConversionSoftwareVersion": "v1.0.20211006",
  "DerivedVendorReportedEchoSpacing": 0.000560011,
  "DeviceSerialNumber": "167006",
  "DwellTime": 2.1e-06,
  "EchoTime": 0.037,
  "EchoTime1": 0.037,
  "EchoTime2": 0.001,
  "EchoTrainLength": 104,
  "EffectiveEchoSpacing": 0.000560011,
  "FlipAngle": 52,
  "HeudiconvVersion": "0.10.0",
  "ImageComments": "Unaliased MB4/PE3/LB",
  "ImageOrientationPatientDICOM": [0.999483, 0.00640232, 0.0315127, 0.00244225, 0.962036, -0.272913],
  "ImageOrientationText": "Tra>Cor(-15.8)>Sag(1.8)",
  "ImageType": [
    "ORIGINAL",
    "PRIMARY",
    "P",
    "MB",
    "ND",
    "MOSAIC",
    "PHASE"
],
  "ImagingFrequency": 123.259,
  "InPlanePhaseEncodingDirectionDICOM": "COL",
  "InstitutionAddress": "Chemin Queen-Mary 4565,Montreal,District,CA,H3W 1W5",
  "InstitutionName": "IUGM",
  "InstitutionalDepartmentName": "Department",
  "MRAcquisitionType": "2D",
  "MagneticFieldStrength": 3,
  "Manufacturer": "Siemens",
  "ManufacturersModelName": "Prisma_fit",
  "MatrixCoilMode": "SENSE",
  "Modality": "MR",
  "MultibandAccelerationFactor": 4,
  "PartialFourier": 1,
  "PatientPosition": "HFS",
  "PercentPhaseFOV": 100,
  "PercentSampling": 100,
  "PhaseEncodingDirection": "j",
  "PhaseEncodingSteps": 104,
  "PhaseResolution": 1,
  "PixelBandwidth": 2290,
  "ProcedureStepDescription": "games^mario",
  "ProtocolName": "func_task-mario_run-02",
  "PulseSequenceDetails": "%CustomerSeq%\\cmrr_mbep2d_bold",
  "ReceiveCoilActiveElements": "HC1-7;NC1,2",
  "ReceiveCoilName": "HeadNeck_64",
  "ReconMatrixPE": 104,
  "RepetitionTime": 1.49,
  "SAR": 0.0492056,
  "ScanOptions": "FS",
  "ScanningSequence": "EP",
  "SequenceName": "epfid2d1_104",
  "SequenceVariant": "SK\\SS",
  "SeriesDescription": "func_task-mario_run-02",
  "SeriesNumber": 14,
  "ShimSetting": [635, -7223, -8788, 709, 40, -33, 57, -23],
  "SliceThickness": 2,
  "SliceTiming": [0, 0.7825, 0.0975, 0.8825, 0.195, 0.98, 0.295, 1.0775, 0.3925, 1.175, 0.49, 1.2725, 0.5875, 1.3725, 0.685, 0, 0.7825, 0.0975, 0.8825, 0.195, 0.98, 0.295, 1.0775, 0.3925, 1.175, 0.49, 1.2725, 0.5875, 1.3725, 0.685, 0, 0.7825, 0.0975, 0.8825, 0.195, 0.98, 0.295, 1.0775, 0.3925, 1.175, 0.49, 1.2725, 0.5875, 1.3725, 0.685, 0, 0.7825, 0.0975, 0.8825, 0.195, 0.98, 0.295, 1.0775, 0.3925, 1.175, 0.49, 1.2725, 0.5875, 1.3725, 0.685],
  "SoftwareVersions": "syngo MR E11",
  "SpacingBetweenSlices": 2,
  "StationName": "MRC35049",
  "TaskName": "mario",
  "TotalReadoutTime": 0.0576811,
  "TxRefAmp": 237.366,
  "WipMemBlock": "0a859fa5-5e84-448d-b9a3-a57f7905dcf8||Sequence: R016 ve11c/master r/e634e98; Dec 19 2017 11:00:25 by eja",
  "dcmmeta_affine": [
    [-1.9989657402038574, 0.004884491208940744, 0.06412726640701294, 107.16583251953125],
    [-0.012804631143808365, 1.9240710735321045, -0.5456981062889099, -72.16642761230469],
    [0.06302543729543686, 0.5458264350891113, 1.9230448007583618, -65.45317840576172],
    [0.0, 0.0, 0.0, 1.0]
],
  "dcmmeta_reorient_transform": [
    [0.0, -1.0, 0.0, 103.0],
    [1.0, 0.0, 0.0, 0.0],
    [0.0, 0.0, 1.0, 0.0],
    [0.0, 0.0, 0.0, 1.0]
],
  "dcmmeta_shape": [104, 104, 60, 423],
  "dcmmeta_slice_dim": 2,
  "dcmmeta_version": 0.6,
  "global": {
    "const": {
      "AcquisitionMatrix": [104, 0, 0, 104],
      "AngioFlag": "N",
      "BitsAllocated": 16,
      "BitsStored": 16,
      "BodyPartExamined": "BRAIN",
      "Columns": 832,
      "EchoNumbers": 1,
      "EchoTime": 37.0,
      "EchoTrainLength": 104,
      "FlipAngle": 52.0,
      "HighBit": 15,
      "ImageOrientationPatient": [0.99948284571358, 0.00640231569398, 0.03151271930579, 0.00244224551062, 0.96203555425431, -0.2729132239146],
      "ImagePositionPatient": [-837.0704049177, -831.03566454747, 166.50651667902],
      "ImageType": [
        "ORIGINAL",
        "PRIMARY",
        "P",
        "MB",
        "ND",
        "MOSAIC"
],
      "ImagedNucleus": "1H",
      "ImagingFrequency": 123.258873,
      "InPlanePhaseEncodingDirection": "COL",
      "LargestImagePixelValue": 4095,
      "MRAcquisitionType": "2D",
      "MagneticFieldStrength": 3.0,
      "Manufacturer": "SIEMENS",
      "ManufacturerModelName": "Prisma_fit",
      "Modality": "MR",
      "NumberOfAverages": 1.0,
      "NumberOfPhaseEncodingSteps": 104,
      "PercentPhaseFieldOfView": 100.0,
      "PercentSampling": 100.0,
      "PerformedProcedureStepStartTime": "165537.084000",
      "PhotometricInterpretation": "MONOCHROME2",
      "PixelBandwidth": 2290.0,
      "PixelRepresentation": 0,
      "PixelSpacing": [2.0, 2.0],
      "ProtocolName": "func_task-mario_run-02",
      "RepetitionTime": 1490.0,
      "RescaleIntercept": -4096.0,
      "RescaleSlope": 2.0,
      "RescaleType": "US",
      "Rows": 832,
      "SAR": 0.04920561631576,
      "SamplesPerPixel": 1,
      "ScanOptions": "FS",
      "ScanningSequence": "EP",
      "SequenceName": "epfid2d1_104",
      "SequenceVariant": [
        "SK",
        "SS"
],
      "SeriesDescription": "func_task-mario_run-02",
      "SeriesNumber": 14,
      "SeriesTime": "173028.465000",
      "SliceLocation": -39.808026122778,
      "SliceThickness": 2.0,
      "SmallestImagePixelValue": 0,
      "SoftwareVersions": "syngo MR E11",
      "SpacingBetweenSlices": 2.0000000298745,
      "SpecificCharacterSet": "ISO_IR 100",
      "StudyID": "1",
      "StudyTime": "165537.031000",
      "TransmitCoilName": "Body",
      "VariableFlipAngleFlag": "N",
      "WindowCenterWidthExplanation": "Algo1",
      "dBdt": 0.0},
    "slices": {}
  },
  "time": {
    "samples": {
      "AcquisitionNumber": [1, 2, 3, 4, 5, 6, 7, 8, 9, 10, 11, 12, 13, 14, 15, 16, 17, 18, 19, 20, 21, 22, 23, 24, 25, 26, 27, 28, 29, 30, 31, 32, 33, 34, 35, 36, 37, 38, 39, 40, 41, 42, 43, 44, 45, 46, 47, 48, 49, 50, 51, 52, 53, 54, 55, 56, 57, 58, 59, 60, 61, 62, 63, 64, 65, 66, 67, 68, 69, 70, 71, 72, 73, 74, 75, 76, 77, 78, 79, 80, 81, 82, 83, 84, 85, 86, 87, 88, 89, 90, 91, 92, 93, 94, 95, 96, 97, 98, 99, 100, 101, 102, 103, 104, 105, 106, 107, 108, 109, 110, 111, 112, 113, 114, 115, 116, 117, 118, 119, 120, 121, 122, 123, 124, 125, 126, 127, 128, 129, 130, 131, 132, 133, 134, 135, 136, 137, 138, 139, 140, 141, 142, 143, 144, 145, 146, 147, 148, 149, 150, 151, 152, 153, 154, 155, 156, 157, 158, 159, 160, 161, 162, 163, 164, 165, 166, 167, 168, 169, 170, 171, 172, 173, 174, 175, 176, 177, 178, 179, 180, 181, 182, 183, 184, 185, 186, 187, 188, 189, 190, 191, 192, 193, 194, 195, 196, 197, 198, 199, 200, 201, 202, 203, 204, 205, 206, 207, 208, 209, 210, 211, 212, 213, 214, 215, 216, 217, 218, 219, 220, 221, 222, 223, 224, 225, 226, 227, 228, 229, 230, 231, 232, 233, 234, 235, 236, 237, 238, 239, 240, 241, 242, 243, 244, 245, 246, 247, 248, 249, 250, 251, 252, 253, 254, 255, 256, 257, 258, 259, 260, 261, 262, 263, 264, 265, 266, 267, 268, 269, 270, 271, 272, 273, 274, 275, 276, 277, 278, 279, 280, 281, 282, 283, 284, 285, 286, 287, 288, 289, 290, 291, 292, 293, 294, 295, 296, 297, 298, 299, 300, 301, 302, 303, 304, 305, 306, 307, 308, 309, 310, 311, 312, 313, 314, 315, 316, 317, 318, 319, 320, 321, 322, 323, 324, 325, 326, 327, 328, 329, 330, 331, 332, 333, 334, 335, 336, 337, 338, 339, 340, 341, 342, 343, 344, 345, 346, 347, 348, 349, 350, 351, 352, 353, 354, 355, 356, 357, 358, 359, 360, 361, 362, 363, 364, 365, 366, 367, 368, 369, 370, 371, 372, 373, 374, 375, 376, 377, 378, 379, 380, 381, 382, 383, 384, 385, 386, 387, 388, 389, 390, 391, 392, 393, 394, 395, 396, 397, 398, 399, 400, 401, 402, 403, 404, 405, 406, 407, 408, 409, 410, 411, 412, 413, 414, 415, 416, 417, 418, 419, 420, 421, 422, 423],
      "AcquisitionTime": ["172904.890000", "172906.380000", "172907.870000", "172909.360000", "172910.850000", "172912.340000", "172913.830000", "172915.320000", "172916.810000", "172918.300000", "172919.790000", "172921.280000", "172922.770000", "172924.260000", "172925.750000", "172927.240000", "172928.730000", "172930.220000", "172931.710000", "172933.200000", "172934.690000", "172936.180000", "172937.670000", "172939.160000", "172940.650000", "172942.140000", "172943.630000", "172945.120000", "172946.610000", "172948.100000", "172949.590000", "172951.080000", "172952.570000", "172954.060000", "172955.550000", "172957.040000", "172958.530000", "173000.020000", "173001.510000", "173003.000000", "173004.490000", "173005.980000", "173007.470000", "173008.960000", "173010.450000", "173011.940000", "173013.430000", "173014.920000", "173016.410000", "173017.900000", "173019.390000", "173020.880000", "173022.370000", "173023.860000", "173025.350000", "173026.840000", "173028.330000", "173029.820000", "173031.310000", "173032.800000", "173034.290000", "173035.780000", "173037.270000", "173038.760000", "173040.250000", "173041.740000", "173043.230000", "173044.720000", "173046.210000", "173047.700000", "173049.190000", "173050.680000", "173052.170000", "173053.660000", "173055.150000", "173056.640000", "173058.130000", "173059.620000", "173101.110000", "173102.600000", "173104.090000", "173105.580000", "173107.070000", "173108.560000", "173110.050000", "173111.540000", "173113.030000", "173114.520000", "173116.010000", "173117.500000", "173118.990000", "173120.480000", "173121.970000", "173123.460000", "173124.950000", "173126.440000", "173127.930000", "173129.420000", "173130.910000", "173132.400000", "173133.890000", "173135.380000", "173136.870000", "173138.360000", "173139.850000", "173141.340000", "173142.830000", "173144.320000", "173145.810000", "173147.300000", "173148.790000", "173150.280000", "173151.770000", "173153.260000", "173154.750000", "173156.240000", "173157.730000", "173159.220000", "173200.710000", "173202.200000", "173203.690000", "173205.180000", "173206.670000", "173208.160000", "173209.650000", "173211.140000", "173212.630000", "173214.120000", "173215.610000", "173217.100000", "173218.590000", "173220.080000", "173221.570000", "173223.060000", "173224.550000", "173226.040000", "173227.530000", "173229.020000", "173230.510000", "173232.000000", "173233.490000", "173234.980000", "173236.470000", "173237.960000", "173239.450000", "173240.940000", "173242.430000", "173243.920000", "173245.410000", "173246.900000", "173248.390000", "173249.880000", "173251.370000", "173252.860000", "173254.350000", "173255.840000", "173257.330000", "173258.820000", "173300.310000", "173301.800000", "173303.290000", "173304.780000", "173306.270000", "173307.760000", "173309.250000", "173310.740000", "173312.230000", "173313.720000", "173315.210000", "173316.700000", "173318.190000", "173319.680000", "173321.170000", "173322.660000", "173324.150000", "173325.640000", "173327.130000", "173328.620000", "173330.110000", "173331.600000", "173333.090000", "173334.580000", "173336.070000", "173337.560000", "173339.050000", "173340.540000", "173342.030000", "173343.520000", "173345.010000", "173346.500000", "173347.990000", "173349.480000", "173350.970000", "173352.460000", "173353.950000", "173355.440000", "173356.930000", "173358.420000", "173359.910000", "173401.400000", "173402.890000", "173404.380000", "173405.870000", "173407.360000", "173408.850000", "173410.340000", "173411.830000", "173413.320000", "173414.810000", "173416.300000", "173417.790000", "173419.280000", "173420.770000", "173422.260000", "173423.750000", "173425.240000", "173426.730000", "173428.220000", "173429.710000", "173431.200000", "173432.690000", "173434.180000", "173435.670000", "173437.160000", "173438.650000", "173440.140000", "173441.630000", "173443.120000", "173444.610000", "173446.100000", "173447.590000", "173449.080000", "173450.570000", "173452.060000", "173453.550000", "173455.040000", "173456.530000", "173458.020000", "173459.510000", "173501.000000", "173502.490000", "173503.980000", "173505.470000", "173506.960000", "173508.450000", "173509.940000", "173511.430000", "173512.920000", "173514.410000", "173515.900000", "173517.390000", "173518.880000", "173520.370000", "173521.860000", "173523.350000", "173524.840000", "173526.330000", "173527.820000", "173529.310000", "173530.800000", "173532.290000", "173533.780000", "173535.270000", "173536.760000", "173538.250000", "173539.740000", "173541.230000", "173542.720000", "173544.210000", "173545.700000", "173547.190000", "173548.680000", "173550.170000", "173551.660000", "173553.150000", "173554.640000", "173556.130000", "173557.620000", "173559.110000", "173600.600000", "173602.090000", "173603.580000", "173605.070000", "173606.560000", "173608.050000", "173609.540000", "173611.030000", "173612.520000", "173614.010000", "173615.500000", "173616.990000", "173618.480000", "173619.970000", "173621.460000", "173622.950000", "173624.440000", "173625.930000", "173627.420000", "173628.910000", "173630.400000", "173631.890000", "173633.380000", "173634.870000", "173636.360000", "173637.850000", "173639.340000", "173640.830000", "173642.320000", "173643.810000", "173645.300000", "173646.790000", "173648.280000", "173649.770000", "173651.260000", "173652.750000", "173654.240000", "173655.730000", "173657.220000", "173658.710000", "173700.200000", "173701.690000", "173703.180000", "173704.670000", "173706.160000", "173707.650000", "173709.140000", "173710.630000", "173712.120000", "173713.610000", "173715.100000", "173716.590000", "173718.080000", "173719.570000", "173721.060000", "173722.550000", "173724.040000", "173725.530000", "173727.020000", "173728.510000", "173730.000000", "173731.490000", "173732.980000", "173734.470000", "173735.960000", "173737.450000", "173738.940000", "173740.430000", "173741.920000", "173743.410000", "173744.900000", "173746.390000", "173747.880000", "173749.370000", "173750.860000", "173752.350000", "173753.840000", "173755.330000", "173756.820000", "173758.310000", "173759.800000", "173801.290000", "173802.780000", "173804.270000", "173805.760000", "173807.250000", "173808.740000", "173810.230000", "173811.720000", "173813.210000", "173814.700000", "173816.190000", "173817.680000", "173819.170000", "173820.660000", "173822.150000", "173823.640000", "173825.130000", "173826.620000", "173828.110000", "173829.600000", "173831.090000", "173832.580000", "173834.070000", "173835.560000", "173837.050000", "173838.540000", "173840.030000", "173841.520000", "173843.010000", "173844.500000", "173845.990000", "173847.480000", "173848.970000", "173850.460000", "173851.950000", "173853.440000", "173854.930000", "173856.420000", "173857.910000", "173859.400000", "173900.890000", "173902.380000", "173903.870000", "173905.360000", "173906.850000", "173908.340000", "173909.830000", "173911.320000", "173912.810000", "173914.300000", "173915.790000", "173917.280000", "173918.770000", "173920.260000", "173921.750000", "173923.240000", "173924.730000", "173926.220000", "173927.710000", "173929.200000", "173930.690000", "173932.180000", "173933.670000"],
      "ContentTime": ["173028.467000", "173028.470000", "173028.473000", "173028.476000", "173028.478000", "173028.481000", "173028.483000", "173028.486000", "173028.488000", "173028.491000", "173028.493000", "173028.496000", "173028.498000", "173028.501000", "173028.503000", "173028.506000", "173028.508000", "173028.511000", "173028.513000", "173028.516000", "173028.518000", "173028.521000", "173028.524000", "173028.526000", "173028.529000", "173028.531000", "173028.540000", "173028.543000", "173048.396000", "173048.399000", "173048.401000", "173048.404000", "173048.406000", "173048.409000", "173048.411000", "173048.414000", "173048.416000", "173048.419000", "173048.421000", "173048.424000", "173048.426000", "173048.429000", "173048.431000", "173048.434000", "173048.436000", "173048.439000", "173048.441000", "173048.444000", "173108.396000", "173108.399000", "173108.401000", "173108.404000", "173108.406000", "173108.409000", "173108.411000", "173108.414000", "173108.416000", "173108.419000", "173108.421000", "173108.424000", "173108.426000", "173108.429000", "173108.431000", "173108.434000", "173108.436000", "173108.439000", "173108.441000", "173108.444000", "173128.395000", "173128.397000", "173128.400000", "173128.403000", "173128.405000", "173128.408000", "173128.410000", "173128.413000", "173128.415000", "173128.418000", "173128.420000", "173128.423000", "173128.425000", "173128.428000", "173128.430000", "173128.433000", "173128.435000", "173128.438000", "173128.440000", "173128.443000", "173148.400000", "173148.402000", "173148.405000", "173148.408000", "173148.410000", "173148.413000", "173148.415000", "173148.418000", "173148.420000", "173148.423000", "173148.425000", "173148.428000", "173148.430000", "173148.441000", "173148.443000", "173148.446000", "173148.449000", "173148.451000", "173148.454000", "173148.456000", "173228.407000", "173228.410000", "173228.413000", "173228.415000", "173228.417000", "173228.420000", "173228.423000", "173228.425000", "173228.428000", "173228.430000", "173228.433000", "173228.435000", "173228.438000", "173228.440000", "173228.443000", "173228.445000", "173228.448000", "173228.450000", "173228.453000", "173228.455000", "173228.458000", "173228.460000", "173228.463000", "173228.465000", "173228.468000", "173228.470000", "173228.473000", "173228.476000", "173308.432000", "173308.434000", "173308.437000", "173308.439000", "173308.442000", "173308.444000", "173308.447000", "173308.450000", "173308.452000", "173308.455000", "173308.457000", "173308.460000", "173308.462000", "173308.465000", "173308.467000", "173308.470000", "173308.473000", "173308.475000", "173308.478000", "173308.480000", "173308.483000", "173308.485000", "173308.488000", "173308.490000", "173308.493000", "173308.495000", "173308.498000", "173348.406000", "173348.409000", "173348.411000", "173348.414000", "173348.417000", "173348.420000", "173348.422000", "173348.425000", "173348.427000", "173348.430000", "173348.432000", "173348.435000", "173348.438000", "173348.440000", "173348.443000", "173348.445000", "173348.448000", "173348.450000", "173348.453000", "173348.456000", "173348.458000", "173348.461000", "173348.463000", "173348.466000", "173348.468000", "173348.471000", "173348.473000", "173428.419000", "173428.422000", "173428.424000", "173428.427000", "173428.429000", "173428.432000", "173428.434000", "173428.437000", "173428.439000", "173428.442000", "173428.444000", "173428.447000", "173428.450000", "173428.452000", "173428.455000", "173428.457000", "173428.460000", "173428.462000", "173428.465000", "173428.467000", "173428.470000", "173428.472000", "173428.475000", "173428.477000", "173428.480000", "173428.483000", "173508.415000", "173508.418000", "173508.421000", "173508.423000", "173508.426000", "173508.428000", "173508.431000", "173508.433000", "173508.436000", "173508.439000", "173508.442000", "173508.445000", "173508.448000", "173508.450000", "173508.453000", "173508.455000", "173508.458000", "173508.461000", "173508.463000", "173508.466000", "173508.468000", "173508.471000", "173508.473000", "173508.476000", "173508.479000", "173508.481000", "173508.484000", "173548.424000", "173548.427000", "173548.429000", "173548.432000", "173548.434000", "173548.437000", "173548.439000", "173548.442000", "173548.444000", "173548.447000", "173548.450000", "173548.452000", "173548.455000", "173548.457000", "173548.459000", "173548.462000", "173548.464000", "173548.467000", "173548.470000", "173548.472000", "173548.474000", "173548.477000", "173548.480000", "173548.482000", "173548.485000", "173548.487000", "173548.490000", "173628.420000", "173628.423000", "173628.426000", "173628.428000", "173628.431000", "173628.433000", "173628.436000", "173628.438000", "173628.441000", "173628.443000", "173628.446000", "173628.448000", "173628.451000", "173628.453000", "173628.456000", "173628.458000", "173628.461000", "173628.464000", "173628.467000", "173628.469000", "173628.472000", "173628.474000", "173628.477000", "173628.479000", "173628.482000", "173628.484000", "173628.487000", "173708.411000", "173708.414000", "173708.417000", "173708.422000", "173708.424000", "173708.427000", "173708.430000", "173708.432000", "173708.435000", "173708.437000", "173708.440000", "173708.443000", "173708.445000", "173708.448000", "173708.450000", "173708.453000", "173708.455000", "173708.458000", "173708.460000", "173708.463000", "173708.465000", "173708.468000", "173708.470000", "173708.473000", "173708.475000", "173708.478000", "173708.480000", "173748.430000", "173748.433000", "173748.436000", "173748.438000", "173748.441000", "173748.443000", "173748.446000", "173748.448000", "173748.451000", "173748.453000", "173748.456000", "173748.458000", "173748.461000", "173748.463000", "173748.466000", "173748.468000", "173748.471000", "173748.473000", "173748.476000", "173748.479000", "173748.481000", "173748.484000", "173748.486000", "173748.489000", "173748.491000", "173748.494000", "173748.496000", "173828.439000", "173828.442000", "173828.445000", "173828.447000", "173828.450000", "173828.452000", "173828.455000", "173828.458000", "173828.460000", "173828.463000", "173828.465000", "173828.468000", "173828.470000", "173828.473000", "173828.475000", "173828.478000", "173828.480000", "173828.483000", "173828.485000", "173828.488000", "173828.490000", "173828.493000", "173828.495000", "173828.498000", "173828.500000", "173828.503000", "173828.506000", "173908.413000", "173908.416000", "173908.418000", "173908.421000", "173908.424000", "173908.426000", "173908.429000", "173908.431000", "173908.434000", "173908.436000", "173908.439000", "173908.441000", "173908.444000", "173908.446000", "173908.449000", "173908.453000", "173908.457000", "173908.460000", "173908.463000", "173908.466000", "173908.470000", "173908.474000", "173908.477000", "173908.480000", "173908.482000", "173908.485000", "173936.501000", "173936.503000", "173936.506000", "173936.508000", "173936.511000", "173936.513000", "173936.516000", "173936.519000", "173936.521000", "173936.524000", "173936.526000", "173936.529000", "173936.531000", "173936.534000", "173936.536000", "173936.539000", "173936.541000", "173936.544000", "173936.546000"],
      "InstanceCreationTime": ["173028.467000", "173028.470000", "173028.473000", "173028.476000", "173028.478000", "173028.481000", "173028.483000", "173028.486000", "173028.488000", "173028.491000", "173028.493000", "173028.496000", "173028.498000", "173028.501000", "173028.503000", "173028.506000", "173028.508000", "173028.511000", "173028.513000", "173028.516000", "173028.518000", "173028.521000", "173028.524000", "173028.526000", "173028.529000", "173028.531000", "173028.540000", "173028.543000", "173048.396000", "173048.399000", "173048.401000", "173048.404000", "173048.406000", "173048.409000", "173048.411000", "173048.414000", "173048.416000", "173048.419000", "173048.421000", "173048.424000", "173048.426000", "173048.429000", "173048.431000", "173048.434000", "173048.436000", "173048.439000", "173048.441000", "173048.444000", "173108.396000", "173108.399000", "173108.401000", "173108.404000", "173108.406000", "173108.409000", "173108.411000", "173108.414000", "173108.416000", "173108.419000", "173108.421000", "173108.424000", "173108.426000", "173108.429000", "173108.431000", "173108.434000", "173108.436000", "173108.439000", "173108.441000", "173108.444000", "173128.395000", "173128.397000", "173128.400000", "173128.403000", "173128.405000", "173128.408000", "173128.410000", "173128.413000", "173128.415000", "173128.418000", "173128.420000", "173128.423000", "173128.425000", "173128.428000", "173128.430000", "173128.433000", "173128.435000", "173128.438000", "173128.440000", "173128.443000", "173148.400000", "173148.402000", "173148.405000", "173148.408000", "173148.410000", "173148.413000", "173148.415000", "173148.418000", "173148.420000", "173148.423000", "173148.425000", "173148.428000", "173148.430000", "173148.441000", "173148.443000", "173148.446000", "173148.449000", "173148.451000", "173148.454000", "173148.456000", "173228.407000", "173228.410000", "173228.413000", "173228.415000", "173228.417000", "173228.420000", "173228.423000", "173228.425000", "173228.428000", "173228.430000", "173228.433000", "173228.435000", "173228.438000", "173228.440000", "173228.443000", "173228.445000", "173228.448000", "173228.450000", "173228.453000", "173228.455000", "173228.458000", "173228.460000", "173228.463000", "173228.465000", "173228.468000", "173228.470000", "173228.473000", "173228.476000", "173308.432000", "173308.434000", "173308.437000", "173308.439000", "173308.442000", "173308.444000", "173308.447000", "173308.450000", "173308.452000", "173308.455000", "173308.457000", "173308.460000", "173308.462000", "173308.465000", "173308.467000", "173308.470000", "173308.473000", "173308.475000", "173308.478000", "173308.480000", "173308.483000", "173308.485000", "173308.488000", "173308.490000", "173308.493000", "173308.495000", "173308.498000", "173348.406000", "173348.409000", "173348.411000", "173348.414000", "173348.417000", "173348.420000", "173348.422000", "173348.425000", "173348.427000", "173348.430000", "173348.432000", "173348.435000", "173348.438000", "173348.440000", "173348.443000", "173348.445000", "173348.448000", "173348.450000", "173348.453000", "173348.456000", "173348.458000", "173348.461000", "173348.463000", "173348.466000", "173348.468000", "173348.471000", "173348.473000", "173428.419000", "173428.422000", "173428.424000", "173428.427000", "173428.429000", "173428.432000", "173428.434000", "173428.437000", "173428.439000", "173428.442000", "173428.444000", "173428.447000", "173428.450000", "173428.452000", "173428.455000", "173428.457000", "173428.460000", "173428.462000", "173428.465000", "173428.467000", "173428.470000", "173428.472000", "173428.475000", "173428.477000", "173428.480000", "173428.483000", "173508.415000", "173508.418000", "173508.421000", "173508.423000", "173508.426000", "173508.428000", "173508.431000", "173508.433000", "173508.436000", "173508.439000", "173508.442000", "173508.445000", "173508.448000", "173508.450000", "173508.453000", "173508.455000", "173508.458000", "173508.461000", "173508.463000", "173508.466000", "173508.468000", "173508.471000", "173508.473000", "173508.476000", "173508.479000", "173508.481000", "173508.484000", "173548.424000", "173548.427000", "173548.429000", "173548.432000", "173548.434000", "173548.437000", "173548.439000", "173548.442000", "173548.444000", "173548.447000", "173548.450000", "173548.452000", "173548.455000", "173548.457000", "173548.459000", "173548.462000", "173548.464000", "173548.467000", "173548.470000", "173548.472000", "173548.474000", "173548.477000", "173548.480000", "173548.482000", "173548.485000", "173548.487000", "173548.490000", "173628.420000", "173628.423000", "173628.426000", "173628.428000", "173628.431000", "173628.433000", "173628.436000", "173628.438000", "173628.441000", "173628.443000", "173628.446000", "173628.448000", "173628.451000", "173628.453000", "173628.456000", "173628.458000", "173628.461000", "173628.464000", "173628.467000", "173628.469000", "173628.472000", "173628.474000", "173628.477000", "173628.479000", "173628.482000", "173628.484000", "173628.487000", "173708.411000", "173708.414000", "173708.417000", "173708.422000", "173708.424000", "173708.427000", "173708.430000", "173708.432000", "173708.435000", "173708.437000", "173708.440000", "173708.443000", "173708.445000", "173708.448000", "173708.450000", "173708.453000", "173708.455000", "173708.458000", "173708.460000", "173708.463000", "173708.465000", "173708.468000", "173708.470000", "173708.473000", "173708.475000", "173708.478000", "173708.480000", "173748.430000", "173748.433000", "173748.436000", "173748.438000", "173748.441000", "173748.443000", "173748.446000", "173748.448000", "173748.451000", "173748.453000", "173748.456000", "173748.458000", "173748.461000", "173748.463000", "173748.466000", "173748.468000", "173748.471000", "173748.473000", "173748.476000", "173748.479000", "173748.481000", "173748.484000", "173748.486000", "173748.489000", "173748.491000", "173748.494000", "173748.496000", "173828.439000", "173828.442000", "173828.445000", "173828.447000", "173828.450000", "173828.452000", "173828.455000", "173828.458000", "173828.460000", "173828.463000", "173828.465000", "173828.468000", "173828.470000", "173828.473000", "173828.475000", "173828.478000", "173828.480000", "173828.483000", "173828.485000", "173828.488000", "173828.490000", "173828.493000", "173828.495000", "173828.498000", "173828.500000", "173828.503000", "173828.506000", "173908.413000", "173908.416000", "173908.418000", "173908.421000", "173908.424000", "173908.426000", "173908.429000", "173908.431000", "173908.434000", "173908.436000", "173908.439000", "173908.441000", "173908.444000", "173908.446000", "173908.449000", "173908.453000", "173908.457000", "173908.460000", "173908.463000", "173908.466000", "173908.470000", "173908.474000", "173908.477000", "173908.480000", "173908.482000", "173908.485000", "173936.501000", "173936.503000", "173936.506000", "173936.508000", "173936.511000", "173936.513000", "173936.516000", "173936.519000", "173936.521000", "173936.524000", "173936.526000", "173936.529000", "173936.531000", "173936.534000", "173936.536000", "173936.539000", "173936.541000", "173936.544000", "173936.546000"],
