{
  "AcquisitionMatrixPE": 104,
  "AcquisitionNumber": 1,
  "AcquisitionTime": "15:12:55.400000",
  "BandwidthPerPixelPhaseEncode": 17.17,
  "BaseResolution": 104,
  "BodyPartExamined": "BRAIN",
  "CoilString": "HC1-7;NC1_2",
  "ConsistencyInfo": "N4_VE11C_LATEST_20160120",
  "ConversionSoftware": "dcm2niix",
  "ConversionSoftwareVersion": "v1.0.20190902",
  "DerivedVendorReportedEchoSpacing": 0.000560011,
  "DeviceSerialNumber": "167006",
  "DwellTime": 2.1e-06,
  "EchoTime": 0.037,
  "EchoTrainLength": 104,
  "EffectiveEchoSpacing": 0.000560011,
  "FlipAngle": 52,
  "HeudiconvVersion": "0.10.0",
  "ImageComments": "Unaliased_MB4_PE3_LB",
  "ImageOrientationPatientDICOM": [0.999626, -0.0272754, -0.0018266, 0.0253032, 0.948495, -0.31578],
  "ImageType": [
    "ORIGINAL",
    "PRIMARY",
    "P",
    "MB",
    "ND",
    "MOSAIC"
],
  "ImagingFrequency": 123.259,
  "InPlanePhaseEncodingDirectionDICOM": "COL",
  "InstitutionAddress": "Chemin_Queen-Mary_4565_Montreal_District_CA_H3W_1W5",
  "InstitutionName": "IUGM",
  "InstitutionalDepartmentName": "Department",
  "MRAcquisitionType": "2D",
  "MagneticFieldStrength": 3,
  "Manufacturer": "Siemens",
  "ManufacturersModelName": "Prisma_fit",
  "Modality": "MR",
  "MultibandAccelerationFactor": 4,
  "PartialFourier": 1,
  "PatientPosition": "HFS",
  "PercentPhaseFOV": 100,
  "PhaseEncodingDirection": "j",
  "PhaseEncodingSteps": 104,
  "PhaseResolution": 1,
  "PixelBandwidth": 2290,
  "ProcedureStepDescription": "games_mario",
  "ProtocolName": "func_task-mario_run-01",
  "PulseSequenceDetails": "%CustomerSeq%_cmrr_mbep2d_bold",
  "ReceiveCoilActiveElements": "HC1-7;NC1,2",
  "ReceiveCoilName": "HeadNeck_64",
  "ReconMatrixPE": 104,
  "RepetitionTime": 1.49,
  "SAR": 0.0558539,
  "ScanOptions": "FS",
  "ScanningSequence": "EP",
  "SequenceName": "epfid2d1_104",
  "SequenceVariant": "SK_SS",
  "SeriesDescription": "func_task-mario_run-01",
  "SeriesNumber": 11,
  "ShimSetting": [632, -7233, -8841, 597, 17, -201, -78, -18],
  "SliceThickness": 2,
  "SliceTiming": [0, 0.7825, 0.0975, 0.8825, 0.195, 0.98, 0.295, 1.0775, 0.3925, 1.175, 0.49, 1.2725, 0.5875, 1.3725, 0.685, 0, 0.7825, 0.0975, 0.8825, 0.195, 0.98, 0.295, 1.0775, 0.3925, 1.175, 0.49, 1.2725, 0.5875, 1.3725, 0.685, 0, 0.7825, 0.0975, 0.8825, 0.195, 0.98, 0.295, 1.0775, 0.3925, 1.175, 0.49, 1.2725, 0.5875, 1.3725, 0.685, 0, 0.7825, 0.0975, 0.8825, 0.195, 0.98, 0.295, 1.0775, 0.3925, 1.175, 0.49, 1.2725, 0.5875, 1.3725, 0.685],
  "SoftwareVersions": "syngo_MR_E11",
  "SpacingBetweenSlices": 2,
  "StationName": "MRC35049",
  "TaskName": "mario",
  "TotalReadoutTime": 0.0576811,
  "TxRefAmp": 272.036,
  "WipMemBlock": "48f1ebf3-4a6c-4a63-9f93-dac93475f631||Sequence: R016 ve11c/master r/e634e98; Dec 19 2017 11:00:25 by eja",
  "dcmmeta_affine": [
    [-1.9992525577545166, 0.05060642212629318, -0.020691102370619774, 104.03410339355469],
    [0.054550763219594955, 1.8969898223876953, -0.6312319040298462, -68.48554229736328],
    [-0.0036532096564769745, 0.6315603852272034, 1.8976612091064453, -68.69102478027344],
    [0.0, 0.0, 0.0, 1.0]
],
  "dcmmeta_reorient_transform": [
    [0.0, -1.0, 0.0, 103.0],
    [1.0, 0.0, 0.0, 0.0],
    [0.0, 0.0, 1.0, 0.0],
    [0.0, 0.0, 0.0, 1.0]
],
  "dcmmeta_shape": [104, 104, 60, 495],
  "dcmmeta_slice_dim": 2,
  "dcmmeta_version": 0.6,
  "global": {
    "const": {
      "AcquisitionMatrix": [104, 0, 0, 104],
      "AngioFlag": "N",
      "BitsAllocated": 16,
      "BitsStored": 16,
      "BodyPartExamined": "BRAIN",
      "Columns": 832,
      "EchoNumbers": 1,
      "EchoTime": 37.0,
      "EchoTrainLength": 104,
      "FlipAngle": 52.0,
      "HighBit": 15,
      "ImageOrientationPatient": [0.99962628869766, -0.027275381927, -0.001826604853, 0.02530321173972, 0.94849492271879, -0.3157801910385],
      "ImagePositionPatient": [-855.39524164936, -797.55223980219, 227.57744457488],
      "ImageType": [
        "ORIGINAL",
        "PRIMARY",
        "P",
        "MB",
        "ND",
        "MOSAIC"
],
      "ImagedNucleus": "1H",
      "ImagingFrequency": 123.258925,
      "InPlanePhaseEncodingDirection": "COL",
      "LargestImagePixelValue": 4095,
      "MRAcquisitionType": "2D",
      "MagneticFieldStrength": 3.0,
      "Manufacturer": "SIEMENS",
      "ManufacturerModelName": "Prisma_fit",
      "Modality": "MR",
      "NumberOfAverages": 1.0,
      "NumberOfPhaseEncodingSteps": 104,
      "PercentPhaseFieldOfView": 100.0,
      "PercentSampling": 100.0,
      "PerformedProcedureStepStartTime": "142718.014000",
      "PhotometricInterpretation": "MONOCHROME2",
      "PixelBandwidth": 2290.0,
      "PixelRepresentation": 0,
      "PixelSpacing": [2.0, 2.0],
      "ProtocolName": "func_task-mario_run-01",
      "RepetitionTime": 1490.0,
      "RescaleIntercept": -4096.0,
      "RescaleSlope": 2.0,
      "RescaleType": "US",
      "Rows": 832,
      "SAR": 0.05585392045331,
      "SamplesPerPixel": 1,
      "ScanOptions": "FS",
      "ScanningSequence": "EP",
      "SequenceName": "epfid2d1_104",
      "SequenceVariant": [
        "SK",
        "SS"
],
      "SeriesDescription": "func_task-mario_run-01",
      "SeriesNumber": 11,
      "SeriesTime": "151422.317000",
      "SliceLocation": -44.637305328698,
      "SliceThickness": 2.0,
      "SmallestImagePixelValue": 0,
      "SoftwareVersions": "syngo MR E11",
      "SpacingBetweenSlices": 2.0000000069129,
      "SpecificCharacterSet": "ISO_IR 100",
      "StudyID": "1",
      "StudyTime": "142717.934000",
      "TransmitCoilName": "Body",
      "VariableFlipAngleFlag": "N",
      "WindowCenterWidthExplanation": "Algo1",
      "dBdt": 0.0},
    "slices": {}
  },
  "time": {
    "samples": {
      "AcquisitionNumber": [1, 2, 3, 4, 5, 6, 7, 8, 9, 10, 11, 12, 13, 14, 15, 16, 17, 18, 19, 20, 21, 22, 23, 24, 25, 26, 27, 28, 29, 30, 31, 32, 33, 34, 35, 36, 37, 38, 39, 40, 41, 42, 43, 44, 45, 46, 47, 48, 49, 50, 51, 52, 53, 54, 55, 56, 57, 58, 59, 60, 61, 62, 63, 64, 65, 66, 67, 68, 69, 70, 71, 72, 73, 74, 75, 76, 77, 78, 79, 80, 81, 82, 83, 84, 85, 86, 87, 88, 89, 90, 91, 92, 93, 94, 95, 96, 97, 98, 99, 100, 101, 102, 103, 104, 105, 106, 107, 108, 109, 110, 111, 112, 113, 114, 115, 116, 117, 118, 119, 120, 121, 122, 123, 124, 125, 126, 127, 128, 129, 130, 131, 132, 133, 134, 135, 136, 137, 138, 139, 140, 141, 142, 143, 144, 145, 146, 147, 148, 149, 150, 151, 152, 153, 154, 155, 156, 157, 158, 159, 160, 161, 162, 163, 164, 165, 166, 167, 168, 169, 170, 171, 172, 173, 174, 175, 176, 177, 178, 179, 180, 181, 182, 183, 184, 185, 186, 187, 188, 189, 190, 191, 192, 193, 194, 195, 196, 197, 198, 199, 200, 201, 202, 203, 204, 205, 206, 207, 208, 209, 210, 211, 212, 213, 214, 215, 216, 217, 218, 219, 220, 221, 222, 223, 224, 225, 226, 227, 228, 229, 230, 231, 232, 233, 234, 235, 236, 237, 238, 239, 240, 241, 242, 243, 244, 245, 246, 247, 248, 249, 250, 251, 252, 253, 254, 255, 256, 257, 258, 259, 260, 261, 262, 263, 264, 265, 266, 267, 268, 269, 270, 271, 272, 273, 274, 275, 276, 277, 278, 279, 280, 281, 282, 283, 284, 285, 286, 287, 288, 289, 290, 291, 292, 293, 294, 295, 296, 297, 298, 299, 300, 301, 302, 303, 304, 305, 306, 307, 308, 309, 310, 311, 312, 313, 314, 315, 316, 317, 318, 319, 320, 321, 322, 323, 324, 325, 326, 327, 328, 329, 330, 331, 332, 333, 334, 335, 336, 337, 338, 339, 340, 341, 342, 343, 344, 345, 346, 347, 348, 349, 350, 351, 352, 353, 354, 355, 356, 357, 358, 359, 360, 361, 362, 363, 364, 365, 366, 367, 368, 369, 370, 371, 372, 373, 374, 375, 376, 377, 378, 379, 380, 381, 382, 383, 384, 385, 386, 387, 388, 389, 390, 391, 392, 393, 394, 395, 396, 397, 398, 399, 400, 401, 402, 403, 404, 405, 406, 407, 408, 409, 410, 411, 412, 413, 414, 415, 416, 417, 418, 419, 420, 421, 422, 423, 424, 425, 426, 427, 428, 429, 430, 431, 432, 433, 434, 435, 436, 437, 438, 439, 440, 441, 442, 443, 444, 445, 446, 447, 448, 449, 450, 451, 452, 453, 454, 455, 456, 457, 458, 459, 460, 461, 462, 463, 464, 465, 466, 467, 468, 469, 470, 471, 472, 473, 474, 475, 476, 477, 478, 479, 480, 481, 482, 483, 484, 485, 486, 487, 488, 489, 490, 491, 492, 493, 494, 495],
      "AcquisitionTime": ["151255.400000", "151256.890000", "151258.380000", "151259.870000", "151301.360000", "151302.850000", "151304.340000", "151305.830000", "151307.320000", "151308.810000", "151310.300000", "151311.790000", "151313.280000", "151314.770000", "151316.260000", "151317.750000", "151319.240000", "151320.730000", "151322.220000", "151323.710000", "151325.200000", "151326.690000", "151328.180000", "151329.670000", "151331.160000", "151332.650000", "151334.140000", "151335.630000", "151337.120000", "151338.610000", "151340.100000", "151341.590000", "151343.080000", "151344.570000", "151346.060000", "151347.550000", "151349.040000", "151350.530000", "151352.020000", "151353.510000", "151355.000000", "151356.490000", "151357.980000", "151359.470000", "151400.960000", "151402.450000", "151403.940000", "151405.430000", "151406.920000", "151408.410000", "151409.900000", "151411.390000", "151412.880000", "151414.370000", "151415.860000", "151417.350000", "151418.840000", "151420.330000", "151421.820000", "151423.310000", "151424.800000", "151426.290000", "151427.780000", "151429.270000", "151430.760000", "151432.250000", "151433.740000", "151435.230000", "151436.720000", "151438.210000", "151439.700000", "151441.190000", "151442.680000", "151444.170000", "151445.660000", "151447.150000", "151448.640000", "151450.130000", "151451.620000", "151453.110000", "151454.600000", "151456.090000", "151457.580000", "151459.070000", "151500.560000", "151502.050000", "151503.540000", "151505.030000", "151506.520000", "151508.010000", "151509.500000", "151510.990000", "151512.480000", "151513.970000", "151515.460000", "151516.950000", "151518.440000", "151519.930000", "151521.420000", "151522.910000", "151524.400000", "151525.890000", "151527.380000", "151528.870000", "151530.360000", "151531.850000", "151533.340000", "151534.830000", "151536.320000", "151537.810000", "151539.300000", "151540.790000", "151542.280000", "151543.770000", "151545.260000", "151546.750000", "151548.240000", "151549.730000", "151551.220000", "151552.710000", "151554.200000", "151555.690000", "151557.180000", "151558.670000", "151600.160000", "151601.650000", "151603.140000", "151604.630000", "151606.120000", "151607.610000", "151609.100000", "151610.590000", "151612.080000", "151613.570000", "151615.060000", "151616.550000", "151618.040000", "151619.530000", "151621.020000", "151622.510000", "151624.000000", "151625.490000", "151626.980000", "151628.470000", "151629.960000", "151631.450000", "151632.940000", "151634.430000", "151635.920000", "151637.410000", "151638.900000", "151640.390000", "151641.880000", "151643.370000", "151644.860000", "151646.350000", "151647.840000", "151649.330000", "151650.820000", "151652.310000", "151653.800000", "151655.290000", "151656.780000", "151658.270000", "151659.760000", "151701.250000", "151702.740000", "151704.230000", "151705.720000", "151707.210000", "151708.700000", "151710.190000", "151711.680000", "151713.170000", "151714.660000", "151716.150000", "151717.640000", "151719.130000", "151720.620000", "151722.110000", "151723.600000", "151725.090000", "151726.580000", "151728.070000", "151729.560000", "151731.050000", "151732.540000", "151734.030000", "151735.520000", "151737.010000", "151738.500000", "151739.990000", "151741.480000", "151742.970000", "151744.460000", "151745.950000", "151747.440000", "151748.930000", "151750.420000", "151751.910000", "151753.400000", "151754.890000", "151756.380000", "151757.870000", "151759.360000", "151800.850000", "151802.340000", "151803.830000", "151805.320000", "151806.810000", "151808.300000", "151809.790000", "151811.280000", "151812.770000", "151814.260000", "151815.750000", "151817.240000", "151818.730000", "151820.220000", "151821.710000", "151823.200000", "151824.690000", "151826.180000", "151827.670000", "151829.160000", "151830.650000", "151832.140000", "151833.630000", "151835.120000", "151836.610000", "151838.100000", "151839.590000", "151841.080000", "151842.570000", "151844.060000", "151845.550000", "151847.040000", "151848.530000", "151850.020000", "151851.510000", "151853.000000", "151854.490000", "151855.980000", "151857.470000", "151858.960000", "151900.450000", "151901.940000", "151903.430000", "151904.920000", "151906.410000", "151907.900000", "151909.390000", "151910.880000", "151912.370000", "151913.860000", "151915.350000", "151916.840000", "151918.330000", "151919.820000", "151921.310000", "151922.800000", "151924.290000", "151925.780000", "151927.270000", "151928.760000", "151930.250000", "151931.740000", "151933.230000", "151934.720000", "151936.210000", "151937.700000", "151939.190000", "151940.680000", "151942.170000", "151943.660000", "151945.150000", "151946.640000", "151948.130000", "151949.620000", "151951.110000", "151952.600000", "151954.090000", "151955.580000", "151957.070000", "151958.560000", "152000.050000", "152001.540000", "152003.030000", "152004.520000", "152006.010000", "152007.500000", "152008.990000", "152010.480000", "152011.970000", "152013.460000", "152014.950000", "152016.440000", "152017.930000", "152019.420000", "152020.910000", "152022.400000", "152023.890000", "152025.380000", "152026.870000", "152028.360000", "152029.850000", "152031.340000", "152032.830000", "152034.320000", "152035.810000", "152037.300000", "152038.790000", "152040.280000", "152041.770000", "152043.260000", "152044.750000", "152046.240000", "152047.730000", "152049.220000", "152050.710000", "152052.200000", "152053.690000", "152055.180000", "152056.670000", "152058.160000", "152059.650000", "152101.140000", "152102.630000", "152104.120000", "152105.610000", "152107.100000", "152108.590000", "152110.080000", "152111.570000", "152113.060000", "152114.550000", "152116.040000", "152117.530000", "152119.020000", "152120.510000", "152122.000000", "152123.490000", "152124.980000", "152126.470000", "152127.960000", "152129.450000", "152130.940000", "152132.430000", "152133.920000", "152135.410000", "152136.900000", "152138.390000", "152139.880000", "152141.370000", "152142.860000", "152144.350000", "152145.840000", "152147.330000", "152148.820000", "152150.310000", "152151.800000", "152153.290000", "152154.780000", "152156.270000", "152157.760000", "152159.250000", "152200.740000", "152202.230000", "152203.720000", "152205.210000", "152206.700000", "152208.190000", "152209.680000", "152211.170000", "152212.660000", "152214.150000", "152215.640000", "152217.130000", "152218.620000", "152220.110000", "152221.600000", "152223.090000", "152224.580000", "152226.070000", "152227.560000", "152229.050000", "152230.540000", "152232.030000", "152233.520000", "152235.010000", "152236.500000", "152237.990000", "152239.480000", "152240.970000", "152242.460000", "152243.950000", "152245.440000", "152246.930000", "152248.420000", "152249.910000", "152251.400000", "152252.890000", "152254.380000", "152255.870000", "152257.360000", "152258.850000", "152300.340000", "152301.830000", "152303.320000", "152304.810000", "152306.300000", "152307.790000", "152309.280000", "152310.770000", "152312.260000", "152313.750000", "152315.240000", "152316.730000", "152318.220000", "152319.710000", "152321.200000", "152322.690000", "152324.180000", "152325.670000", "152327.160000", "152328.650000", "152330.140000", "152331.630000", "152333.120000", "152334.610000", "152336.100000", "152337.590000", "152339.080000", "152340.570000", "152342.060000", "152343.550000", "152345.040000", "152346.530000", "152348.020000", "152349.510000", "152351.000000", "152352.490000", "152353.980000", "152355.470000", "152356.960000", "152358.450000", "152359.940000", "152401.430000", "152402.920000", "152404.410000", "152405.900000", "152407.390000", "152408.880000", "152410.370000", "152411.860000", "152413.350000", "152414.840000", "152416.330000", "152417.820000", "152419.310000", "152420.800000", "152422.290000", "152423.780000", "152425.270000", "152426.760000", "152428.250000", "152429.740000", "152431.230000", "152432.720000", "152434.210000", "152435.700000", "152437.190000", "152438.680000", "152440.170000", "152441.660000", "152443.150000", "152444.640000", "152446.130000", "152447.620000", "152449.110000", "152450.600000", "152452.090000", "152453.580000", "152455.070000", "152456.560000", "152458.050000", "152459.540000", "152501.030000", "152502.520000", "152504.010000", "152505.500000", "152506.990000", "152508.480000", "152509.970000", "152511.460000"],
      "ContentTime": ["151422.319000", "151422.321000", "151422.324000", "151422.327000", "151422.329000", "151422.332000", "151422.334000", "151422.337000", "151422.340000", "151422.342000", "151422.345000", "151422.347000", "151422.350000", "151422.352000", "151422.359000", "151422.362000", "151422.364000", "151422.367000", "151422.369000", "151422.372000", "151422.374000", "151422.377000", "151422.380000", "151422.382000", "151422.385000", "151422.387000", "151422.390000", "151422.392000", "151422.395000", "151422.398000", "151422.401000", "151442.245000", "151442.248000", "151442.251000", "151442.254000", "151442.256000", "151442.259000", "151442.262000", "151442.264000", "151442.267000", "151442.269000", "151442.272000", "151442.274000", "151442.277000", "151442.279000", "151442.282000", "151442.285000", "151442.287000", "151442.290000", "151442.292000", "151442.295000", "151502.258000", "151502.260000", "151502.263000", "151502.265000", "151502.268000", "151502.271000", "151502.273000", "151502.276000", "151502.278000", "151502.281000", "151502.283000", "151502.286000", "151502.289000", "151502.291000", "151502.294000", "151502.296000", "151502.299000", "151502.301000", "151502.304000", "151502.307000", "151502.309000", "151522.251000", "151522.253000", "151522.256000", "151522.259000", "151522.261000", "151522.264000", "151522.266000", "151522.269000", "151522.272000", "151522.274000", "151522.277000", "151522.279000", "151522.282000", "151522.284000", "151522.287000", "151522.289000", "151522.292000", "151522.295000", "151522.297000", "151522.300000", "151602.791000", "151602.793000", "151602.796000", "151602.799000", "151602.801000", "151602.804000", "151602.806000", "151602.809000", "151602.812000", "151602.814000", "151602.817000", "151602.819000", "151602.822000", "151602.825000", "151602.827000", "151602.830000", "151602.833000", "151602.835000", "151602.838000", "151602.840000", "151602.843000", "151602.845000", "151602.848000", "151602.851000", "151602.853000", "151602.856000", "151602.859000", "151602.861000", "151602.864000", "151602.866000", "151602.869000", "151602.871000", "151642.273000", "151642.276000", "151642.278000", "151642.281000", "151642.284000", "151642.286000", "151642.289000", "151642.291000", "151642.294000", "151642.297000", "151642.299000", "151642.302000", "151642.304000", "151642.307000", "151642.309000", "151642.312000", "151642.314000", "151642.317000", "151642.320000", "151642.322000", "151642.325000", "151642.327000", "151642.330000", "151642.333000", "151642.335000", "151642.338000", "151642.340000", "151722.280000", "151722.283000", "151722.286000", "151722.288000", "151722.291000", "151722.294000", "151722.296000", "151722.299000", "151722.301000", "151722.304000", "151722.306000", "151722.309000", "151722.312000", "151722.314000", "151722.317000", "151722.319000", "151722.322000", "151722.325000", "151722.327000", "151722.330000", "151722.332000", "151722.335000", "151722.337000", "151722.340000", "151722.343000", "151722.345000", "151722.348000", "151802.277000", "151802.280000", "151802.283000", "151802.285000", "151802.288000", "151802.290000", "151802.293000", "151802.295000", "151802.298000", "151802.301000", "151802.303000", "151802.306000", "151802.308000", "151802.311000", "151802.314000", "151802.316000", "151802.319000", "151802.321000", "151802.324000", "151802.327000", "151802.329000", "151802.332000", "151802.334000", "151802.337000", "151802.339000", "151802.342000", "151802.345000", "151842.262000", "151842.265000", "151842.268000", "151842.270000", "151842.273000", "151842.276000", "151842.278000", "151842.281000", "151842.283000", "151842.286000", "151842.288000", "151842.291000", "151842.294000", "151842.296000", "151842.299000", "151842.302000", "151842.304000", "151842.307000", "151842.309000", "151842.312000", "151842.315000", "151842.317000", "151842.320000", "151842.322000", "151842.325000", "151842.327000", "151842.330000", "151922.304000", "151922.307000", "151922.309000", "151922.312000", "151922.314000", "151922.317000", "151922.320000", "151922.322000", "151922.325000", "151922.327000", "151922.330000", "151922.333000", "151922.335000", "151922.338000", "151922.340000", "151922.343000", "151922.345000", "151922.348000", "151922.351000", "151922.353000", "151922.356000", "151922.358000", "151922.361000", "151922.363000", "151922.366000", "151922.368000", "152002.278000", "152002.280000", "152002.283000", "152002.286000", "152002.288000", "152002.291000", "152002.293000", "152002.296000", "152002.298000", "152002.301000", "152002.304000", "152002.306000", "152002.309000", "152002.312000", "152002.314000", "152002.317000", "152002.320000", "152002.322000", "152002.325000", "152002.327000", "152002.330000", "152002.332000", "152002.335000", "152002.338000", "152002.340000", "152002.343000", "152002.346000", "152042.269000", "152042.272000", "152042.274000", "152042.277000", "152042.280000", "152042.282000", "152042.285000", "152042.287000", "152042.290000", "152042.292000", "152042.295000", "152042.298000", "152042.300000", "152042.303000", "152042.305000", "152042.308000", "152042.310000", "152042.313000", "152042.316000", "152042.318000", "152042.321000", "152042.323000", "152042.326000", "152042.329000", "152042.331000", "152042.334000", "152042.336000", "152122.265000", "152122.268000", "152122.271000", "152122.274000", "152122.277000", "152122.279000", "152122.282000", "152122.285000", "152122.287000", "152122.290000", "152122.292000", "152122.295000", "152122.298000", "152122.300000", "152122.303000", "152122.305000", "152122.308000", "152122.311000", "152122.313000", "152122.316000", "152122.318000", "152122.321000", "152122.324000", "152122.326000", "152122.329000", "152122.331000", "152122.334000", "152202.289000", "152202.292000", "152202.295000", "152202.297000", "152202.300000", "152202.302000", "152202.305000", "152202.308000", "152202.310000", "152202.313000", "152202.315000", "152202.318000", "152202.320000", "152202.323000", "152202.326000", "152202.328000", "152202.331000", "152202.333000", "152202.336000", "152202.338000", "152202.341000", "152202.344000", "152202.346000", "152202.349000", "152202.352000", "152202.354000", "152202.357000", "152242.276000", "152242.278000", "152242.281000", "152242.284000", "152242.286000", "152242.289000", "152242.292000", "152242.294000", "152242.297000", "152242.299000", "152242.302000", "152242.305000", "152242.307000", "152242.310000", "152242.312000", "152242.315000", "152242.317000", "152242.320000", "152242.323000", "152242.325000", "152242.328000", "152242.330000", "152242.333000", "152242.335000", "152242.338000", "152242.341000", "152242.343000", "152322.278000", "152322.281000", "152322.283000", "152322.286000", "152322.289000", "152322.291000", "152322.294000", "152322.296000", "152322.299000", "152322.302000", "152322.304000", "152322.307000", "152322.309000", "152322.312000", "152322.314000", "152322.317000", "152322.320000", "152322.322000", "152322.325000", "152322.327000", "152322.330000", "152322.333000", "152322.335000", "152322.338000", "152322.340000", "152322.343000", "152322.345000", "152402.270000", "152402.291000", "152402.294000", "152402.296000", "152402.299000", "152402.301000", "152402.304000", "152402.307000", "152402.309000", "152402.312000", "152402.314000", "152402.317000", "152402.320000", "152402.322000", "152402.325000", "152402.327000", "152402.330000", "152402.333000", "152402.335000", "152402.338000", "152402.340000", "152402.343000", "152402.346000", "152402.348000", "152402.351000", "152402.353000", "152422.216000", "152422.219000", "152422.222000", "152422.224000", "152422.227000", "152422.230000", "152422.232000", "152422.235000", "152422.237000", "152422.240000", "152422.243000", "152422.245000", "152422.248000", "152422.250000", "152502.266000", "152502.269000", "152502.271000", "152502.274000", "152502.276000", "152502.279000", "152502.281000", "152502.284000", "152502.287000", "152502.289000", "152502.292000", "152502.294000", "152502.297000", "152502.300000", "152502.302000", "152502.305000", "152502.307000", "152502.310000", "152502.312000", "152502.315000", "152502.317000", "152502.320000", "152502.323000", "152502.325000", "152502.328000", "152502.330000", "152502.333000", "152514.197000", "152514.200000", "152514.203000", "152514.206000", "152514.208000", "152514.211000", "152514.214000", "152514.216000"],
