{
  "AcquisitionMatrixPE": 104,
  "AcquisitionNumber": 1,
  "AcquisitionTime": "15:52:2.910000",
  "BandwidthPerPixelPhaseEncode": 17.17,
  "BaseResolution": 104,
  "BodyPartExamined": "BRAIN",
  "CoilString": "HC1-7;NC1_2",
  "ConsistencyInfo": "N4_VE11C_LATEST_20160120",
  "ConversionSoftware": "dcm2niix",
  "ConversionSoftwareVersion": "v1.0.20190902",
  "DerivedVendorReportedEchoSpacing": 0.000560011,
  "DeviceSerialNumber": "167006",
  "DwellTime": 2.1e-06,
  "EchoTime": 0.037,
  "EchoTrainLength": 104,
  "EffectiveEchoSpacing": 0.000560011,
  "FlipAngle": 52,
  "HeudiconvVersion": "0.10.0",
  "ImageComments": "Unaliased_MB4_PE3_LB",
  "ImageOrientationPatientDICOM": [0.999626, -0.0272754, -0.0018266, 0.0253032, 0.948495, -0.31578],
  "ImageType": [
    "ORIGINAL",
    "PRIMARY",
    "P",
    "MB",
    "ND",
    "MOSAIC"
],
  "ImagingFrequency": 123.259,
  "InPlanePhaseEncodingDirectionDICOM": "COL",
  "InstitutionAddress": "Chemin_Queen-Mary_4565_Montreal_District_CA_H3W_1W5",
  "InstitutionName": "IUGM",
  "InstitutionalDepartmentName": "Department",
  "MRAcquisitionType": "2D",
  "MagneticFieldStrength": 3,
  "Manufacturer": "Siemens",
  "ManufacturersModelName": "Prisma_fit",
  "Modality": "MR",
  "MultibandAccelerationFactor": 4,
  "PartialFourier": 1,
  "PatientPosition": "HFS",
  "PercentPhaseFOV": 100,
  "PhaseEncodingDirection": "j",
  "PhaseEncodingSteps": 104,
  "PhaseResolution": 1,
  "PixelBandwidth": 2290,
  "ProcedureStepDescription": "games_mario",
  "ProtocolName": "func_task-mario_run-04",
  "PulseSequenceDetails": "%CustomerSeq%_cmrr_mbep2d_bold",
  "ReceiveCoilActiveElements": "HC1-7;NC1,2",
  "ReceiveCoilName": "HeadNeck_64",
  "ReconMatrixPE": 104,
  "RepetitionTime": 1.49,
  "SAR": 0.0558539,
  "ScanOptions": "FS",
  "ScanningSequence": "EP",
  "SequenceName": "epfid2d1_104",
  "SequenceVariant": "SK_SS",
  "SeriesDescription": "func_task-mario_run-04",
  "SeriesNumber": 20,
  "ShimSetting": [632, -7233, -8841, 597, 17, -201, -78, -18],
  "SliceThickness": 2,
  "SliceTiming": [0, 0.785, 0.0975, 0.8825, 0.1975, 0.98, 0.295, 1.0775, 0.3925, 1.1775, 0.49, 1.275, 0.5875, 1.3725, 0.6875, 0, 0.785, 0.0975, 0.8825, 0.1975, 0.98, 0.295, 1.0775, 0.3925, 1.1775, 0.49, 1.275, 0.5875, 1.3725, 0.6875, 0, 0.785, 0.0975, 0.8825, 0.1975, 0.98, 0.295, 1.0775, 0.3925, 1.1775, 0.49, 1.275, 0.5875, 1.3725, 0.6875, 0, 0.785, 0.0975, 0.8825, 0.1975, 0.98, 0.295, 1.0775, 0.3925, 1.1775, 0.49, 1.275, 0.5875, 1.3725, 0.6875],
  "SoftwareVersions": "syngo_MR_E11",
  "SpacingBetweenSlices": 2,
  "StationName": "MRC35049",
  "TaskName": "mario",
  "TotalReadoutTime": 0.0576811,
  "TxRefAmp": 272.036,
  "WipMemBlock": "537596f0-49c7-4423-b54a-3b315c4151fe||Sequence: R016 ve11c/master r/e634e98; Dec 19 2017 11:00:25 by eja",
  "dcmmeta_affine": [
    [-1.9992525577545166, 0.05060642212629318, -0.020691102370619774, 104.03410339355469],
    [0.054550763219594955, 1.8969898223876953, -0.6312319040298462, -68.48554229736328],
    [-0.0036532096564769745, 0.6315603852272034, 1.8976612091064453, -68.69102478027344],
    [0.0, 0.0, 0.0, 1.0]
],
  "dcmmeta_reorient_transform": [
    [0.0, -1.0, 0.0, 103.0],
    [1.0, 0.0, 0.0, 0.0],
    [0.0, 0.0, 1.0, 0.0],
    [0.0, 0.0, 0.0, 1.0]
],
  "dcmmeta_shape": [104, 104, 60, 497],
  "dcmmeta_slice_dim": 2,
  "dcmmeta_version": 0.6,
  "global": {
    "const": {
      "AcquisitionMatrix": [104, 0, 0, 104],
      "AngioFlag": "N",
      "BitsAllocated": 16,
      "BitsStored": 16,
      "BodyPartExamined": "BRAIN",
      "Columns": 832,
      "EchoNumbers": 1,
      "EchoTime": 37.0,
      "EchoTrainLength": 104,
      "FlipAngle": 52.0,
      "HighBit": 15,
      "ImageOrientationPatient": [0.99962628869766, -0.027275381927, -0.001826604853, 0.02530321173972, 0.94849492271879, -0.3157801910385],
      "ImagePositionPatient": [-855.39524164936, -797.55223980219, 227.57744457488],
      "ImageType": [
        "ORIGINAL",
        "PRIMARY",
        "P",
        "MB",
        "ND",
        "MOSAIC"
],
      "ImagedNucleus": "1H",
      "ImagingFrequency": 123.258945,
      "InPlanePhaseEncodingDirection": "COL",
      "LargestImagePixelValue": 4095,
      "MRAcquisitionType": "2D",
      "MagneticFieldStrength": 3.0,
      "Manufacturer": "SIEMENS",
      "ManufacturerModelName": "Prisma_fit",
      "Modality": "MR",
      "NumberOfAverages": 1.0,
      "NumberOfPhaseEncodingSteps": 104,
      "PercentPhaseFieldOfView": 100.0,
      "PercentSampling": 100.0,
      "PerformedProcedureStepStartTime": "142718.014000",
      "PhotometricInterpretation": "MONOCHROME2",
      "PixelBandwidth": 2290.0,
      "PixelRepresentation": 0,
      "PixelSpacing": [2.0, 2.0],
      "ProtocolName": "func_task-mario_run-04",
      "RepetitionTime": 1490.0,
      "RescaleIntercept": -4096.0,
      "RescaleSlope": 2.0,
      "RescaleType": "US",
      "Rows": 832,
      "SAR": 0.05585392045331,
      "SamplesPerPixel": 1,
      "ScanOptions": "FS",
      "ScanningSequence": "EP",
      "SequenceName": "epfid2d1_104",
      "SequenceVariant": [
        "SK",
        "SS"
],
      "SeriesDescription": "func_task-mario_run-04",
      "SeriesNumber": 20,
      "SeriesTime": "155322.295000",
      "SliceLocation": -44.637305328698,
      "SliceThickness": 2.0,
      "SmallestImagePixelValue": 0,
      "SoftwareVersions": "syngo MR E11",
      "SpacingBetweenSlices": 2.0000000069129,
      "SpecificCharacterSet": "ISO_IR 100",
      "StudyID": "1",
      "StudyTime": "142717.934000",
      "TransmitCoilName": "Body",
      "VariableFlipAngleFlag": "N",
      "WindowCenterWidthExplanation": "Algo1",
      "dBdt": 0.0},
    "slices": {}
  },
  "time": {
    "samples": {
      "AcquisitionNumber": [1, 2, 3, 4, 5, 6, 7, 8, 9, 10, 11, 12, 13, 14, 15, 16, 17, 18, 19, 20, 21, 22, 23, 24, 25, 26, 27, 28, 29, 30, 31, 32, 33, 34, 35, 36, 37, 38, 39, 40, 41, 42, 43, 44, 45, 46, 47, 48, 49, 50, 51, 52, 53, 54, 55, 56, 57, 58, 59, 60, 61, 62, 63, 64, 65, 66, 67, 68, 69, 70, 71, 72, 73, 74, 75, 76, 77, 78, 79, 80, 81, 82, 83, 84, 85, 86, 87, 88, 89, 90, 91, 92, 93, 94, 95, 96, 97, 98, 99, 100, 101, 102, 103, 104, 105, 106, 107, 108, 109, 110, 111, 112, 113, 114, 115, 116, 117, 118, 119, 120, 121, 122, 123, 124, 125, 126, 127, 128, 129, 130, 131, 132, 133, 134, 135, 136, 137, 138, 139, 140, 141, 142, 143, 144, 145, 146, 147, 148, 149, 150, 151, 152, 153, 154, 155, 156, 157, 158, 159, 160, 161, 162, 163, 164, 165, 166, 167, 168, 169, 170, 171, 172, 173, 174, 175, 176, 177, 178, 179, 180, 181, 182, 183, 184, 185, 186, 187, 188, 189, 190, 191, 192, 193, 194, 195, 196, 197, 198, 199, 200, 201, 202, 203, 204, 205, 206, 207, 208, 209, 210, 211, 212, 213, 214, 215, 216, 217, 218, 219, 220, 221, 222, 223, 224, 225, 226, 227, 228, 229, 230, 231, 232, 233, 234, 235, 236, 237, 238, 239, 240, 241, 242, 243, 244, 245, 246, 247, 248, 249, 250, 251, 252, 253, 254, 255, 256, 257, 258, 259, 260, 261, 262, 263, 264, 265, 266, 267, 268, 269, 270, 271, 272, 273, 274, 275, 276, 277, 278, 279, 280, 281, 282, 283, 284, 285, 286, 287, 288, 289, 290, 291, 292, 293, 294, 295, 296, 297, 298, 299, 300, 301, 302, 303, 304, 305, 306, 307, 308, 309, 310, 311, 312, 313, 314, 315, 316, 317, 318, 319, 320, 321, 322, 323, 324, 325, 326, 327, 328, 329, 330, 331, 332, 333, 334, 335, 336, 337, 338, 339, 340, 341, 342, 343, 344, 345, 346, 347, 348, 349, 350, 351, 352, 353, 354, 355, 356, 357, 358, 359, 360, 361, 362, 363, 364, 365, 366, 367, 368, 369, 370, 371, 372, 373, 374, 375, 376, 377, 378, 379, 380, 381, 382, 383, 384, 385, 386, 387, 388, 389, 390, 391, 392, 393, 394, 395, 396, 397, 398, 399, 400, 401, 402, 403, 404, 405, 406, 407, 408, 409, 410, 411, 412, 413, 414, 415, 416, 417, 418, 419, 420, 421, 422, 423, 424, 425, 426, 427, 428, 429, 430, 431, 432, 433, 434, 435, 436, 437, 438, 439, 440, 441, 442, 443, 444, 445, 446, 447, 448, 449, 450, 451, 452, 453, 454, 455, 456, 457, 458, 459, 460, 461, 462, 463, 464, 465, 466, 467, 468, 469, 470, 471, 472, 473, 474, 475, 476, 477, 478, 479, 480, 481, 482, 483, 484, 485, 486, 487, 488, 489, 490, 491, 492, 493, 494, 495, 496, 497],
      "AcquisitionTime": ["155202.910000", "155204.400000", "155205.890000", "155207.380000", "155208.870000", "155210.360000", "155211.850000", "155213.340000", "155214.830000", "155216.320000", "155217.810000", "155219.300000", "155220.790000", "155222.280000", "155223.770000", "155225.260000", "155226.750000", "155228.240000", "155229.730000", "155231.220000", "155232.710000", "155234.200000", "155235.690000", "155237.180000", "155238.670000", "155240.160000", "155241.650000", "155243.140000", "155244.630000", "155246.120000", "155247.610000", "155249.100000", "155250.590000", "155252.080000", "155253.570000", "155255.060000", "155256.550000", "155258.040000", "155259.530000", "155301.020000", "155302.510000", "155304.000000", "155305.490000", "155306.980000", "155308.470000", "155309.960000", "155311.450000", "155312.940000", "155314.430000", "155315.920000", "155317.410000", "155318.900000", "155320.390000", "155321.880000", "155323.370000", "155324.860000", "155326.350000", "155327.840000", "155329.330000", "155330.820000", "155332.310000", "155333.800000", "155335.290000", "155336.780000", "155338.270000", "155339.760000", "155341.250000", "155342.740000", "155344.230000", "155345.720000", "155347.210000", "155348.700000", "155350.190000", "155351.680000", "155353.170000", "155354.660000", "155356.150000", "155357.640000", "155359.130000", "155400.620000", "155402.110000", "155403.600000", "155405.090000", "155406.580000", "155408.070000", "155409.560000", "155411.050000", "155412.540000", "155414.030000", "155415.520000", "155417.010000", "155418.500000", "155419.990000", "155421.480000", "155422.970000", "155424.460000", "155425.950000", "155427.440000", "155428.930000", "155430.420000", "155431.910000", "155433.400000", "155434.890000", "155436.380000", "155437.870000", "155439.360000", "155440.850000", "155442.340000", "155443.830000", "155445.320000", "155446.810000", "155448.300000", "155449.790000", "155451.280000", "155452.770000", "155454.260000", "155455.750000", "155457.240000", "155458.730000", "155500.220000", "155501.710000", "155503.200000", "155504.690000", "155506.180000", "155507.670000", "155509.160000", "155510.650000", "155512.140000", "155513.630000", "155515.120000", "155516.610000", "155518.100000", "155519.590000", "155521.080000", "155522.570000", "155524.060000", "155525.550000", "155527.040000", "155528.530000", "155530.020000", "155531.510000", "155533.000000", "155534.490000", "155535.980000", "155537.470000", "155538.960000", "155540.450000", "155541.940000", "155543.430000", "155544.920000", "155546.410000", "155547.900000", "155549.390000", "155550.880000", "155552.370000", "155553.860000", "155555.350000", "155556.840000", "155558.330000", "155559.820000", "155601.310000", "155602.800000", "155604.290000", "155605.780000", "155607.270000", "155608.760000", "155610.250000", "155611.740000", "155613.230000", "155614.720000", "155616.210000", "155617.700000", "155619.190000", "155620.680000", "155622.170000", "155623.660000", "155625.150000", "155626.640000", "155628.130000", "155629.620000", "155631.110000", "155632.600000", "155634.090000", "155635.580000", "155637.070000", "155638.560000", "155640.050000", "155641.540000", "155643.030000", "155644.520000", "155646.010000", "155647.500000", "155648.990000", "155650.480000", "155651.970000", "155653.460000", "155654.950000", "155656.440000", "155657.930000", "155659.420000", "155700.910000", "155702.400000", "155703.890000", "155705.380000", "155706.870000", "155708.360000", "155709.850000", "155711.340000", "155712.830000", "155714.320000", "155715.810000", "155717.300000", "155718.790000", "155720.280000", "155721.770000", "155723.260000", "155724.750000", "155726.240000", "155727.730000", "155729.220000", "155730.710000", "155732.200000", "155733.690000", "155735.180000", "155736.670000", "155738.160000", "155739.650000", "155741.140000", "155742.630000", "155744.120000", "155745.610000", "155747.100000", "155748.590000", "155750.080000", "155751.570000", "155753.060000", "155754.550000", "155756.040000", "155757.530000", "155759.020000", "155800.510000", "155802.000000", "155803.490000", "155804.980000", "155806.470000", "155807.960000", "155809.450000", "155810.940000", "155812.430000", "155813.920000", "155815.410000", "155816.900000", "155818.390000", "155819.880000", "155821.370000", "155822.860000", "155824.350000", "155825.840000", "155827.330000", "155828.820000", "155830.310000", "155831.800000", "155833.290000", "155834.780000", "155836.270000", "155837.760000", "155839.250000", "155840.740000", "155842.230000", "155843.720000", "155845.210000", "155846.700000", "155848.190000", "155849.680000", "155851.170000", "155852.660000", "155854.150000", "155855.640000", "155857.130000", "155858.620000", "155900.110000", "155901.600000", "155903.090000", "155904.580000", "155906.070000", "155907.560000", "155909.050000", "155910.540000", "155912.030000", "155913.520000", "155915.010000", "155916.500000", "155917.990000", "155919.480000", "155920.970000", "155922.460000", "155923.950000", "155925.440000", "155926.930000", "155928.420000", "155929.910000", "155931.400000", "155932.890000", "155934.380000", "155935.870000", "155937.360000", "155938.850000", "155940.340000", "155941.830000", "155943.320000", "155944.810000", "155946.300000", "155947.790000", "155949.280000", "155950.770000", "155952.260000", "155953.750000", "155955.240000", "155956.730000", "155958.220000", "155959.710000", "160001.200000", "160002.690000", "160004.180000", "160005.670000", "160007.160000", "160008.650000", "160010.140000", "160011.630000", "160013.120000", "160014.610000", "160016.100000", "160017.590000", "160019.080000", "160020.570000", "160022.060000", "160023.550000", "160025.040000", "160026.530000", "160028.020000", "160029.510000", "160031.000000", "160032.490000", "160033.980000", "160035.470000", "160036.960000", "160038.450000", "160039.940000", "160041.430000", "160042.920000", "160044.410000", "160045.900000", "160047.390000", "160048.880000", "160050.370000", "160051.860000", "160053.350000", "160054.840000", "160056.330000", "160057.820000", "160059.310000", "160100.800000", "160102.290000", "160103.780000", "160105.270000", "160106.760000", "160108.250000", "160109.740000", "160111.230000", "160112.720000", "160114.210000", "160115.700000", "160117.190000", "160118.680000", "160120.170000", "160121.660000", "160123.150000", "160124.640000", "160126.130000", "160127.620000", "160129.110000", "160130.600000", "160132.090000", "160133.580000", "160135.070000", "160136.560000", "160138.050000", "160139.540000", "160141.030000", "160142.520000", "160144.010000", "160145.500000", "160146.990000", "160148.480000", "160149.970000", "160151.460000", "160152.950000", "160154.440000", "160155.930000", "160157.420000", "160158.910000", "160200.400000", "160201.890000", "160203.380000", "160204.870000", "160206.360000", "160207.850000", "160209.340000", "160210.830000", "160212.320000", "160213.810000", "160215.300000", "160216.790000", "160218.280000", "160219.770000", "160221.260000", "160222.750000", "160224.240000", "160225.730000", "160227.220000", "160228.710000", "160230.200000", "160231.690000", "160233.180000", "160234.670000", "160236.160000", "160237.650000", "160239.140000", "160240.630000", "160242.120000", "160243.610000", "160245.100000", "160246.590000", "160248.080000", "160249.570000", "160251.060000", "160252.550000", "160254.040000", "160255.530000", "160257.020000", "160258.510000", "160300.000000", "160301.490000", "160302.980000", "160304.470000", "160305.960000", "160307.450000", "160308.940000", "160310.430000", "160311.920000", "160313.410000", "160314.900000", "160316.390000", "160317.880000", "160319.370000", "160320.860000", "160322.350000", "160323.840000", "160325.330000", "160326.820000", "160328.310000", "160329.800000", "160331.290000", "160332.780000", "160334.270000", "160335.760000", "160337.250000", "160338.740000", "160340.230000", "160341.720000", "160343.210000", "160344.700000", "160346.190000", "160347.680000", "160349.170000", "160350.660000", "160352.150000", "160353.640000", "160355.130000", "160356.620000", "160358.110000", "160359.600000", "160401.090000", "160402.580000", "160404.070000", "160405.560000", "160407.050000", "160408.540000", "160410.030000", "160411.520000", "160413.010000", "160414.500000", "160415.990000", "160417.480000", "160418.970000", "160420.460000", "160421.950000"],
      "ContentTime": ["155322.297000", "155322.302000", "155322.305000", "155322.307000", "155322.310000", "155322.313000", "155322.315000", "155322.318000", "155322.320000", "155322.323000", "155322.325000", "155322.328000", "155322.330000", "155322.333000", "155322.335000", "155322.338000", "155322.340000", "155322.343000", "155322.345000", "155322.348000", "155322.350000", "155322.353000", "155322.355000", "155322.358000", "155342.248000", "155342.251000", "155342.254000", "155342.256000", "155342.259000", "155342.261000", "155342.264000", "155342.266000", "155342.269000", "155342.271000", "155342.274000", "155342.277000", "155342.279000", "155342.282000", "155342.284000", "155342.289000", "155342.292000", "155342.294000", "155342.297000", "155342.299000", "155402.259000", "155402.261000", "155402.264000", "155402.267000", "155402.269000", "155402.272000", "155402.274000", "155402.277000", "155402.279000", "155402.282000", "155402.284000", "155402.287000", "155402.289000", "155402.292000", "155402.294000", "155402.297000", "155402.300000", "155402.305000", "155402.307000", "155402.310000", "155422.275000", "155422.278000", "155422.280000", "155422.283000", "155422.285000", "155422.291000", "155422.294000", "155422.296000", "155422.299000", "155422.302000", "155422.304000", "155422.307000", "155422.309000", "155422.312000", "155422.315000", "155422.317000", "155422.320000", "155422.322000", "155422.325000", "155422.327000", "155422.330000", "155442.246000", "155442.248000", "155442.251000", "155442.254000", "155442.256000", "155442.259000", "155442.261000", "155442.264000", "155442.266000", "155442.269000", "155442.271000", "155442.274000", "155442.276000", "155442.279000", "155442.281000", "155442.284000", "155442.287000", "155442.289000", "155442.292000", "155442.294000", "155522.277000", "155522.280000", "155522.282000", "155522.285000", "155522.287000", "155522.290000", "155522.292000", "155522.295000", "155522.298000", "155522.300000", "155522.303000", "155522.305000", "155522.308000", "155522.310000", "155522.313000", "155522.315000", "155522.320000", "155522.323000", "155522.325000", "155522.328000", "155522.330000", "155522.333000", "155522.336000", "155522.338000", "155522.341000", "155522.343000", "155522.346000", "155522.348000", "155602.273000", "155602.276000", "155602.279000", "155602.281000", "155602.284000", "155602.286000", "155602.289000", "155602.291000", "155602.294000", "155602.297000", "155602.299000", "155602.302000", "155602.304000", "155602.307000", "155602.310000", "155602.312000", "155602.315000", "155602.317000", "155602.320000", "155602.322000", "155602.325000", "155602.328000", "155602.330000", "155602.333000", "155602.335000", "155602.338000", "155602.341000", "155642.286000", "155642.289000", "155642.292000", "155642.294000", "155642.297000", "155642.299000", "155642.302000", "155642.305000", "155642.307000", "155642.310000", "155642.312000", "155642.315000", "155642.318000", "155642.320000", "155642.323000", "155642.325000", "155642.328000", "155642.331000", "155642.333000", "155642.336000", "155642.338000", "155642.341000", "155642.343000", "155642.346000", "155642.349000", "155642.351000", "155642.354000", "155722.269000", "155722.272000", "155722.275000", "155722.277000", "155722.280000", "155722.282000", "155722.285000", "155722.288000", "155722.290000", "155722.293000", "155722.295000", "155722.298000", "155722.301000", "155722.303000", "155722.306000", "155722.308000", "155722.311000", "155722.313000", "155722.316000", "155722.323000", "155722.326000", "155722.329000", "155722.331000", "155722.334000", "155722.336000", "155722.339000", "155802.279000", "155802.282000", "155802.284000", "155802.287000", "155802.290000", "155802.292000", "155802.295000", "155802.297000", "155802.300000", "155802.303000", "155802.305000", "155802.308000", "155802.310000", "155802.313000", "155802.316000", "155802.318000", "155802.321000", "155802.323000", "155802.327000", "155802.330000", "155802.332000", "155802.335000", "155802.338000", "155802.340000", "155802.343000", "155802.346000", "155802.348000", "155842.275000", "155842.278000", "155842.281000", "155842.283000", "155842.286000", "155842.288000", "155842.291000", "155842.294000", "155842.296000", "155842.299000", "155842.301000", "155842.304000", "155842.307000", "155842.309000", "155842.312000", "155842.314000", "155842.317000", "155842.319000", "155842.322000", "155842.325000", "155842.327000", "155842.330000", "155842.332000", "155842.335000", "155842.338000", "155842.341000", "155842.343000", "155922.288000", "155922.290000", "155922.293000", "155922.296000", "155922.298000", "155922.301000", "155922.303000", "155922.306000", "155922.309000", "155922.311000", "155922.314000", "155922.317000", "155922.319000", "155922.322000", "155922.324000", "155922.327000", "155922.330000", "155922.332000", "155922.335000", "155922.337000", "155922.340000", "155922.347000", "155922.350000", "155922.353000", "155922.355000", "155922.358000", "155922.360000", "160002.274000", "160002.276000", "160002.279000", "160002.282000", "160002.284000", "160002.287000", "160002.289000", "160002.292000", "160002.295000", "160002.297000", "160002.300000", "160002.302000", "160002.305000", "160002.307000", "160002.310000", "160002.313000", "160002.315000", "160002.318000", "160002.320000", "160002.323000", "160002.326000", "160002.328000", "160002.331000", "160002.333000", "160002.336000", "160002.338000", "160002.341000", "160042.271000", "160042.273000", "160042.276000", "160042.279000", "160042.281000", "160042.284000", "160042.286000", "160042.289000", "160042.291000", "160042.294000", "160042.297000", "160042.299000", "160042.302000", "160042.305000", "160042.307000", "160042.310000", "160042.312000", "160042.315000", "160042.317000", "160042.320000", "160042.323000", "160042.325000", "160042.328000", "160042.330000", "160042.333000", "160042.336000", "160042.338000", "160122.301000", "160122.303000", "160122.306000", "160122.309000", "160122.311000", "160122.314000", "160122.316000", "160122.319000", "160122.322000", "160122.324000", "160122.327000", "160122.330000", "160122.332000", "160122.335000", "160122.337000", "160122.340000", "160122.343000", "160122.345000", "160122.348000", "160122.350000", "160122.353000", "160122.356000", "160122.358000", "160122.361000", "160122.363000", "160122.366000", "160202.264000", "160202.267000", "160202.270000", "160202.273000", "160202.275000", "160202.278000", "160202.280000", "160202.283000", "160202.286000", "160202.288000", "160202.291000", "160202.293000", "160202.296000", "160202.298000", "160202.301000", "160202.304000", "160202.306000", "160202.309000", "160202.311000", "160202.314000", "160202.316000", "160202.319000", "160202.321000", "160202.324000", "160202.327000", "160202.329000", "160202.332000", "160242.278000", "160242.281000", "160242.283000", "160242.286000", "160242.288000", "160242.291000", "160242.294000", "160242.296000", "160242.299000", "160242.302000", "160242.304000", "160242.307000", "160242.309000", "160242.312000", "160242.315000", "160242.317000", "160242.320000", "160242.322000", "160242.325000", "160242.328000", "160242.330000", "160242.333000", "160242.335000", "160242.338000", "160242.340000", "160242.343000", "160242.346000", "160322.286000", "160322.289000", "160322.292000", "160322.294000", "160322.297000", "160322.299000", "160322.302000", "160322.305000", "160322.307000", "160322.310000", "160322.312000", "160322.315000", "160322.318000", "160322.320000", "160322.323000", "160322.326000", "160322.328000", "160322.331000", "160322.333000", "160322.336000", "160322.338000", "160322.341000", "160322.344000", "160322.346000", "160322.349000", "160322.351000", "160322.354000", "160402.283000", "160402.286000", "160402.288000", "160402.291000", "160402.294000", "160402.296000", "160402.299000", "160402.302000", "160402.304000", "160402.307000", "160402.309000", "160402.312000", "160402.315000", "160402.317000", "160402.320000", "160402.322000", "160402.325000", "160402.328000", "160402.330000", "160402.333000", "160402.335000", "160402.338000", "160402.341000", "160402.343000", "160402.346000", "160402.349000", "160402.351000", "160422.220000", "160422.223000", "160422.225000", "160422.228000", "160422.230000", "160422.233000", "160422.236000", "160422.238000", "160422.241000", "160422.243000", "160422.246000", "160422.249000", "160422.251000", "160424.752000", "160424.755000"],
