{
  "AcquisitionMatrixPE": 104,
  "AcquisitionNumber": 1,
  "AcquisitionTime": "15:26:48.800000",
  "BandwidthPerPixelPhaseEncode": 17.17,
  "BaseResolution": 104,
  "BodyPartExamined": "BRAIN",
  "CoilString": "HC1-7;NC1_2",
  "ConsistencyInfo": "N4_VE11C_LATEST_20160120",
  "ConversionSoftware": "dcm2niix",
  "ConversionSoftwareVersion": "v1.0.20190902",
  "DerivedVendorReportedEchoSpacing": 0.000560011,
  "DeviceSerialNumber": "167006",
  "DwellTime": 2.1e-06,
  "EchoTime": 0.037,
  "EchoTrainLength": 104,
  "EffectiveEchoSpacing": 0.000560011,
  "FlipAngle": 52,
  "HeudiconvVersion": "0.10.0",
  "ImageComments": "Unaliased_MB4_PE3_LB",
  "ImageOrientationPatientDICOM": [0.999626, -0.0272754, -0.0018266, 0.0253032, 0.948495, -0.31578],
  "ImageType": [
    "ORIGINAL",
    "PRIMARY",
    "M",
    "MB",
    "ND",
    "MOSAIC"
],
  "ImagingFrequency": 123.259,
  "InPlanePhaseEncodingDirectionDICOM": "COL",
  "InstitutionAddress": "Chemin_Queen-Mary_4565_Montreal_District_CA_H3W_1W5",
  "InstitutionName": "IUGM",
  "InstitutionalDepartmentName": "Department",
  "MRAcquisitionType": "2D",
  "MagneticFieldStrength": 3,
  "Manufacturer": "Siemens",
  "ManufacturersModelName": "Prisma_fit",
  "Modality": "MR",
  "MultibandAccelerationFactor": 4,
  "PartialFourier": 1,
  "PatientPosition": "HFS",
  "PercentPhaseFOV": 100,
  "PhaseEncodingDirection": "j",
  "PhaseEncodingSteps": 104,
  "PhaseResolution": 1,
  "PixelBandwidth": 2290,
  "ProcedureStepDescription": "games_mario",
  "ProtocolName": "func_task-mario_run-02",
  "PulseSequenceDetails": "%CustomerSeq%_cmrr_mbep2d_bold",
  "ReceiveCoilActiveElements": "HC1-7;NC1,2",
  "ReceiveCoilName": "HeadNeck_64",
  "ReconMatrixPE": 104,
  "RepetitionTime": 1.49,
  "SAR": 0.0558539,
  "ScanOptions": "FS",
  "ScanningSequence": "EP",
  "SequenceName": "epfid2d1_104",
  "SequenceVariant": "SK_SS",
  "SeriesDescription": "func_task-mario_run-02",
  "SeriesNumber": 13,
  "ShimSetting": [632, -7233, -8841, 597, 17, -201, -78, -18],
  "SliceThickness": 2,
  "SliceTiming": [0, 0.7825, 0.0975, 0.8825, 0.195, 0.98, 0.2925, 1.0775, 0.3925, 1.175, 0.49, 1.2725, 0.5875, 1.3725, 0.685, 0, 0.7825, 0.0975, 0.8825, 0.195, 0.98, 0.2925, 1.0775, 0.3925, 1.175, 0.49, 1.2725, 0.5875, 1.3725, 0.685, 0, 0.7825, 0.0975, 0.8825, 0.195, 0.98, 0.2925, 1.0775, 0.3925, 1.175, 0.49, 1.2725, 0.5875, 1.3725, 0.685, 0, 0.7825, 0.0975, 0.8825, 0.195, 0.98, 0.2925, 1.0775, 0.3925, 1.175, 0.49, 1.2725, 0.5875, 1.3725, 0.685],
  "SoftwareVersions": "syngo_MR_E11",
  "SpacingBetweenSlices": 2,
  "StationName": "MRC35049",
  "TaskName": "mario",
  "TotalReadoutTime": 0.0576811,
  "TxRefAmp": 272.036,
  "WipMemBlock": "6b96a6c3-4246-418b-82aa-c5887f266899||Sequence: R016 ve11c/master r/e634e98; Dec 19 2017 11:00:25 by eja",
  "dcmmeta_affine": [
    [-1.9992525577545166, 0.05060642212629318, -0.020691102370619774, 104.03410339355469],
    [0.054550763219594955, 1.8969898223876953, -0.6312319040298462, -68.48554229736328],
    [-0.0036532096564769745, 0.6315603852272034, 1.8976612091064453, -68.69102478027344],
    [0.0, 0.0, 0.0, 1.0]
],
  "dcmmeta_reorient_transform": [
    [0.0, -1.0, 0.0, 103.0],
    [1.0, 0.0, 0.0, 0.0],
    [0.0, 0.0, 1.0, 0.0],
    [0.0, 0.0, 0.0, 1.0]
],
  "dcmmeta_shape": [104, 104, 60, 454],
  "dcmmeta_slice_dim": 2,
  "dcmmeta_version": 0.6,
  "global": {
    "const": {
      "AcquisitionMatrix": [104, 0, 0, 104],
      "AngioFlag": "N",
      "BitsAllocated": 16,
      "BitsStored": 16,
      "BodyPartExamined": "BRAIN",
      "Columns": 832,
      "EchoNumbers": 1,
      "EchoTime": 37.0,
      "EchoTrainLength": 104,
      "FlipAngle": 52.0,
      "HighBit": 15,
      "ImageOrientationPatient": [0.99962628869766, -0.027275381927, -0.001826604853, 0.02530321173972, 0.94849492271879, -0.3157801910385],
      "ImagePositionPatient": [-855.39524164936, -797.55223980219, 227.57744457488],
      "ImageType": [
        "ORIGINAL",
        "PRIMARY",
        "M",
        "MB",
        "ND",
        "MOSAIC"
],
      "ImagedNucleus": "1H",
      "ImagingFrequency": 123.258937,
      "InPlanePhaseEncodingDirection": "COL",
      "MRAcquisitionType": "2D",
      "MagneticFieldStrength": 3.0,
      "Manufacturer": "SIEMENS",
      "ManufacturerModelName": "Prisma_fit",
      "Modality": "MR",
      "NumberOfAverages": 1.0,
      "NumberOfPhaseEncodingSteps": 104,
      "PercentPhaseFieldOfView": 100.0,
      "PercentSampling": 100.0,
      "PerformedProcedureStepStartTime": "142718.014000",
      "PhotometricInterpretation": "MONOCHROME2",
      "PixelBandwidth": 2290.0,
      "PixelRepresentation": 0,
      "PixelSpacing": [2.0, 2.0],
      "ProtocolName": "func_task-mario_run-02",
      "RepetitionTime": 1490.0,
      "Rows": 832,
      "SAR": 0.05585392045331,
      "SamplesPerPixel": 1,
      "ScanOptions": "FS",
      "ScanningSequence": "EP",
      "SequenceName": "epfid2d1_104",
      "SequenceVariant": [
        "SK",
        "SS"
],
      "SeriesDescription": "func_task-mario_run-02",
      "SeriesNumber": 13,
      "SeriesTime": "152806.812000",
      "SliceLocation": -44.637305328698,
      "SliceThickness": 2.0,
      "SmallestImagePixelValue": 0,
      "SoftwareVersions": "syngo MR E11",
      "SpacingBetweenSlices": 2.0000000069129,
      "SpecificCharacterSet": "ISO_IR 100",
      "StudyID": "1",
      "StudyTime": "142717.934000",
      "TransmitCoilName": "Body",
      "VariableFlipAngleFlag": "N",
      "WindowCenterWidthExplanation": "Algo1",
      "dBdt": 0.0},
    "slices": {}
  },
  "time": {
    "samples": {
      "AcquisitionNumber": [1, 2, 3, 4, 5, 6, 7, 8, 9, 10, 11, 12, 13, 14, 15, 16, 17, 18, 19, 20, 21, 22, 23, 24, 25, 26, 27, 28, 29, 30, 31, 32, 33, 34, 35, 36, 37, 38, 39, 40, 41, 42, 43, 44, 45, 46, 47, 48, 49, 50, 51, 52, 53, 54, 55, 56, 57, 58, 59, 60, 61, 62, 63, 64, 65, 66, 67, 68, 69, 70, 71, 72, 73, 74, 75, 76, 77, 78, 79, 80, 81, 82, 83, 84, 85, 86, 87, 88, 89, 90, 91, 92, 93, 94, 95, 96, 97, 98, 99, 100, 101, 102, 103, 104, 105, 106, 107, 108, 109, 110, 111, 112, 113, 114, 115, 116, 117, 118, 119, 120, 121, 122, 123, 124, 125, 126, 127, 128, 129, 130, 131, 132, 133, 134, 135, 136, 137, 138, 139, 140, 141, 142, 143, 144, 145, 146, 147, 148, 149, 150, 151, 152, 153, 154, 155, 156, 157, 158, 159, 160, 161, 162, 163, 164, 165, 166, 167, 168, 169, 170, 171, 172, 173, 174, 175, 176, 177, 178, 179, 180, 181, 182, 183, 184, 185, 186, 187, 188, 189, 190, 191, 192, 193, 194, 195, 196, 197, 198, 199, 200, 201, 202, 203, 204, 205, 206, 207, 208, 209, 210, 211, 212, 213, 214, 215, 216, 217, 218, 219, 220, 221, 222, 223, 224, 225, 226, 227, 228, 229, 230, 231, 232, 233, 234, 235, 236, 237, 238, 239, 240, 241, 242, 243, 244, 245, 246, 247, 248, 249, 250, 251, 252, 253, 254, 255, 256, 257, 258, 259, 260, 261, 262, 263, 264, 265, 266, 267, 268, 269, 270, 271, 272, 273, 274, 275, 276, 277, 278, 279, 280, 281, 282, 283, 284, 285, 286, 287, 288, 289, 290, 291, 292, 293, 294, 295, 296, 297, 298, 299, 300, 301, 302, 303, 304, 305, 306, 307, 308, 309, 310, 311, 312, 313, 314, 315, 316, 317, 318, 319, 320, 321, 322, 323, 324, 325, 326, 327, 328, 329, 330, 331, 332, 333, 334, 335, 336, 337, 338, 339, 340, 341, 342, 343, 344, 345, 346, 347, 348, 349, 350, 351, 352, 353, 354, 355, 356, 357, 358, 359, 360, 361, 362, 363, 364, 365, 366, 367, 368, 369, 370, 371, 372, 373, 374, 375, 376, 377, 378, 379, 380, 381, 382, 383, 384, 385, 386, 387, 388, 389, 390, 391, 392, 393, 394, 395, 396, 397, 398, 399, 400, 401, 402, 403, 404, 405, 406, 407, 408, 409, 410, 411, 412, 413, 414, 415, 416, 417, 418, 419, 420, 421, 422, 423, 424, 425, 426, 427, 428, 429, 430, 431, 432, 433, 434, 435, 436, 437, 438, 439, 440, 441, 442, 443, 444, 445, 446, 447, 448, 449, 450, 451, 452, 453, 454],
      "AcquisitionTime": ["152648.800000", "152650.290000", "152651.780000", "152653.270000", "152654.760000", "152656.250000", "152657.740000", "152659.230000", "152700.720000", "152702.210000", "152703.700000", "152705.190000", "152706.680000", "152708.170000", "152709.660000", "152711.150000", "152712.640000", "152714.130000", "152715.620000", "152717.110000", "152718.600000", "152720.090000", "152721.580000", "152723.070000", "152724.560000", "152726.050000", "152727.540000", "152729.030000", "152730.520000", "152732.010000", "152733.500000", "152734.990000", "152736.480000", "152737.970000", "152739.460000", "152740.950000", "152742.440000", "152743.930000", "152745.420000", "152746.910000", "152748.400000", "152749.890000", "152751.380000", "152752.870000", "152754.360000", "152755.850000", "152757.340000", "152758.830000", "152800.320000", "152801.810000", "152803.300000", "152804.790000", "152806.280000", "152807.770000", "152809.260000", "152810.750000", "152812.240000", "152813.730000", "152815.220000", "152816.710000", "152818.200000", "152819.690000", "152821.180000", "152822.670000", "152824.160000", "152825.650000", "152827.140000", "152828.630000", "152830.120000", "152831.610000", "152833.100000", "152834.590000", "152836.080000", "152837.570000", "152839.060000", "152840.550000", "152842.040000", "152843.530000", "152845.020000", "152846.510000", "152848.000000", "152849.490000", "152850.980000", "152852.470000", "152853.960000", "152855.450000", "152856.940000", "152858.430000", "152859.920000", "152901.410000", "152902.900000", "152904.390000", "152905.880000", "152907.370000", "152908.860000", "152910.350000", "152911.840000", "152913.330000", "152914.820000", "152916.310000", "152917.800000", "152919.290000", "152920.780000", "152922.270000", "152923.760000", "152925.250000", "152926.740000", "152928.230000", "152929.720000", "152931.210000", "152932.700000", "152934.190000", "152935.680000", "152937.170000", "152938.660000", "152940.150000", "152941.640000", "152943.130000", "152944.620000", "152946.110000", "152947.600000", "152949.090000", "152950.580000", "152952.070000", "152953.560000", "152955.050000", "152956.540000", "152958.030000", "152959.520000", "153001.010000", "153002.500000", "153003.990000", "153005.480000", "153006.970000", "153008.460000", "153009.950000", "153011.440000", "153012.930000", "153014.420000", "153015.910000", "153017.400000", "153018.890000", "153020.380000", "153021.870000", "153023.360000", "153024.850000", "153026.340000", "153027.830000", "153029.320000", "153030.810000", "153032.300000", "153033.790000", "153035.280000", "153036.770000", "153038.260000", "153039.750000", "153041.240000", "153042.730000", "153044.220000", "153045.710000", "153047.200000", "153048.690000", "153050.180000", "153051.670000", "153053.160000", "153054.650000", "153056.140000", "153057.630000", "153059.120000", "153100.610000", "153102.100000", "153103.590000", "153105.080000", "153106.570000", "153108.060000", "153109.550000", "153111.040000", "153112.530000", "153114.020000", "153115.510000", "153117.000000", "153118.490000", "153119.980000", "153121.470000", "153122.960000", "153124.450000", "153125.940000", "153127.430000", "153128.920000", "153130.410000", "153131.900000", "153133.390000", "153134.880000", "153136.370000", "153137.860000", "153139.350000", "153140.840000", "153142.330000", "153143.820000", "153145.310000", "153146.800000", "153148.290000", "153149.780000", "153151.270000", "153152.760000", "153154.250000", "153155.740000", "153157.230000", "153158.720000", "153200.210000", "153201.700000", "153203.190000", "153204.680000", "153206.170000", "153207.660000", "153209.150000", "153210.640000", "153212.130000", "153213.620000", "153215.110000", "153216.600000", "153218.090000", "153219.580000", "153221.070000", "153222.560000", "153224.050000", "153225.540000", "153227.030000", "153228.520000", "153230.010000", "153231.500000", "153232.990000", "153234.480000", "153235.970000", "153237.460000", "153238.950000", "153240.440000", "153241.930000", "153243.420000", "153244.910000", "153246.400000", "153247.890000", "153249.380000", "153250.870000", "153252.360000", "153253.850000", "153255.340000", "153256.830000", "153258.320000", "153259.810000", "153301.300000", "153302.790000", "153304.280000", "153305.770000", "153307.260000", "153308.750000", "153310.240000", "153311.730000", "153313.220000", "153314.710000", "153316.200000", "153317.690000", "153319.180000", "153320.670000", "153322.160000", "153323.650000", "153325.140000", "153326.630000", "153328.120000", "153329.610000", "153331.100000", "153332.590000", "153334.080000", "153335.570000", "153337.060000", "153338.550000", "153340.040000", "153341.530000", "153343.020000", "153344.510000", "153346.000000", "153347.490000", "153348.980000", "153350.470000", "153351.960000", "153353.450000", "153354.940000", "153356.430000", "153357.920000", "153359.410000", "153400.900000", "153402.390000", "153403.880000", "153405.370000", "153406.860000", "153408.350000", "153409.840000", "153411.330000", "153412.820000", "153414.310000", "153415.800000", "153417.290000", "153418.780000", "153420.270000", "153421.760000", "153423.250000", "153424.740000", "153426.230000", "153427.720000", "153429.210000", "153430.700000", "153432.190000", "153433.680000", "153435.170000", "153436.660000", "153438.150000", "153439.640000", "153441.130000", "153442.620000", "153444.110000", "153445.600000", "153447.090000", "153448.580000", "153450.070000", "153451.560000", "153453.050000", "153454.540000", "153456.030000", "153457.520000", "153459.010000", "153500.500000", "153501.990000", "153503.480000", "153504.970000", "153506.460000", "153507.950000", "153509.440000", "153510.930000", "153512.420000", "153513.910000", "153515.400000", "153516.890000", "153518.380000", "153519.870000", "153521.360000", "153522.850000", "153524.340000", "153525.830000", "153527.320000", "153528.810000", "153530.300000", "153531.790000", "153533.280000", "153534.770000", "153536.260000", "153537.750000", "153539.240000", "153540.730000", "153542.220000", "153543.710000", "153545.200000", "153546.690000", "153548.180000", "153549.670000", "153551.160000", "153552.650000", "153554.140000", "153555.630000", "153557.120000", "153558.610000", "153600.100000", "153601.590000", "153603.080000", "153604.570000", "153606.060000", "153607.550000", "153609.040000", "153610.530000", "153612.020000", "153613.510000", "153615.000000", "153616.490000", "153617.980000", "153619.470000", "153620.960000", "153622.450000", "153623.940000", "153625.430000", "153626.920000", "153628.410000", "153629.900000", "153631.390000", "153632.880000", "153634.370000", "153635.860000", "153637.350000", "153638.840000", "153640.330000", "153641.820000", "153643.310000", "153644.800000", "153646.290000", "153647.780000", "153649.270000", "153650.760000", "153652.250000", "153653.740000", "153655.230000", "153656.720000", "153658.210000", "153659.700000", "153701.190000", "153702.680000", "153704.170000", "153705.660000", "153707.150000", "153708.640000", "153710.130000", "153711.620000", "153713.110000", "153714.600000", "153716.090000", "153717.580000", "153719.070000", "153720.560000", "153722.050000", "153723.540000", "153725.030000", "153726.520000", "153728.010000", "153729.500000", "153730.990000", "153732.480000", "153733.970000", "153735.460000", "153736.950000", "153738.440000", "153739.930000", "153741.420000", "153742.910000", "153744.400000", "153745.890000", "153747.380000", "153748.870000", "153750.360000", "153751.850000", "153753.340000", "153754.830000", "153756.320000", "153757.810000", "153759.300000", "153800.790000", "153802.280000", "153803.770000"],
      "ContentTime": ["152806.815000", "152806.818000", "152806.822000", "152806.825000", "152806.829000", "152806.832000", "152806.836000", "152806.839000", "152806.842000", "152806.846000", "152806.849000", "152806.853000", "152806.856000", "152806.859000", "152806.863000", "152806.866000", "152806.870000", "152806.873000", "152806.876000", "152806.880000", "152806.883000", "152806.900000", "152806.906000", "152826.762000", "152826.766000", "152826.796000", "152826.799000", "152826.802000", "152826.806000", "152826.809000", "152826.813000", "152826.816000", "152826.819000", "152826.823000", "152826.826000", "152826.830000", "152826.833000", "152826.836000", "152826.840000", "152826.843000", "152826.846000", "152826.850000", "152826.853000", "152846.762000", "152846.766000", "152846.770000", "152846.773000", "152846.776000", "152846.780000", "152846.783000", "152846.787000", "152846.790000", "152846.793000", "152846.797000", "152846.800000", "152846.804000", "152846.807000", "152846.811000", "152846.814000", "152846.817000", "152846.821000", "152846.824000", "152846.828000", "152906.763000", "152906.767000", "152906.771000", "152906.774000", "152906.777000", "152906.781000", "152906.784000", "152906.788000", "152906.791000", "152906.794000", "152906.798000", "152906.801000", "152906.805000", "152906.808000", "152906.812000", "152906.815000", "152906.819000", "152906.822000", "152906.826000", "152906.829000", "152926.763000", "152926.767000", "152926.771000", "152926.774000", "152926.778000", "152926.781000", "152926.784000", "152926.788000", "152926.791000", "152926.795000", "152926.798000", "152926.802000", "152926.805000", "152926.809000", "152926.812000", "152926.816000", "152926.819000", "152926.822000", "152926.826000", "152926.829000", "152926.833000", "153006.763000", "153006.767000", "153006.803000", "153006.807000", "153006.810000", "153006.814000", "153006.817000", "153006.820000", "153006.824000", "153006.827000", "153006.831000", "153006.834000", "153006.838000", "153006.841000", "153006.845000", "153006.848000", "153006.851000", "153006.865000", "153006.868000", "153006.872000", "153006.882000", "153006.885000", "153006.889000", "153006.892000", "153006.896000", "153006.899000", "153006.902000", "153006.906000", "153046.763000", "153046.766000", "153046.817000", "153046.821000", "153046.824000", "153046.827000", "153046.831000", "153046.834000", "153046.837000", "153046.841000", "153046.844000", "153046.847000", "153046.851000", "153046.854000", "153046.858000", "153046.861000", "153046.865000", "153046.868000", "153046.871000", "153046.875000", "153046.878000", "153046.881000", "153046.885000", "153046.888000", "153046.892000", "153046.895000", "153046.898000", "153126.763000", "153126.767000", "153126.771000", "153126.774000", "153126.778000", "153126.781000", "153126.784000", "153126.788000", "153126.791000", "153126.795000", "153126.798000", "153126.801000", "153126.805000", "153126.808000", "153126.811000", "153126.815000", "153126.818000", "153126.822000", "153126.825000", "153126.828000", "153126.832000", "153126.835000", "153126.839000", "153126.842000", "153126.845000", "153126.849000", "153126.852000", "153206.763000", "153206.767000", "153206.770000", "153206.774000", "153206.777000", "153206.781000", "153206.784000", "153206.787000", "153206.791000", "153206.794000", "153206.798000", "153206.801000", "153206.804000", "153206.808000", "153206.811000", "153206.815000", "153206.818000", "153206.821000", "153206.825000", "153206.828000", "153206.832000", "153206.835000", "153206.838000", "153206.842000", "153206.845000", "153206.848000", "153206.852000", "153246.763000", "153246.767000", "153246.770000", "153246.774000", "153246.777000", "153246.781000", "153246.784000", "153246.809000", "153246.812000", "153246.816000", "153246.819000", "153246.823000", "153246.826000", "153246.829000", "153246.833000", "153246.836000", "153246.839000", "153246.843000", "153246.846000", "153246.850000", "153246.853000", "153246.856000", "153246.860000", "153246.863000", "153246.867000", "153246.870000", "153246.873000", "153326.762000", "153326.766000", "153326.769000", "153326.773000", "153326.776000", "153326.780000", "153326.783000", "153326.787000", "153326.790000", "153326.793000", "153326.798000", "153326.802000", "153326.806000", "153326.809000", "153326.813000", "153326.816000", "153326.820000", "153326.823000", "153326.826000", "153326.830000", "153326.833000", "153326.837000", "153326.840000", "153326.843000", "153326.847000", "153326.850000", "153406.763000", "153406.767000", "153407.014000", "153407.017000", "153407.021000", "153407.024000", "153407.028000", "153407.032000", "153407.035000", "153407.039000", "153407.042000", "153407.045000", "153407.049000", "153407.052000", "153407.056000", "153407.059000", "153407.072000", "153407.075000", "153407.079000", "153407.082000", "153407.086000", "153407.089000", "153407.093000", "153407.096000", "153407.100000", "153407.103000", "153407.106000", "153426.763000", "153426.767000", "153426.814000", "153426.818000", "153426.821000", "153426.824000", "153426.828000", "153426.831000", "153426.835000", "153426.838000", "153426.842000", "153426.845000", "153426.849000", "153426.852000", "153506.764000", "153506.767000", "153506.809000", "153506.812000", "153506.816000", "153506.819000", "153506.842000", "153506.845000", "153506.849000", "153506.852000", "153506.856000", "153506.859000", "153506.862000", "153506.866000", "153506.869000", "153506.873000", "153506.876000", "153506.879000", "153506.883000", "153506.886000", "153506.889000", "153506.893000", "153506.896000", "153506.900000", "153506.903000", "153506.906000", "153546.762000", "153546.766000", "153546.770000", "153546.773000", "153546.777000", "153546.780000", "153546.784000", "153546.787000", "153546.791000", "153546.794000", "153546.797000", "153546.801000", "153546.804000", "153546.808000", "153546.811000", "153546.814000", "153546.818000", "153546.821000", "153546.825000", "153546.828000", "153546.831000", "153546.835000", "153546.838000", "153546.842000", "153546.845000", "153546.848000", "153546.852000", "153626.763000", "153626.767000", "153626.771000", "153626.774000", "153626.777000", "153626.781000", "153626.784000", "153626.788000", "153626.791000", "153626.794000", "153626.798000", "153626.801000", "153626.805000", "153626.808000", "153626.812000", "153626.815000", "153626.818000", "153626.822000", "153626.827000", "153626.830000", "153626.833000", "153626.837000", "153626.840000", "153626.844000", "153626.847000", "153626.850000", "153626.854000", "153706.763000", "153706.767000", "153706.771000", "153706.774000", "153706.777000", "153706.781000", "153706.784000", "153706.788000", "153706.791000", "153706.794000", "153706.798000", "153706.801000", "153706.805000", "153706.808000", "153706.812000", "153706.815000", "153706.818000", "153706.822000", "153706.825000", "153706.828000", "153706.832000", "153706.835000", "153706.847000", "153706.850000", "153706.853000", "153706.857000", "153706.868000", "153746.762000", "153746.766000", "153746.789000", "153746.792000", "153746.796000", "153746.799000", "153746.803000", "153746.806000", "153746.810000", "153746.813000", "153746.816000", "153746.820000", "153746.823000", "153746.826000", "153746.830000", "153746.833000", "153746.836000", "153746.840000", "153746.843000", "153746.847000", "153746.850000", "153746.853000", "153746.857000", "153746.860000", "153746.873000", "153746.877000", "153746.880000", "153806.469000", "153806.472000", "153806.476000", "153806.479000", "153806.483000", "153806.486000", "153806.490000", "153806.493000", "153806.497000", "153806.500000", "153806.504000", "153806.507000", "153806.510000"],
