{
  "AcquisitionMatrixPE": 104,
  "AcquisitionNumber": 1,
  "AcquisitionTime": "15:26:48.800000",
  "BandwidthPerPixelPhaseEncode": 17.17,
  "BaseResolution": 104,
  "BodyPartExamined": "BRAIN",
  "CoilString": "HC1-7;NC1_2",
  "ConsistencyInfo": "N4_VE11C_LATEST_20160120",
  "ConversionSoftware": "dcm2niix",
  "ConversionSoftwareVersion": "v1.0.20190902",
  "DerivedVendorReportedEchoSpacing": 0.000560011,
  "DeviceSerialNumber": "167006",
  "DwellTime": 2.1e-06,
  "EchoTime": 0.037,
  "EchoTrainLength": 104,
  "EffectiveEchoSpacing": 0.000560011,
  "FlipAngle": 52,
  "HeudiconvVersion": "0.10.0",
  "ImageComments": "Unaliased_MB4_PE3_LB",
  "ImageOrientationPatientDICOM": [0.999626, -0.0272754, -0.0018266, 0.0253032, 0.948495, -0.31578],
  "ImageType": [
    "ORIGINAL",
    "PRIMARY",
    "P",
    "MB",
    "ND",
    "MOSAIC"
],
  "ImagingFrequency": 123.259,
  "InPlanePhaseEncodingDirectionDICOM": "COL",
  "InstitutionAddress": "Chemin_Queen-Mary_4565_Montreal_District_CA_H3W_1W5",
  "InstitutionName": "IUGM",
  "InstitutionalDepartmentName": "Department",
  "MRAcquisitionType": "2D",
  "MagneticFieldStrength": 3,
  "Manufacturer": "Siemens",
  "ManufacturersModelName": "Prisma_fit",
  "Modality": "MR",
  "MultibandAccelerationFactor": 4,
  "PartialFourier": 1,
  "PatientPosition": "HFS",
  "PercentPhaseFOV": 100,
  "PhaseEncodingDirection": "j",
  "PhaseEncodingSteps": 104,
  "PhaseResolution": 1,
  "PixelBandwidth": 2290,
  "ProcedureStepDescription": "games_mario",
  "ProtocolName": "func_task-mario_run-02",
  "PulseSequenceDetails": "%CustomerSeq%_cmrr_mbep2d_bold",
  "ReceiveCoilActiveElements": "HC1-7;NC1,2",
  "ReceiveCoilName": "HeadNeck_64",
  "ReconMatrixPE": 104,
  "RepetitionTime": 1.49,
  "SAR": 0.0558539,
  "ScanOptions": "FS",
  "ScanningSequence": "EP",
  "SequenceName": "epfid2d1_104",
  "SequenceVariant": "SK_SS",
  "SeriesDescription": "func_task-mario_run-02",
  "SeriesNumber": 14,
  "ShimSetting": [632, -7233, -8841, 597, 17, -201, -78, -18],
  "SliceThickness": 2,
  "SliceTiming": [0, 0.7825, 0.0975, 0.8825, 0.195, 0.98, 0.2925, 1.0775, 0.3925, 1.175, 0.49, 1.2725, 0.5875, 1.3725, 0.685, 0, 0.7825, 0.0975, 0.8825, 0.195, 0.98, 0.2925, 1.0775, 0.3925, 1.175, 0.49, 1.2725, 0.5875, 1.3725, 0.685, 0, 0.7825, 0.0975, 0.8825, 0.195, 0.98, 0.2925, 1.0775, 0.3925, 1.175, 0.49, 1.2725, 0.5875, 1.3725, 0.685, 0, 0.7825, 0.0975, 0.8825, 0.195, 0.98, 0.2925, 1.0775, 0.3925, 1.175, 0.49, 1.2725, 0.5875, 1.3725, 0.685],
  "SoftwareVersions": "syngo_MR_E11",
  "SpacingBetweenSlices": 2,
  "StationName": "MRC35049",
  "TaskName": "mario",
  "TotalReadoutTime": 0.0576811,
  "TxRefAmp": 272.036,
  "WipMemBlock": "6b96a6c3-4246-418b-82aa-c5887f266899||Sequence: R016 ve11c/master r/e634e98; Dec 19 2017 11:00:25 by eja",
  "dcmmeta_affine": [
    [-1.9992525577545166, 0.05060642212629318, -0.020691102370619774, 104.03410339355469],
    [0.054550763219594955, 1.8969898223876953, -0.6312319040298462, -68.48554229736328],
    [-0.0036532096564769745, 0.6315603852272034, 1.8976612091064453, -68.69102478027344],
    [0.0, 0.0, 0.0, 1.0]
],
  "dcmmeta_reorient_transform": [
    [0.0, -1.0, 0.0, 103.0],
    [1.0, 0.0, 0.0, 0.0],
    [0.0, 0.0, 1.0, 0.0],
    [0.0, 0.0, 0.0, 1.0]
],
  "dcmmeta_shape": [104, 104, 60, 454],
  "dcmmeta_slice_dim": 2,
  "dcmmeta_version": 0.6,
  "global": {
    "const": {
      "AcquisitionMatrix": [104, 0, 0, 104],
      "AngioFlag": "N",
      "BitsAllocated": 16,
      "BitsStored": 16,
      "BodyPartExamined": "BRAIN",
      "Columns": 832,
      "EchoNumbers": 1,
      "EchoTime": 37.0,
      "EchoTrainLength": 104,
      "FlipAngle": 52.0,
      "HighBit": 15,
      "ImageOrientationPatient": [0.99962628869766, -0.027275381927, -0.001826604853, 0.02530321173972, 0.94849492271879, -0.3157801910385],
      "ImagePositionPatient": [-855.39524164936, -797.55223980219, 227.57744457488],
      "ImageType": [
        "ORIGINAL",
        "PRIMARY",
        "P",
        "MB",
        "ND",
        "MOSAIC"
],
      "ImagedNucleus": "1H",
      "ImagingFrequency": 123.258937,
      "InPlanePhaseEncodingDirection": "COL",
      "LargestImagePixelValue": 4095,
      "MRAcquisitionType": "2D",
      "MagneticFieldStrength": 3.0,
      "Manufacturer": "SIEMENS",
      "ManufacturerModelName": "Prisma_fit",
      "Modality": "MR",
      "NumberOfAverages": 1.0,
      "NumberOfPhaseEncodingSteps": 104,
      "PercentPhaseFieldOfView": 100.0,
      "PercentSampling": 100.0,
      "PerformedProcedureStepStartTime": "142718.014000",
      "PhotometricInterpretation": "MONOCHROME2",
      "PixelBandwidth": 2290.0,
      "PixelRepresentation": 0,
      "PixelSpacing": [2.0, 2.0],
      "ProtocolName": "func_task-mario_run-02",
      "RepetitionTime": 1490.0,
      "RescaleIntercept": -4096.0,
      "RescaleSlope": 2.0,
      "RescaleType": "US",
      "Rows": 832,
      "SAR": 0.05585392045331,
      "SamplesPerPixel": 1,
      "ScanOptions": "FS",
      "ScanningSequence": "EP",
      "SequenceName": "epfid2d1_104",
      "SequenceVariant": [
        "SK",
        "SS"
],
      "SeriesDescription": "func_task-mario_run-02",
      "SeriesNumber": 14,
      "SeriesTime": "152807.334000",
      "SliceLocation": -44.637305328698,
      "SliceThickness": 2.0,
      "SmallestImagePixelValue": 0,
      "SoftwareVersions": "syngo MR E11",
      "SpacingBetweenSlices": 2.0000000069129,
      "SpecificCharacterSet": "ISO_IR 100",
      "StudyID": "1",
      "StudyTime": "142717.934000",
      "TransmitCoilName": "Body",
      "VariableFlipAngleFlag": "N",
      "WindowCenterWidthExplanation": "Algo1",
      "dBdt": 0.0},
    "slices": {}
  },
  "time": {
    "samples": {
      "AcquisitionNumber": [1, 2, 3, 4, 5, 6, 7, 8, 9, 10, 11, 12, 13, 14, 15, 16, 17, 18, 19, 20, 21, 22, 23, 24, 25, 26, 27, 28, 29, 30, 31, 32, 33, 34, 35, 36, 37, 38, 39, 40, 41, 42, 43, 44, 45, 46, 47, 48, 49, 50, 51, 52, 53, 54, 55, 56, 57, 58, 59, 60, 61, 62, 63, 64, 65, 66, 67, 68, 69, 70, 71, 72, 73, 74, 75, 76, 77, 78, 79, 80, 81, 82, 83, 84, 85, 86, 87, 88, 89, 90, 91, 92, 93, 94, 95, 96, 97, 98, 99, 100, 101, 102, 103, 104, 105, 106, 107, 108, 109, 110, 111, 112, 113, 114, 115, 116, 117, 118, 119, 120, 121, 122, 123, 124, 125, 126, 127, 128, 129, 130, 131, 132, 133, 134, 135, 136, 137, 138, 139, 140, 141, 142, 143, 144, 145, 146, 147, 148, 149, 150, 151, 152, 153, 154, 155, 156, 157, 158, 159, 160, 161, 162, 163, 164, 165, 166, 167, 168, 169, 170, 171, 172, 173, 174, 175, 176, 177, 178, 179, 180, 181, 182, 183, 184, 185, 186, 187, 188, 189, 190, 191, 192, 193, 194, 195, 196, 197, 198, 199, 200, 201, 202, 203, 204, 205, 206, 207, 208, 209, 210, 211, 212, 213, 214, 215, 216, 217, 218, 219, 220, 221, 222, 223, 224, 225, 226, 227, 228, 229, 230, 231, 232, 233, 234, 235, 236, 237, 238, 239, 240, 241, 242, 243, 244, 245, 246, 247, 248, 249, 250, 251, 252, 253, 254, 255, 256, 257, 258, 259, 260, 261, 262, 263, 264, 265, 266, 267, 268, 269, 270, 271, 272, 273, 274, 275, 276, 277, 278, 279, 280, 281, 282, 283, 284, 285, 286, 287, 288, 289, 290, 291, 292, 293, 294, 295, 296, 297, 298, 299, 300, 301, 302, 303, 304, 305, 306, 307, 308, 309, 310, 311, 312, 313, 314, 315, 316, 317, 318, 319, 320, 321, 322, 323, 324, 325, 326, 327, 328, 329, 330, 331, 332, 333, 334, 335, 336, 337, 338, 339, 340, 341, 342, 343, 344, 345, 346, 347, 348, 349, 350, 351, 352, 353, 354, 355, 356, 357, 358, 359, 360, 361, 362, 363, 364, 365, 366, 367, 368, 369, 370, 371, 372, 373, 374, 375, 376, 377, 378, 379, 380, 381, 382, 383, 384, 385, 386, 387, 388, 389, 390, 391, 392, 393, 394, 395, 396, 397, 398, 399, 400, 401, 402, 403, 404, 405, 406, 407, 408, 409, 410, 411, 412, 413, 414, 415, 416, 417, 418, 419, 420, 421, 422, 423, 424, 425, 426, 427, 428, 429, 430, 431, 432, 433, 434, 435, 436, 437, 438, 439, 440, 441, 442, 443, 444, 445, 446, 447, 448, 449, 450, 451, 452, 453, 454],
      "AcquisitionTime": ["152648.800000", "152650.290000", "152651.780000", "152653.270000", "152654.760000", "152656.250000", "152657.740000", "152659.230000", "152700.720000", "152702.210000", "152703.700000", "152705.190000", "152706.680000", "152708.170000", "152709.660000", "152711.150000", "152712.640000", "152714.130000", "152715.620000", "152717.110000", "152718.600000", "152720.090000", "152721.580000", "152723.070000", "152724.560000", "152726.050000", "152727.540000", "152729.030000", "152730.520000", "152732.010000", "152733.500000", "152734.990000", "152736.480000", "152737.970000", "152739.460000", "152740.950000", "152742.440000", "152743.930000", "152745.420000", "152746.910000", "152748.400000", "152749.890000", "152751.380000", "152752.870000", "152754.360000", "152755.850000", "152757.340000", "152758.830000", "152800.320000", "152801.810000", "152803.300000", "152804.790000", "152806.280000", "152807.770000", "152809.260000", "152810.750000", "152812.240000", "152813.730000", "152815.220000", "152816.710000", "152818.200000", "152819.690000", "152821.180000", "152822.670000", "152824.160000", "152825.650000", "152827.140000", "152828.630000", "152830.120000", "152831.610000", "152833.100000", "152834.590000", "152836.080000", "152837.570000", "152839.060000", "152840.550000", "152842.040000", "152843.530000", "152845.020000", "152846.510000", "152848.000000", "152849.490000", "152850.980000", "152852.470000", "152853.960000", "152855.450000", "152856.940000", "152858.430000", "152859.920000", "152901.410000", "152902.900000", "152904.390000", "152905.880000", "152907.370000", "152908.860000", "152910.350000", "152911.840000", "152913.330000", "152914.820000", "152916.310000", "152917.800000", "152919.290000", "152920.780000", "152922.270000", "152923.760000", "152925.250000", "152926.740000", "152928.230000", "152929.720000", "152931.210000", "152932.700000", "152934.190000", "152935.680000", "152937.170000", "152938.660000", "152940.150000", "152941.640000", "152943.130000", "152944.620000", "152946.110000", "152947.600000", "152949.090000", "152950.580000", "152952.070000", "152953.560000", "152955.050000", "152956.540000", "152958.030000", "152959.520000", "153001.010000", "153002.500000", "153003.990000", "153005.480000", "153006.970000", "153008.460000", "153009.950000", "153011.440000", "153012.930000", "153014.420000", "153015.910000", "153017.400000", "153018.890000", "153020.380000", "153021.870000", "153023.360000", "153024.850000", "153026.340000", "153027.830000", "153029.320000", "153030.810000", "153032.300000", "153033.790000", "153035.280000", "153036.770000", "153038.260000", "153039.750000", "153041.240000", "153042.730000", "153044.220000", "153045.710000", "153047.200000", "153048.690000", "153050.180000", "153051.670000", "153053.160000", "153054.650000", "153056.140000", "153057.630000", "153059.120000", "153100.610000", "153102.100000", "153103.590000", "153105.080000", "153106.570000", "153108.060000", "153109.550000", "153111.040000", "153112.530000", "153114.020000", "153115.510000", "153117.000000", "153118.490000", "153119.980000", "153121.470000", "153122.960000", "153124.450000", "153125.940000", "153127.430000", "153128.920000", "153130.410000", "153131.900000", "153133.390000", "153134.880000", "153136.370000", "153137.860000", "153139.350000", "153140.840000", "153142.330000", "153143.820000", "153145.310000", "153146.800000", "153148.290000", "153149.780000", "153151.270000", "153152.760000", "153154.250000", "153155.740000", "153157.230000", "153158.720000", "153200.210000", "153201.700000", "153203.190000", "153204.680000", "153206.170000", "153207.660000", "153209.150000", "153210.640000", "153212.130000", "153213.620000", "153215.110000", "153216.600000", "153218.090000", "153219.580000", "153221.070000", "153222.560000", "153224.050000", "153225.540000", "153227.030000", "153228.520000", "153230.010000", "153231.500000", "153232.990000", "153234.480000", "153235.970000", "153237.460000", "153238.950000", "153240.440000", "153241.930000", "153243.420000", "153244.910000", "153246.400000", "153247.890000", "153249.380000", "153250.870000", "153252.360000", "153253.850000", "153255.340000", "153256.830000", "153258.320000", "153259.810000", "153301.300000", "153302.790000", "153304.280000", "153305.770000", "153307.260000", "153308.750000", "153310.240000", "153311.730000", "153313.220000", "153314.710000", "153316.200000", "153317.690000", "153319.180000", "153320.670000", "153322.160000", "153323.650000", "153325.140000", "153326.630000", "153328.120000", "153329.610000", "153331.100000", "153332.590000", "153334.080000", "153335.570000", "153337.060000", "153338.550000", "153340.040000", "153341.530000", "153343.020000", "153344.510000", "153346.000000", "153347.490000", "153348.980000", "153350.470000", "153351.960000", "153353.450000", "153354.940000", "153356.430000", "153357.920000", "153359.410000", "153400.900000", "153402.390000", "153403.880000", "153405.370000", "153406.860000", "153408.350000", "153409.840000", "153411.330000", "153412.820000", "153414.310000", "153415.800000", "153417.290000", "153418.780000", "153420.270000", "153421.760000", "153423.250000", "153424.740000", "153426.230000", "153427.720000", "153429.210000", "153430.700000", "153432.190000", "153433.680000", "153435.170000", "153436.660000", "153438.150000", "153439.640000", "153441.130000", "153442.620000", "153444.110000", "153445.600000", "153447.090000", "153448.580000", "153450.070000", "153451.560000", "153453.050000", "153454.540000", "153456.030000", "153457.520000", "153459.010000", "153500.500000", "153501.990000", "153503.480000", "153504.970000", "153506.460000", "153507.950000", "153509.440000", "153510.930000", "153512.420000", "153513.910000", "153515.400000", "153516.890000", "153518.380000", "153519.870000", "153521.360000", "153522.850000", "153524.340000", "153525.830000", "153527.320000", "153528.810000", "153530.300000", "153531.790000", "153533.280000", "153534.770000", "153536.260000", "153537.750000", "153539.240000", "153540.730000", "153542.220000", "153543.710000", "153545.200000", "153546.690000", "153548.180000", "153549.670000", "153551.160000", "153552.650000", "153554.140000", "153555.630000", "153557.120000", "153558.610000", "153600.100000", "153601.590000", "153603.080000", "153604.570000", "153606.060000", "153607.550000", "153609.040000", "153610.530000", "153612.020000", "153613.510000", "153615.000000", "153616.490000", "153617.980000", "153619.470000", "153620.960000", "153622.450000", "153623.940000", "153625.430000", "153626.920000", "153628.410000", "153629.900000", "153631.390000", "153632.880000", "153634.370000", "153635.860000", "153637.350000", "153638.840000", "153640.330000", "153641.820000", "153643.310000", "153644.800000", "153646.290000", "153647.780000", "153649.270000", "153650.760000", "153652.250000", "153653.740000", "153655.230000", "153656.720000", "153658.210000", "153659.700000", "153701.190000", "153702.680000", "153704.170000", "153705.660000", "153707.150000", "153708.640000", "153710.130000", "153711.620000", "153713.110000", "153714.600000", "153716.090000", "153717.580000", "153719.070000", "153720.560000", "153722.050000", "153723.540000", "153725.030000", "153726.520000", "153728.010000", "153729.500000", "153730.990000", "153732.480000", "153733.970000", "153735.460000", "153736.950000", "153738.440000", "153739.930000", "153741.420000", "153742.910000", "153744.400000", "153745.890000", "153747.380000", "153748.870000", "153750.360000", "153751.850000", "153753.340000", "153754.830000", "153756.320000", "153757.810000", "153759.300000", "153800.790000", "153802.280000", "153803.770000"],
      "ContentTime": ["152807.336000", "152807.339000", "152807.341000", "152807.344000", "152807.347000", "152807.349000", "152807.352000", "152807.354000", "152807.357000", "152807.365000", "152807.368000", "152807.371000", "152807.373000", "152807.376000", "152807.378000", "152807.381000", "152807.383000", "152807.386000", "152807.389000", "152807.391000", "152807.394000", "152807.396000", "152807.399000", "152826.900000", "152826.903000", "152826.911000", "152826.913000", "152826.916000", "152826.918000", "152826.921000", "152826.924000", "152826.926000", "152826.928000", "152826.931000", "152826.934000", "152826.936000", "152826.939000", "152826.941000", "152826.944000", "152826.946000", "152826.949000", "152826.956000", "152826.959000", "152846.875000", "152846.878000", "152846.881000", "152846.883000", "152846.886000", "152846.889000", "152846.891000", "152846.894000", "152846.896000", "152846.899000", "152846.902000", "152846.904000", "152846.907000", "152846.909000", "152846.912000", "152846.914000", "152846.917000", "152846.919000", "152846.922000", "152846.925000", "152906.904000", "152906.907000", "152906.917000", "152906.919000", "152906.922000", "152906.924000", "152906.927000", "152906.930000", "152906.932000", "152906.935000", "152906.937000", "152906.940000", "152906.942000", "152906.945000", "152906.948000", "152906.950000", "152906.953000", "152906.955000", "152906.958000", "152906.961000", "152926.875000", "152926.877000", "152926.880000", "152926.882000", "152926.885000", "152926.888000", "152926.890000", "152926.893000", "152926.895000", "152926.898000", "152926.901000", "152926.903000", "152926.906000", "152926.908000", "152926.912000", "152926.915000", "152926.918000", "152926.920000", "152926.923000", "152926.926000", "152926.929000", "153006.951000", "153006.954000", "153006.956000", "153006.959000", "153006.961000", "153006.964000", "153006.966000", "153006.969000", "153006.972000", "153006.974000", "153006.977000", "153006.979000", "153006.982000", "153006.985000", "153006.987000", "153006.990000", "153006.992000", "153007.001000", "153007.004000", "153007.007000", "153007.009000", "153007.012000", "153007.014000", "153007.017000", "153007.020000", "153007.022000", "153007.025000", "153007.027000", "153046.953000", "153046.956000", "153046.958000", "153046.961000", "153046.963000", "153046.966000", "153046.968000", "153046.971000", "153046.973000", "153046.976000", "153046.979000", "153046.981000", "153046.984000", "153046.986000", "153046.989000", "153046.991000", "153046.994000", "153046.996000", "153046.999000", "153047.002000", "153047.004000", "153047.007000", "153047.009000", "153047.012000", "153047.015000", "153047.017000", "153047.020000", "153126.904000", "153126.906000", "153126.909000", "153126.912000", "153126.914000", "153126.917000", "153126.920000", "153126.922000", "153126.925000", "153126.927000", "153126.930000", "153126.933000", "153126.935000", "153126.938000", "153126.940000", "153126.943000", "153126.945000", "153126.948000", "153126.951000", "153126.953000", "153126.956000", "153126.958000", "153126.961000", "153126.963000", "153126.966000", "153126.969000", "153126.972000", "153206.905000", "153206.908000", "153206.911000", "153206.913000", "153206.916000", "153206.919000", "153206.921000", "153206.924000", "153206.926000", "153206.929000", "153206.931000", "153206.934000", "153206.936000", "153206.939000", "153206.941000", "153206.944000", "153206.946000", "153206.949000", "153206.952000", "153206.954000", "153206.957000", "153206.959000", "153206.962000", "153206.964000", "153206.967000", "153206.970000", "153206.972000", "153246.919000", "153246.922000", "153246.924000", "153246.927000", "153246.929000", "153246.932000", "153246.934000", "153246.937000", "153246.940000", "153246.942000", "153246.945000", "153246.947000", "153246.950000", "153246.952000", "153246.955000", "153246.957000", "153246.960000", "153246.962000", "153246.965000", "153246.968000", "153246.970000", "153246.973000", "153246.975000", "153246.978000", "153246.980000", "153246.983000", "153246.986000", "153326.909000", "153326.912000", "153326.915000", "153326.917000", "153326.920000", "153326.922000", "153326.928000", "153326.931000", "153326.934000", "153326.937000", "153326.940000", "153326.943000", "153326.945000", "153326.948000", "153326.951000", "153326.954000", "153326.957000", "153326.959000", "153326.962000", "153326.964000", "153326.967000", "153326.970000", "153326.972000", "153326.975000", "153326.978000", "153326.980000", "153407.163000", "153407.166000", "153407.168000", "153407.171000", "153407.173000", "153407.176000", "153407.179000", "153407.181000", "153407.184000", "153407.187000", "153407.189000", "153407.192000", "153407.194000", "153407.197000", "153407.199000", "153407.202000", "153407.204000", "153407.207000", "153407.210000", "153407.212000", "153407.215000", "153407.217000", "153407.220000", "153407.222000", "153407.225000", "153407.228000", "153407.230000", "153426.886000", "153426.889000", "153426.892000", "153426.894000", "153426.905000", "153426.908000", "153426.910000", "153426.913000", "153426.915000", "153426.918000", "153426.921000", "153426.923000", "153426.926000", "153426.928000", "153506.957000", "153506.960000", "153506.963000", "153506.965000", "153506.968000", "153506.971000", "153506.973000", "153506.976000", "153506.978000", "153506.981000", "153506.983000", "153506.986000", "153506.988000", "153507.002000", "153507.005000", "153507.008000", "153507.010000", "153507.013000", "153507.015000", "153507.018000", "153507.020000", "153507.023000", "153507.025000", "153507.028000", "153507.031000", "153507.033000", "153546.914000", "153546.917000", "153546.920000", "153546.923000", "153546.925000", "153546.928000", "153546.930000", "153546.933000", "153546.935000", "153546.938000", "153546.941000", "153546.943000", "153546.946000", "153546.948000", "153546.951000", "153546.953000", "153546.956000", "153546.958000", "153546.961000", "153546.964000", "153546.966000", "153546.969000", "153546.972000", "153546.975000", "153546.978000", "153546.981000", "153546.983000", "153626.912000", "153626.914000", "153626.917000", "153626.920000", "153626.922000", "153626.925000", "153626.927000", "153626.930000", "153626.932000", "153626.935000", "153626.938000", "153626.940000", "153626.943000", "153626.945000", "153626.948000", "153626.950000", "153626.953000", "153626.955000", "153626.958000", "153626.961000", "153626.963000", "153626.966000", "153626.968000", "153626.971000", "153626.973000", "153626.976000", "153626.979000", "153706.914000", "153706.917000", "153706.920000", "153706.922000", "153706.925000", "153706.927000", "153706.930000", "153706.933000", "153706.935000", "153706.938000", "153706.940000", "153706.943000", "153706.946000", "153706.948000", "153706.951000", "153706.953000", "153706.956000", "153706.959000", "153706.961000", "153706.964000", "153706.966000", "153706.969000", "153706.971000", "153706.974000", "153706.977000", "153706.979000", "153706.982000", "153746.928000", "153746.931000", "153746.933000", "153746.936000", "153746.938000", "153746.941000", "153746.944000", "153746.946000", "153746.949000", "153746.952000", "153746.954000", "153746.957000", "153746.959000", "153746.962000", "153746.964000", "153746.967000", "153746.970000", "153746.972000", "153746.975000", "153746.977000", "153746.980000", "153746.982000", "153746.985000", "153746.988000", "153746.990000", "153746.993000", "153746.995000", "153806.544000", "153806.547000", "153806.550000", "153806.552000", "153806.555000", "153806.558000", "153806.560000", "153806.563000", "153806.565000", "153806.568000", "153806.571000", "153806.573000", "153806.576000"],
