{
  "AcquisitionMatrixPE": 104,
  "AcquisitionNumber": 1,
  "AcquisitionTime": "15:32:37.802500",
  "BandwidthPerPixelPhaseEncode": 17.17,
  "BaseResolution": 104,
  "BodyPartExamined": "BRAIN",
  "CoilCombinationMethod": "Sum of Squares",
  "ConsistencyInfo": "N4_VE11C_LATEST_20160120",
  "ConversionSoftware": "dcm2niix",
  "ConversionSoftwareVersion": "v1.0.20211006",
  "DerivedVendorReportedEchoSpacing": 0.000560011,
  "DeviceSerialNumber": "167006",
  "DwellTime": 2.1e-06,
  "EchoTime": 0.037,
  "EchoTrainLength": 104,
  "EffectiveEchoSpacing": 0.000560011,
  "FlipAngle": 52,
  "HeudiconvVersion": "0.10.0",
  "ImageComments": "Unaliased MB4/PE3/LB",
  "ImageOrientationPatientDICOM": [0.999502, 0.0273127, 0.0157836, -0.0226819, 0.969974, -0.24215],
  "ImageOrientationText": "Tra>Cor(-14.0)>Sag(1.3)",
  "ImageType": [
    "ORIGINAL",
    "PRIMARY",
    "M",
    "MB",
    "ND",
    "MOSAIC"
],
  "ImagingFrequency": 123.259,
  "InPlanePhaseEncodingDirectionDICOM": "COL",
  "InstitutionAddress": "Chemin Queen-Mary 4565,Montreal,District,CA,H3W 1W5",
  "InstitutionName": "IUGM",
  "InstitutionalDepartmentName": "Department",
  "MRAcquisitionType": "2D",
  "MagneticFieldStrength": 3,
  "Manufacturer": "Siemens",
  "ManufacturersModelName": "Prisma_fit",
  "MatrixCoilMode": "SENSE",
  "Modality": "MR",
  "MultibandAccelerationFactor": 4,
  "PartialFourier": 1,
  "PatientPosition": "HFS",
  "PercentPhaseFOV": 100,
  "PercentSampling": 100,
  "PhaseEncodingDirection": "j",
  "PhaseEncodingSteps": 104,
  "PhaseResolution": 1,
  "PixelBandwidth": 2290,
  "ProcedureStepDescription": "games^mario",
  "ProtocolName": "func_task-mario_run-02",
  "PulseSequenceDetails": "%CustomerSeq%\\cmrr_mbep2d_bold",
  "ReceiveCoilActiveElements": "HC1-7;NC1,2",
  "ReceiveCoilName": "HeadNeck_64",
  "ReconMatrixPE": 104,
  "RepetitionTime": 1.49,
  "SAR": 0.0388611,
  "ScanOptions": "FS",
  "ScanningSequence": "EP",
  "SequenceName": "epfid2d1_104",
  "SequenceVariant": "SK\\SS",
  "SeriesDescription": "func_task-mario_run-02",
  "SeriesNumber": 13,
  "ShimSetting": [639, -7206, -8818, 704, 65, 6, 59, -19],
  "SliceThickness": 2,
  "SliceTiming": [0, 0.7825, 0.0975, 0.8825, 0.195, 0.98, 0.2925, 1.0775, 0.3925, 1.175, 0.49, 1.2725, 0.5875, 1.3725, 0.685, 0, 0.7825, 0.0975, 0.8825, 0.195, 0.98, 0.2925, 1.0775, 0.3925, 1.175, 0.49, 1.2725, 0.5875, 1.3725, 0.685, 0, 0.7825, 0.0975, 0.8825, 0.195, 0.98, 0.2925, 1.0775, 0.3925, 1.175, 0.49, 1.2725, 0.5875, 1.3725, 0.685, 0, 0.7825, 0.0975, 0.8825, 0.195, 0.98, 0.2925, 1.0775, 0.3925, 1.175, 0.49, 1.2725, 0.5875, 1.3725, 0.685],
  "SoftwareVersions": "syngo MR E11",
  "SpacingBetweenSlices": 2,
  "StationName": "MRC35049",
  "TaskName": "mario",
  "TotalReadoutTime": 0.0576811,
  "TxRefAmp": 213.755,
  "WipMemBlock": "9baa1930-7485-410f-8e17-ad8cdbf54227||Sequence: R016 ve11c/master r/e634e98; Dec 19 2017 11:00:25 by eja",
  "dcmmeta_affine": [
    [-1.999004602432251, -0.04536377266049385, 0.043846823275089264, 109.61256408691406],
    [-0.054625365883111954, 1.939947485923767, -0.4833422899246216, -72.52964782714844],
    [0.031567152589559555, 0.48429930210113525, 1.9402210712432861, -69.46573638916016],
    [0.0, 0.0, 0.0, 1.0]
],
  "dcmmeta_reorient_transform": [
    [0.0, -1.0, 0.0, 103.0],
    [1.0, 0.0, 0.0, 0.0],
    [0.0, 0.0, 1.0, 0.0],
    [0.0, 0.0, 0.0, 1.0]
],
  "dcmmeta_shape": [104, 104, 60, 484],
  "dcmmeta_slice_dim": 2,
  "dcmmeta_version": 0.6,
  "global": {
    "const": {
      "AcquisitionMatrix": [104, 0, 0, 104],
      "AngioFlag": "N",
      "BitsAllocated": 16,
      "BitsStored": 16,
      "BodyPartExamined": "BRAIN",
      "Columns": 832,
      "EchoNumbers": 1,
      "EchoTime": 37.0,
      "EchoTrainLength": 104,
      "FlipAngle": 52.0,
      "HighBit": 15,
      "ImageOrientationPatient": [0.9995023241961, 0.02731268284988, 0.01578357634169, -0.0226818862258, 0.96997375209311, -0.2421496485392],
      "ImagePositionPatient": [-816.06537653374, -853.30946780323, 145.21159495652],
      "ImageType": [
        "ORIGINAL",
        "PRIMARY",
        "M",
        "MB",
        "ND",
        "MOSAIC"
],
      "ImagedNucleus": "1H",
      "ImagingFrequency": 123.258938,
      "InPlanePhaseEncodingDirection": "COL",
      "MRAcquisitionType": "2D",
      "MagneticFieldStrength": 3.0,
      "Manufacturer": "SIEMENS",
      "ManufacturerModelName": "Prisma_fit",
      "Modality": "MR",
      "NumberOfAverages": 1.0,
      "NumberOfPhaseEncodingSteps": 104,
      "PercentPhaseFieldOfView": 100.0,
      "PercentSampling": 100.0,
      "PerformedProcedureStepStartTime": "144744.098000",
      "PhotometricInterpretation": "MONOCHROME2",
      "PixelBandwidth": 2290.0,
      "PixelRepresentation": 0,
      "PixelSpacing": [2.0, 2.0],
      "ProtocolName": "func_task-mario_run-02",
      "RepetitionTime": 1490.0,
      "Rows": 832,
      "SAR": 0.03886109337521,
      "SamplesPerPixel": 1,
      "ScanOptions": "FS",
      "ScanningSequence": "EP",
      "SequenceName": "epfid2d1_104",
      "SequenceVariant": [
        "SK",
        "SS"
],
      "SeriesDescription": "func_task-mario_run-02",
      "SeriesNumber": 13,
      "SeriesTime": "153357.887000",
      "SliceLocation": -47.458034580081,
      "SliceThickness": 2.0,
      "SmallestImagePixelValue": 0,
      "SoftwareVersions": "syngo MR E11",
      "SpacingBetweenSlices": 2.0000000578796,
      "SpecificCharacterSet": "ISO_IR 100",
      "StudyID": "1",
      "StudyTime": "144744.009000",
      "TransmitCoilName": "Body",
      "VariableFlipAngleFlag": "N",
      "WindowCenterWidthExplanation": "Algo1",
      "dBdt": 0.0},
    "slices": {}
  },
  "time": {
    "samples": {
      "AcquisitionNumber": [1, 2, 3, 4, 5, 6, 7, 8, 9, 10, 11, 12, 13, 14, 15, 16, 17, 18, 19, 20, 21, 22, 23, 24, 25, 26, 27, 28, 29, 30, 31, 32, 33, 34, 35, 36, 37, 38, 39, 40, 41, 42, 43, 44, 45, 46, 47, 48, 49, 50, 51, 52, 53, 54, 55, 56, 57, 58, 59, 60, 61, 62, 63, 64, 65, 66, 67, 68, 69, 70, 71, 72, 73, 74, 75, 76, 77, 78, 79, 80, 81, 82, 83, 84, 85, 86, 87, 88, 89, 90, 91, 92, 93, 94, 95, 96, 97, 98, 99, 100, 101, 102, 103, 104, 105, 106, 107, 108, 109, 110, 111, 112, 113, 114, 115, 116, 117, 118, 119, 120, 121, 122, 123, 124, 125, 126, 127, 128, 129, 130, 131, 132, 133, 134, 135, 136, 137, 138, 139, 140, 141, 142, 143, 144, 145, 146, 147, 148, 149, 150, 151, 152, 153, 154, 155, 156, 157, 158, 159, 160, 161, 162, 163, 164, 165, 166, 167, 168, 169, 170, 171, 172, 173, 174, 175, 176, 177, 178, 179, 180, 181, 182, 183, 184, 185, 186, 187, 188, 189, 190, 191, 192, 193, 194, 195, 196, 197, 198, 199, 200, 201, 202, 203, 204, 205, 206, 207, 208, 209, 210, 211, 212, 213, 214, 215, 216, 217, 218, 219, 220, 221, 222, 223, 224, 225, 226, 227, 228, 229, 230, 231, 232, 233, 234, 235, 236, 237, 238, 239, 240, 241, 242, 243, 244, 245, 246, 247, 248, 249, 250, 251, 252, 253, 254, 255, 256, 257, 258, 259, 260, 261, 262, 263, 264, 265, 266, 267, 268, 269, 270, 271, 272, 273, 274, 275, 276, 277, 278, 279, 280, 281, 282, 283, 284, 285, 286, 287, 288, 289, 290, 291, 292, 293, 294, 295, 296, 297, 298, 299, 300, 301, 302, 303, 304, 305, 306, 307, 308, 309, 310, 311, 312, 313, 314, 315, 316, 317, 318, 319, 320, 321, 322, 323, 324, 325, 326, 327, 328, 329, 330, 331, 332, 333, 334, 335, 336, 337, 338, 339, 340, 341, 342, 343, 344, 345, 346, 347, 348, 349, 350, 351, 352, 353, 354, 355, 356, 357, 358, 359, 360, 361, 362, 363, 364, 365, 366, 367, 368, 369, 370, 371, 372, 373, 374, 375, 376, 377, 378, 379, 380, 381, 382, 383, 384, 385, 386, 387, 388, 389, 390, 391, 392, 393, 394, 395, 396, 397, 398, 399, 400, 401, 402, 403, 404, 405, 406, 407, 408, 409, 410, 411, 412, 413, 414, 415, 416, 417, 418, 419, 420, 421, 422, 423, 424, 425, 426, 427, 428, 429, 430, 431, 432, 433, 434, 435, 436, 437, 438, 439, 440, 441, 442, 443, 444, 445, 446, 447, 448, 449, 450, 451, 452, 453, 454, 455, 456, 457, 458, 459, 460, 461, 462, 463, 464, 465, 466, 467, 468, 469, 470, 471, 472, 473, 474, 475, 476, 477, 478, 479, 480, 481, 482, 483, 484],
      "AcquisitionTime": ["153237.802500", "153239.292500", "153240.782500", "153242.272500", "153243.762500", "153245.252500", "153246.742500", "153248.232500", "153249.722500", "153251.212500", "153252.702500", "153254.192500", "153255.682500", "153257.172500", "153258.662500", "153300.152500", "153301.642500", "153303.132500", "153304.622500", "153306.112500", "153307.602500", "153309.092500", "153310.582500", "153312.072500", "153313.562500", "153315.052500", "153316.542500", "153318.032500", "153319.522500", "153321.012500", "153322.502500", "153323.992500", "153325.482500", "153326.972500", "153328.462500", "153329.952500", "153331.442500", "153332.932500", "153334.422500", "153335.912500", "153337.402500", "153338.892500", "153340.382500", "153341.872500", "153343.362500", "153344.852500", "153346.342500", "153347.832500", "153349.322500", "153350.812500", "153352.302500", "153353.792500", "153355.282500", "153356.772500", "153358.262500", "153359.752500", "153401.242500", "153402.732500", "153404.222500", "153405.712500", "153407.202500", "153408.692500", "153410.182500", "153411.672500", "153413.162500", "153414.652500", "153416.142500", "153417.632500", "153419.122500", "153420.612500", "153422.102500", "153423.592500", "153425.082500", "153426.572500", "153428.062500", "153429.552500", "153431.042500", "153432.532500", "153434.022500", "153435.512500", "153437.002500", "153438.492500", "153439.982500", "153441.472500", "153442.962500", "153444.452500", "153445.942500", "153447.432500", "153448.922500", "153450.412500", "153451.902500", "153453.392500", "153454.882500", "153456.372500", "153457.862500", "153459.352500", "153500.842500", "153502.332500", "153503.822500", "153505.312500", "153506.802500", "153508.292500", "153509.782500", "153511.272500", "153512.762500", "153514.252500", "153515.742500", "153517.232500", "153518.722500", "153520.212500", "153521.702500", "153523.192500", "153524.682500", "153526.172500", "153527.662500", "153529.152500", "153530.642500", "153532.132500", "153533.622500", "153535.112500", "153536.602500", "153538.092500", "153539.582500", "153541.072500", "153542.562500", "153544.052500", "153545.542500", "153547.032500", "153548.522500", "153550.012500", "153551.502500", "153552.992500", "153554.482500", "153555.972500", "153557.462500", "153558.952500", "153600.442500", "153601.932500", "153603.422500", "153604.912500", "153606.402500", "153607.892500", "153609.382500", "153610.872500", "153612.362500", "153613.852500", "153615.342500", "153616.832500", "153618.322500", "153619.812500", "153621.302500", "153622.792500", "153624.282500", "153625.772500", "153627.262500", "153628.752500", "153630.242500", "153631.732500", "153633.222500", "153634.712500", "153636.202500", "153637.692500", "153639.182500", "153640.672500", "153642.162500", "153643.652500", "153645.142500", "153646.632500", "153648.122500", "153649.612500", "153651.102500", "153652.592500", "153654.082500", "153655.572500", "153657.062500", "153658.552500", "153700.042500", "153701.532500", "153703.022500", "153704.512500", "153706.002500", "153707.492500", "153708.982500", "153710.472500", "153711.962500", "153713.452500", "153714.942500", "153716.432500", "153717.922500", "153719.412500", "153720.902500", "153722.392500", "153723.882500", "153725.372500", "153726.862500", "153728.352500", "153729.842500", "153731.332500", "153732.822500", "153734.312500", "153735.802500", "153737.292500", "153738.782500", "153740.272500", "153741.762500", "153743.252500", "153744.742500", "153746.232500", "153747.722500", "153749.212500", "153750.702500", "153752.192500", "153753.682500", "153755.172500", "153756.662500", "153758.152500", "153759.642500", "153801.132500", "153802.622500", "153804.112500", "153805.602500", "153807.092500", "153808.582500", "153810.072500", "153811.562500", "153813.052500", "153814.542500", "153816.032500", "153817.522500", "153819.012500", "153820.502500", "153821.992500", "153823.482500", "153824.972500", "153826.462500", "153827.952500", "153829.442500", "153830.932500", "153832.422500", "153833.912500", "153835.402500", "153836.892500", "153838.382500", "153839.872500", "153841.362500", "153842.852500", "153844.342500", "153845.832500", "153847.322500", "153848.812500", "153850.302500", "153851.792500", "153853.282500", "153854.772500", "153856.262500", "153857.752500", "153859.242500", "153900.732500", "153902.222500", "153903.712500", "153905.202500", "153906.692500", "153908.182500", "153909.672500", "153911.162500", "153912.652500", "153914.142500", "153915.632500", "153917.122500", "153918.612500", "153920.102500", "153921.592500", "153923.082500", "153924.572500", "153926.062500", "153927.552500", "153929.042500", "153930.532500", "153932.022500", "153933.512500", "153935.002500", "153936.492500", "153937.982500", "153939.472500", "153940.962500", "153942.452500", "153943.942500", "153945.432500", "153946.922500", "153948.412500", "153949.902500", "153951.392500", "153952.882500", "153954.372500", "153955.862500", "153957.352500", "153958.842500", "154000.332500", "154001.822500", "154003.312500", "154004.802500", "154006.292500", "154007.782500", "154009.272500", "154010.762500", "154012.252500", "154013.742500", "154015.232500", "154016.722500", "154018.212500", "154019.702500", "154021.192500", "154022.682500", "154024.172500", "154025.662500", "154027.152500", "154028.642500", "154030.132500", "154031.622500", "154033.112500", "154034.602500", "154036.092500", "154037.582500", "154039.072500", "154040.562500", "154042.052500", "154043.542500", "154045.032500", "154046.522500", "154048.012500", "154049.502500", "154050.992500", "154052.482500", "154053.972500", "154055.462500", "154056.952500", "154058.442500", "154059.932500", "154101.422500", "154102.912500", "154104.402500", "154105.892500", "154107.382500", "154108.872500", "154110.362500", "154111.852500", "154113.342500", "154114.832500", "154116.322500", "154117.812500", "154119.302500", "154120.792500", "154122.282500", "154123.772500", "154125.262500", "154126.752500", "154128.242500", "154129.732500", "154131.222500", "154132.712500", "154134.202500", "154135.692500", "154137.182500", "154138.672500", "154140.162500", "154141.652500", "154143.142500", "154144.632500", "154146.122500", "154147.612500", "154149.102500", "154150.592500", "154152.082500", "154153.572500", "154155.062500", "154156.552500", "154158.042500", "154159.532500", "154201.022500", "154202.512500", "154204.002500", "154205.492500", "154206.982500", "154208.472500", "154209.962500", "154211.452500", "154212.942500", "154214.432500", "154215.922500", "154217.412500", "154218.902500", "154220.392500", "154221.882500", "154223.372500", "154224.862500", "154226.352500", "154227.842500", "154229.332500", "154230.822500", "154232.312500", "154233.802500", "154235.292500", "154236.782500", "154238.272500", "154239.762500", "154241.252500", "154242.742500", "154244.232500", "154245.722500", "154247.212500", "154248.702500", "154250.192500", "154251.682500", "154253.172500", "154254.662500", "154256.152500", "154257.642500", "154259.132500", "154300.622500", "154302.112500", "154303.602500", "154305.092500", "154306.582500", "154308.072500", "154309.562500", "154311.052500", "154312.542500", "154314.032500", "154315.522500", "154317.012500", "154318.502500", "154319.992500", "154321.482500", "154322.972500", "154324.462500", "154325.952500", "154327.442500", "154328.932500", "154330.422500", "154331.912500", "154333.402500", "154334.892500", "154336.382500", "154337.872500", "154339.362500", "154340.852500", "154342.342500", "154343.832500", "154345.322500", "154346.812500", "154348.302500", "154349.792500", "154351.282500", "154352.772500", "154354.262500", "154355.752500", "154357.242500", "154358.732500", "154400.222500", "154401.712500", "154403.202500", "154404.692500", "154406.182500", "154407.672500", "154409.162500", "154410.652500", "154412.142500", "154413.632500", "154415.122500", "154416.612500", "154418.102500", "154419.592500", "154421.082500", "154422.572500", "154424.062500", "154425.552500", "154427.042500", "154428.532500", "154430.022500", "154431.512500", "154433.002500", "154434.492500", "154435.982500", "154437.472500"],
      "ContentTime": ["153357.891000", "153357.894000", "153357.898000", "153357.901000", "153357.904000", "153357.907000", "153357.911000", "153357.914000", "153357.917000", "153357.920000", "153357.924000", "153357.927000", "153357.930000", "153357.933000", "153357.936000", "153357.940000", "153357.952000", "153357.955000", "153357.958000", "153357.962000", "153357.965000", "153357.968000", "153357.972000", "153357.975000", "153357.978000", "153357.981000", "153417.854000", "153417.858000", "153417.861000", "153417.864000", "153417.868000", "153417.871000", "153417.874000", "153417.877000", "153417.881000", "153417.884000", "153417.887000", "153417.890000", "153417.893000", "153417.897000", "153417.900000", "153417.903000", "153417.906000", "153417.910000", "153417.913000", "153417.916000", "153437.853000", "153437.857000", "153437.860000", "153437.863000", "153437.866000", "153437.870000", "153437.873000", "153437.876000", "153437.879000", "153437.883000", "153437.886000", "153437.889000", "153437.892000", "153437.896000", "153437.899000", "153437.902000", "153437.906000", "153437.909000", "153437.912000", "153437.916000", "153437.928000", "153457.854000", "153457.858000", "153457.861000", "153457.864000", "153457.868000", "153457.871000", "153457.874000", "153457.877000", "153457.881000", "153457.884000", "153457.887000", "153457.890000", "153457.894000", "153457.897000", "153457.900000", "153457.903000", "153457.906000", "153457.910000", "153457.913000", "153457.916000", "153517.854000", "153517.858000", "153517.861000", "153517.864000", "153517.867000", "153517.871000", "153517.874000", "153517.877000", "153517.881000", "153517.884000", "153517.887000", "153517.890000", "153517.894000", "153517.897000", "153517.900000", "153517.903000", "153517.907000", "153517.910000", "153517.913000", "153517.916000", "153557.854000", "153557.858000", "153557.861000", "153557.864000", "153557.867000", "153557.871000", "153557.874000", "153557.877000", "153557.880000", "153557.884000", "153557.887000", "153557.890000", "153557.893000", "153557.897000", "153557.900000", "153557.903000", "153557.906000", "153557.910000", "153557.913000", "153557.916000", "153557.919000", "153557.922000", "153557.926000", "153557.929000", "153557.932000", "153557.935000", "153557.939000", "153637.854000", "153637.858000", "153637.861000", "153637.865000", "153637.870000", "153637.873000", "153637.877000", "153637.880000", "153637.884000", "153637.888000", "153637.891000", "153637.894000", "153637.898000", "153637.901000", "153637.904000", "153637.907000", "153637.911000", "153637.914000", "153637.917000", "153637.920000", "153637.924000", "153637.927000", "153637.930000", "153637.933000", "153637.937000", "153637.940000", "153717.854000", "153717.870000", "153717.873000", "153717.876000", "153717.880000", "153717.883000", "153717.886000", "153717.889000", "153717.892000", "153717.896000", "153717.899000", "153717.902000", "153717.905000", "153717.909000", "153717.912000", "153717.915000", "153717.919000", "153717.922000", "153717.925000", "153717.928000", "153717.932000", "153717.935000", "153717.938000", "153717.941000", "153717.945000", "153717.948000", "153717.951000", "153757.854000", "153757.858000", "153757.861000", "153757.864000", "153757.868000", "153757.871000", "153757.874000", "153757.877000", "153757.881000", "153757.884000", "153757.887000", "153757.891000", "153757.894000", "153757.897000", "153757.901000", "153757.904000", "153757.907000", "153757.911000", "153757.914000", "153757.917000", "153757.921000", "153757.924000", "153757.927000", "153757.930000", "153757.943000", "153757.946000", "153757.950000", "153837.854000", "153837.858000", "153837.861000", "153837.864000", "153837.868000", "153837.871000", "153837.874000", "153837.878000", "153837.881000", "153837.884000", "153837.888000", "153837.891000", "153837.894000", "153837.897000", "153837.901000", "153837.904000", "153837.908000", "153837.911000", "153837.914000", "153837.918000", "153837.921000", "153837.924000", "153837.928000", "153837.931000", "153837.934000", "153837.937000", "153837.941000", "153917.853000", "153917.857000", "153917.860000", "153917.863000", "153917.867000", "153917.870000", "153917.873000", "153917.877000", "153917.880000", "153917.883000", "153917.887000", "153917.890000", "153917.893000", "153917.909000", "153917.912000", "153917.915000", "153917.919000", "153917.922000", "153917.925000", "153917.928000", "153917.932000", "153917.935000", "153917.938000", "153917.942000", "153917.945000", "153917.949000", "153917.952000", "153957.854000", "153957.858000", "153957.861000", "153957.865000", "153957.868000", "153957.871000", "153957.875000", "153957.878000", "153957.881000", "153957.884000", "153957.888000", "153957.891000", "153957.894000", "153957.898000", "153957.901000", "153957.904000", "153957.908000", "153957.911000", "153957.914000", "153957.917000", "153957.921000", "153957.924000", "153957.927000", "153957.931000", "153957.934000", "153957.937000", "153957.940000", "154037.854000", "154037.858000", "154037.861000", "154037.864000", "154037.878000", "154037.881000", "154037.884000", "154037.887000", "154037.891000", "154037.894000", "154037.897000", "154037.901000", "154037.904000", "154037.907000", "154037.911000", "154037.914000", "154037.917000", "154037.921000", "154037.924000", "154037.927000", "154037.930000", "154037.934000", "154037.937000", "154037.940000", "154037.944000", "154037.947000", "154037.950000", "154117.854000", "154117.858000", "154117.862000", "154117.866000", "154117.869000", "154117.872000", "154117.876000", "154117.879000", "154117.882000", "154117.885000", "154117.889000", "154117.892000", "154117.895000", "154117.898000", "154117.902000", "154117.905000", "154117.908000", "154117.912000", "154117.915000", "154117.918000", "154117.922000", "154117.925000", "154117.928000", "154117.932000", "154117.935000", "154117.938000", "154157.854000", "154157.858000", "154157.861000", "154157.865000", "154157.868000", "154157.871000", "154157.875000", "154157.878000", "154157.881000", "154157.884000", "154157.888000", "154157.891000", "154157.894000", "154157.898000", "154157.901000", "154157.904000", "154157.908000", "154157.911000", "154157.914000", "154157.917000", "154157.921000", "154157.924000", "154157.927000", "154157.931000", "154157.934000", "154157.937000", "154157.942000", "154217.854000", "154217.858000", "154217.861000", "154217.864000", "154217.868000", "154217.871000", "154217.875000", "154217.878000", "154217.881000", "154217.885000", "154217.888000", "154217.891000", "154217.894000", "154217.898000", "154257.854000", "154257.858000", "154257.861000", "154257.864000", "154257.868000", "154257.871000", "154257.874000", "154257.877000", "154257.881000", "154257.884000", "154257.887000", "154257.891000", "154257.894000", "154257.898000", "154257.901000", "154257.904000", "154257.908000", "154257.911000", "154257.914000", "154257.917000", "154257.921000", "154257.924000", "154257.927000", "154257.931000", "154257.934000", "154257.937000", "154257.940000", "154337.854000", "154337.858000", "154337.861000", "154337.865000", "154337.868000", "154337.871000", "154337.875000", "154337.878000", "154337.881000", "154337.884000", "154337.888000", "154337.891000", "154337.894000", "154337.912000", "154337.915000", "154337.919000", "154337.923000", "154337.926000", "154337.929000", "154337.933000", "154337.936000", "154337.946000", "154337.950000", "154337.953000", "154337.956000", "154337.959000", "154417.854000", "154417.858000", "154417.861000", "154417.865000", "154417.868000", "154417.871000", "154417.874000", "154417.878000", "154417.881000", "154417.884000", "154417.888000", "154417.891000", "154417.895000", "154417.898000", "154417.901000", "154417.905000", "154417.908000", "154417.911000", "154417.914000", "154417.918000", "154417.921000", "154417.924000", "154417.928000", "154417.931000", "154417.934000", "154417.938000", "154417.941000", "154440.347000", "154440.352000", "154440.355000", "154440.359000", "154440.362000", "154440.365000", "154440.369000", "154440.372000", "154440.376000", "154440.379000", "154440.382000", "154440.385000", "154440.389000", "154440.392000", "154440.395000"],
