{
  "AcquisitionMatrixPE": 104,
  "AcquisitionNumber": 1,
  "AcquisitionTime": "15:32:37.802500",
  "BandwidthPerPixelPhaseEncode": 17.17,
  "BaseResolution": 104,
  "BodyPartExamined": "BRAIN",
  "CoilCombinationMethod": "Sum of Squares",
  "ConsistencyInfo": "N4_VE11C_LATEST_20160120",
  "ConversionSoftware": "dcm2niix",
  "ConversionSoftwareVersion": "v1.0.20211006",
  "DerivedVendorReportedEchoSpacing": 0.000560011,
  "DeviceSerialNumber": "167006",
  "DwellTime": 2.1e-06,
  "EchoTime": 0.037,
  "EchoTime1": 0.037,
  "EchoTime2": 0.001,
  "EchoTrainLength": 104,
  "EffectiveEchoSpacing": 0.000560011,
  "FlipAngle": 52,
  "HeudiconvVersion": "0.10.0",
  "ImageComments": "Unaliased MB4/PE3/LB",
  "ImageOrientationPatientDICOM": [0.999502, 0.0273127, 0.0157836, -0.0226819, 0.969974, -0.24215],
  "ImageOrientationText": "Tra>Cor(-14.0)>Sag(1.3)",
  "ImageType": [
    "ORIGINAL",
    "PRIMARY",
    "P",
    "MB",
    "ND",
    "MOSAIC",
    "PHASE"
],
  "ImagingFrequency": 123.259,
  "InPlanePhaseEncodingDirectionDICOM": "COL",
  "InstitutionAddress": "Chemin Queen-Mary 4565,Montreal,District,CA,H3W 1W5",
  "InstitutionName": "IUGM",
  "InstitutionalDepartmentName": "Department",
  "MRAcquisitionType": "2D",
  "MagneticFieldStrength": 3,
  "Manufacturer": "Siemens",
  "ManufacturersModelName": "Prisma_fit",
  "MatrixCoilMode": "SENSE",
  "Modality": "MR",
  "MultibandAccelerationFactor": 4,
  "PartialFourier": 1,
  "PatientPosition": "HFS",
  "PercentPhaseFOV": 100,
  "PercentSampling": 100,
  "PhaseEncodingDirection": "j",
  "PhaseEncodingSteps": 104,
  "PhaseResolution": 1,
  "PixelBandwidth": 2290,
  "ProcedureStepDescription": "games^mario",
  "ProtocolName": "func_task-mario_run-02",
  "PulseSequenceDetails": "%CustomerSeq%\\cmrr_mbep2d_bold",
  "ReceiveCoilActiveElements": "HC1-7;NC1,2",
  "ReceiveCoilName": "HeadNeck_64",
  "ReconMatrixPE": 104,
  "RepetitionTime": 1.49,
  "SAR": 0.0388611,
  "ScanOptions": "FS",
  "ScanningSequence": "EP",
  "SequenceName": "epfid2d1_104",
  "SequenceVariant": "SK\\SS",
  "SeriesDescription": "func_task-mario_run-02",
  "SeriesNumber": 14,
  "ShimSetting": [639, -7206, -8818, 704, 65, 6, 59, -19],
  "SliceThickness": 2,
  "SliceTiming": [0, 0.7825, 0.0975, 0.8825, 0.195, 0.98, 0.2925, 1.0775, 0.3925, 1.175, 0.49, 1.2725, 0.5875, 1.3725, 0.685, 0, 0.7825, 0.0975, 0.8825, 0.195, 0.98, 0.2925, 1.0775, 0.3925, 1.175, 0.49, 1.2725, 0.5875, 1.3725, 0.685, 0, 0.7825, 0.0975, 0.8825, 0.195, 0.98, 0.2925, 1.0775, 0.3925, 1.175, 0.49, 1.2725, 0.5875, 1.3725, 0.685, 0, 0.7825, 0.0975, 0.8825, 0.195, 0.98, 0.2925, 1.0775, 0.3925, 1.175, 0.49, 1.2725, 0.5875, 1.3725, 0.685],
  "SoftwareVersions": "syngo MR E11",
  "SpacingBetweenSlices": 2,
  "StationName": "MRC35049",
  "TaskName": "mario",
  "TotalReadoutTime": 0.0576811,
  "TxRefAmp": 213.755,
  "WipMemBlock": "9baa1930-7485-410f-8e17-ad8cdbf54227||Sequence: R016 ve11c/master r/e634e98; Dec 19 2017 11:00:25 by eja",
  "dcmmeta_affine": [
    [-1.999004602432251, -0.04536377266049385, 0.043846823275089264, 109.61256408691406],
    [-0.054625365883111954, 1.939947485923767, -0.4833422899246216, -72.52964782714844],
    [0.031567152589559555, 0.48429930210113525, 1.9402210712432861, -69.46573638916016],
    [0.0, 0.0, 0.0, 1.0]
],
  "dcmmeta_reorient_transform": [
    [0.0, -1.0, 0.0, 103.0],
    [1.0, 0.0, 0.0, 0.0],
    [0.0, 0.0, 1.0, 0.0],
    [0.0, 0.0, 0.0, 1.0]
],
  "dcmmeta_shape": [104, 104, 60, 484],
  "dcmmeta_slice_dim": 2,
  "dcmmeta_version": 0.6,
  "global": {
    "const": {
      "AcquisitionMatrix": [104, 0, 0, 104],
      "AngioFlag": "N",
      "BitsAllocated": 16,
      "BitsStored": 16,
      "BodyPartExamined": "BRAIN",
      "Columns": 832,
      "EchoNumbers": 1,
      "EchoTime": 37.0,
      "EchoTrainLength": 104,
      "FlipAngle": 52.0,
      "HighBit": 15,
      "ImageOrientationPatient": [0.9995023241961, 0.02731268284988, 0.01578357634169, -0.0226818862258, 0.96997375209311, -0.2421496485392],
      "ImagePositionPatient": [-816.06537653374, -853.30946780323, 145.21159495652],
      "ImageType": [
        "ORIGINAL",
        "PRIMARY",
        "P",
        "MB",
        "ND",
        "MOSAIC"
],
      "ImagedNucleus": "1H",
      "ImagingFrequency": 123.258938,
      "InPlanePhaseEncodingDirection": "COL",
      "LargestImagePixelValue": 4095,
      "MRAcquisitionType": "2D",
      "MagneticFieldStrength": 3.0,
      "Manufacturer": "SIEMENS",
      "ManufacturerModelName": "Prisma_fit",
      "Modality": "MR",
      "NumberOfAverages": 1.0,
      "NumberOfPhaseEncodingSteps": 104,
      "PercentPhaseFieldOfView": 100.0,
      "PercentSampling": 100.0,
      "PerformedProcedureStepStartTime": "144744.098000",
      "PhotometricInterpretation": "MONOCHROME2",
      "PixelBandwidth": 2290.0,
      "PixelRepresentation": 0,
      "PixelSpacing": [2.0, 2.0],
      "ProtocolName": "func_task-mario_run-02",
      "RepetitionTime": 1490.0,
      "RescaleIntercept": -4096.0,
      "RescaleSlope": 2.0,
      "RescaleType": "US",
      "Rows": 832,
      "SAR": 0.03886109337521,
      "SamplesPerPixel": 1,
      "ScanOptions": "FS",
      "ScanningSequence": "EP",
      "SequenceName": "epfid2d1_104",
      "SequenceVariant": [
        "SK",
        "SS"
],
      "SeriesDescription": "func_task-mario_run-02",
      "SeriesNumber": 14,
      "SeriesTime": "153358.022000",
      "SliceLocation": -47.458034580081,
      "SliceThickness": 2.0,
      "SmallestImagePixelValue": 0,
      "SoftwareVersions": "syngo MR E11",
      "SpacingBetweenSlices": 2.0000000578796,
      "SpecificCharacterSet": "ISO_IR 100",
      "StudyID": "1",
      "StudyTime": "144744.009000",
      "TransmitCoilName": "Body",
      "VariableFlipAngleFlag": "N",
      "WindowCenterWidthExplanation": "Algo1",
      "dBdt": 0.0},
    "slices": {}
  },
  "time": {
    "samples": {
      "AcquisitionNumber": [1, 2, 3, 4, 5, 6, 7, 8, 9, 10, 11, 12, 13, 14, 15, 16, 17, 18, 19, 20, 21, 22, 23, 24, 25, 26, 27, 28, 29, 30, 31, 32, 33, 34, 35, 36, 37, 38, 39, 40, 41, 42, 43, 44, 45, 46, 47, 48, 49, 50, 51, 52, 53, 54, 55, 56, 57, 58, 59, 60, 61, 62, 63, 64, 65, 66, 67, 68, 69, 70, 71, 72, 73, 74, 75, 76, 77, 78, 79, 80, 81, 82, 83, 84, 85, 86, 87, 88, 89, 90, 91, 92, 93, 94, 95, 96, 97, 98, 99, 100, 101, 102, 103, 104, 105, 106, 107, 108, 109, 110, 111, 112, 113, 114, 115, 116, 117, 118, 119, 120, 121, 122, 123, 124, 125, 126, 127, 128, 129, 130, 131, 132, 133, 134, 135, 136, 137, 138, 139, 140, 141, 142, 143, 144, 145, 146, 147, 148, 149, 150, 151, 152, 153, 154, 155, 156, 157, 158, 159, 160, 161, 162, 163, 164, 165, 166, 167, 168, 169, 170, 171, 172, 173, 174, 175, 176, 177, 178, 179, 180, 181, 182, 183, 184, 185, 186, 187, 188, 189, 190, 191, 192, 193, 194, 195, 196, 197, 198, 199, 200, 201, 202, 203, 204, 205, 206, 207, 208, 209, 210, 211, 212, 213, 214, 215, 216, 217, 218, 219, 220, 221, 222, 223, 224, 225, 226, 227, 228, 229, 230, 231, 232, 233, 234, 235, 236, 237, 238, 239, 240, 241, 242, 243, 244, 245, 246, 247, 248, 249, 250, 251, 252, 253, 254, 255, 256, 257, 258, 259, 260, 261, 262, 263, 264, 265, 266, 267, 268, 269, 270, 271, 272, 273, 274, 275, 276, 277, 278, 279, 280, 281, 282, 283, 284, 285, 286, 287, 288, 289, 290, 291, 292, 293, 294, 295, 296, 297, 298, 299, 300, 301, 302, 303, 304, 305, 306, 307, 308, 309, 310, 311, 312, 313, 314, 315, 316, 317, 318, 319, 320, 321, 322, 323, 324, 325, 326, 327, 328, 329, 330, 331, 332, 333, 334, 335, 336, 337, 338, 339, 340, 341, 342, 343, 344, 345, 346, 347, 348, 349, 350, 351, 352, 353, 354, 355, 356, 357, 358, 359, 360, 361, 362, 363, 364, 365, 366, 367, 368, 369, 370, 371, 372, 373, 374, 375, 376, 377, 378, 379, 380, 381, 382, 383, 384, 385, 386, 387, 388, 389, 390, 391, 392, 393, 394, 395, 396, 397, 398, 399, 400, 401, 402, 403, 404, 405, 406, 407, 408, 409, 410, 411, 412, 413, 414, 415, 416, 417, 418, 419, 420, 421, 422, 423, 424, 425, 426, 427, 428, 429, 430, 431, 432, 433, 434, 435, 436, 437, 438, 439, 440, 441, 442, 443, 444, 445, 446, 447, 448, 449, 450, 451, 452, 453, 454, 455, 456, 457, 458, 459, 460, 461, 462, 463, 464, 465, 466, 467, 468, 469, 470, 471, 472, 473, 474, 475, 476, 477, 478, 479, 480, 481, 482, 483, 484],
      "AcquisitionTime": ["153237.802500", "153239.292500", "153240.782500", "153242.272500", "153243.762500", "153245.252500", "153246.742500", "153248.232500", "153249.722500", "153251.212500", "153252.702500", "153254.192500", "153255.682500", "153257.172500", "153258.662500", "153300.152500", "153301.642500", "153303.132500", "153304.622500", "153306.112500", "153307.602500", "153309.092500", "153310.582500", "153312.072500", "153313.562500", "153315.052500", "153316.542500", "153318.032500", "153319.522500", "153321.012500", "153322.502500", "153323.992500", "153325.482500", "153326.972500", "153328.462500", "153329.952500", "153331.442500", "153332.932500", "153334.422500", "153335.912500", "153337.402500", "153338.892500", "153340.382500", "153341.872500", "153343.362500", "153344.852500", "153346.342500", "153347.832500", "153349.322500", "153350.812500", "153352.302500", "153353.792500", "153355.282500", "153356.772500", "153358.262500", "153359.752500", "153401.242500", "153402.732500", "153404.222500", "153405.712500", "153407.202500", "153408.692500", "153410.182500", "153411.672500", "153413.162500", "153414.652500", "153416.142500", "153417.632500", "153419.122500", "153420.612500", "153422.102500", "153423.592500", "153425.082500", "153426.572500", "153428.062500", "153429.552500", "153431.042500", "153432.532500", "153434.022500", "153435.512500", "153437.002500", "153438.492500", "153439.982500", "153441.472500", "153442.962500", "153444.452500", "153445.942500", "153447.432500", "153448.922500", "153450.412500", "153451.902500", "153453.392500", "153454.882500", "153456.372500", "153457.862500", "153459.352500", "153500.842500", "153502.332500", "153503.822500", "153505.312500", "153506.802500", "153508.292500", "153509.782500", "153511.272500", "153512.762500", "153514.252500", "153515.742500", "153517.232500", "153518.722500", "153520.212500", "153521.702500", "153523.192500", "153524.682500", "153526.172500", "153527.662500", "153529.152500", "153530.642500", "153532.132500", "153533.622500", "153535.112500", "153536.602500", "153538.092500", "153539.582500", "153541.072500", "153542.562500", "153544.052500", "153545.542500", "153547.032500", "153548.522500", "153550.012500", "153551.502500", "153552.992500", "153554.482500", "153555.972500", "153557.462500", "153558.952500", "153600.442500", "153601.932500", "153603.422500", "153604.912500", "153606.402500", "153607.892500", "153609.382500", "153610.872500", "153612.362500", "153613.852500", "153615.342500", "153616.832500", "153618.322500", "153619.812500", "153621.302500", "153622.792500", "153624.282500", "153625.772500", "153627.262500", "153628.752500", "153630.242500", "153631.732500", "153633.222500", "153634.712500", "153636.202500", "153637.692500", "153639.182500", "153640.672500", "153642.162500", "153643.652500", "153645.142500", "153646.632500", "153648.122500", "153649.612500", "153651.102500", "153652.592500", "153654.082500", "153655.572500", "153657.062500", "153658.552500", "153700.042500", "153701.532500", "153703.022500", "153704.512500", "153706.002500", "153707.492500", "153708.982500", "153710.472500", "153711.962500", "153713.452500", "153714.942500", "153716.432500", "153717.922500", "153719.412500", "153720.902500", "153722.392500", "153723.882500", "153725.372500", "153726.862500", "153728.352500", "153729.842500", "153731.332500", "153732.822500", "153734.312500", "153735.802500", "153737.292500", "153738.782500", "153740.272500", "153741.762500", "153743.252500", "153744.742500", "153746.232500", "153747.722500", "153749.212500", "153750.702500", "153752.192500", "153753.682500", "153755.172500", "153756.662500", "153758.152500", "153759.642500", "153801.132500", "153802.622500", "153804.112500", "153805.602500", "153807.092500", "153808.582500", "153810.072500", "153811.562500", "153813.052500", "153814.542500", "153816.032500", "153817.522500", "153819.012500", "153820.502500", "153821.992500", "153823.482500", "153824.972500", "153826.462500", "153827.952500", "153829.442500", "153830.932500", "153832.422500", "153833.912500", "153835.402500", "153836.892500", "153838.382500", "153839.872500", "153841.362500", "153842.852500", "153844.342500", "153845.832500", "153847.322500", "153848.812500", "153850.302500", "153851.792500", "153853.282500", "153854.772500", "153856.262500", "153857.752500", "153859.242500", "153900.732500", "153902.222500", "153903.712500", "153905.202500", "153906.692500", "153908.182500", "153909.672500", "153911.162500", "153912.652500", "153914.142500", "153915.632500", "153917.122500", "153918.612500", "153920.102500", "153921.592500", "153923.082500", "153924.572500", "153926.062500", "153927.552500", "153929.042500", "153930.532500", "153932.022500", "153933.512500", "153935.002500", "153936.492500", "153937.982500", "153939.472500", "153940.962500", "153942.452500", "153943.942500", "153945.432500", "153946.922500", "153948.412500", "153949.902500", "153951.392500", "153952.882500", "153954.372500", "153955.862500", "153957.352500", "153958.842500", "154000.332500", "154001.822500", "154003.312500", "154004.802500", "154006.292500", "154007.782500", "154009.272500", "154010.762500", "154012.252500", "154013.742500", "154015.232500", "154016.722500", "154018.212500", "154019.702500", "154021.192500", "154022.682500", "154024.172500", "154025.662500", "154027.152500", "154028.642500", "154030.132500", "154031.622500", "154033.112500", "154034.602500", "154036.092500", "154037.582500", "154039.072500", "154040.562500", "154042.052500", "154043.542500", "154045.032500", "154046.522500", "154048.012500", "154049.502500", "154050.992500", "154052.482500", "154053.972500", "154055.462500", "154056.952500", "154058.442500", "154059.932500", "154101.422500", "154102.912500", "154104.402500", "154105.892500", "154107.382500", "154108.872500", "154110.362500", "154111.852500", "154113.342500", "154114.832500", "154116.322500", "154117.812500", "154119.302500", "154120.792500", "154122.282500", "154123.772500", "154125.262500", "154126.752500", "154128.242500", "154129.732500", "154131.222500", "154132.712500", "154134.202500", "154135.692500", "154137.182500", "154138.672500", "154140.162500", "154141.652500", "154143.142500", "154144.632500", "154146.122500", "154147.612500", "154149.102500", "154150.592500", "154152.082500", "154153.572500", "154155.062500", "154156.552500", "154158.042500", "154159.532500", "154201.022500", "154202.512500", "154204.002500", "154205.492500", "154206.982500", "154208.472500", "154209.962500", "154211.452500", "154212.942500", "154214.432500", "154215.922500", "154217.412500", "154218.902500", "154220.392500", "154221.882500", "154223.372500", "154224.862500", "154226.352500", "154227.842500", "154229.332500", "154230.822500", "154232.312500", "154233.802500", "154235.292500", "154236.782500", "154238.272500", "154239.762500", "154241.252500", "154242.742500", "154244.232500", "154245.722500", "154247.212500", "154248.702500", "154250.192500", "154251.682500", "154253.172500", "154254.662500", "154256.152500", "154257.642500", "154259.132500", "154300.622500", "154302.112500", "154303.602500", "154305.092500", "154306.582500", "154308.072500", "154309.562500", "154311.052500", "154312.542500", "154314.032500", "154315.522500", "154317.012500", "154318.502500", "154319.992500", "154321.482500", "154322.972500", "154324.462500", "154325.952500", "154327.442500", "154328.932500", "154330.422500", "154331.912500", "154333.402500", "154334.892500", "154336.382500", "154337.872500", "154339.362500", "154340.852500", "154342.342500", "154343.832500", "154345.322500", "154346.812500", "154348.302500", "154349.792500", "154351.282500", "154352.772500", "154354.262500", "154355.752500", "154357.242500", "154358.732500", "154400.222500", "154401.712500", "154403.202500", "154404.692500", "154406.182500", "154407.672500", "154409.162500", "154410.652500", "154412.142500", "154413.632500", "154415.122500", "154416.612500", "154418.102500", "154419.592500", "154421.082500", "154422.572500", "154424.062500", "154425.552500", "154427.042500", "154428.532500", "154430.022500", "154431.512500", "154433.002500", "154434.492500", "154435.982500", "154437.472500"],
      "ContentTime": ["153358.024000", "153358.027000", "153358.029000", "153358.031000", "153358.034000", "153358.036000", "153358.039000", "153358.041000", "153358.044000", "153358.046000", "153358.049000", "153358.058000", "153358.061000", "153358.063000", "153358.066000", "153358.068000", "153358.071000", "153358.073000", "153358.076000", "153358.078000", "153358.081000", "153358.083000", "153358.086000", "153358.088000", "153358.091000", "153358.093000", "153418.266000", "153418.269000", "153418.277000", "153418.279000", "153418.282000", "153418.284000", "153418.287000", "153418.289000", "153418.300000", "153418.303000", "153418.305000", "153418.308000", "153418.310000", "153418.313000", "153418.315000", "153418.318000", "153418.320000", "153418.323000", "153418.325000", "153418.327000", "153437.963000", "153437.966000", "153437.968000", "153437.970000", "153437.973000", "153437.976000", "153437.978000", "153437.980000", "153437.983000", "153437.985000", "153437.988000", "153437.990000", "153437.993000", "153437.995000", "153437.998000", "153438.001000", "153438.004000", "153438.006000", "153438.009000", "153438.011000", "153438.014000", "153457.969000", "153457.971000", "153457.974000", "153457.977000", "153457.983000", "153457.985000", "153457.988000", "153457.990000", "153457.992000", "153457.995000", "153457.997000", "153458.001000", "153458.003000", "153458.006000", "153458.008000", "153458.011000", "153458.013000", "153458.016000", "153458.018000", "153458.020000", "153517.962000", "153517.965000", "153517.967000", "153517.970000", "153517.972000", "153517.975000", "153517.977000", "153517.979000", "153517.982000", "153517.984000", "153517.987000", "153517.989000", "153517.992000", "153517.994000", "153517.997000", "153518.000000", "153518.003000", "153518.005000", "153518.008000", "153518.010000", "153557.992000", "153557.995000", "153557.998000", "153558.001000", "153558.004000", "153558.006000", "153558.008000", "153558.011000", "153558.013000", "153558.016000", "153558.018000", "153558.021000", "153558.023000", "153558.025000", "153558.028000", "153558.031000", "153558.033000", "153558.035000", "153558.038000", "153558.040000", "153558.053000", "153558.056000", "153558.058000", "153558.061000", "153558.063000", "153558.066000", "153558.068000", "153637.988000", "153637.991000", "153637.993000", "153637.996000", "153637.998000", "153638.002000", "153638.004000", "153638.007000", "153638.009000", "153638.012000", "153638.014000", "153638.017000", "153638.019000", "153638.022000", "153638.024000", "153638.027000", "153638.029000", "153638.032000", "153638.034000", "153638.037000", "153638.039000", "153638.042000", "153638.044000", "153638.046000", "153638.049000", "153638.051000", "153717.997000", "153718.001000", "153718.003000", "153718.006000", "153718.008000", "153718.011000", "153718.013000", "153718.016000", "153718.018000", "153718.021000", "153718.023000", "153718.026000", "153718.028000", "153718.031000", "153718.033000", "153718.036000", "153718.038000", "153718.041000", "153718.043000", "153718.046000", "153718.048000", "153718.051000", "153718.053000", "153718.056000", "153718.058000", "153718.061000", "153718.063000", "153758.009000", "153758.012000", "153758.014000", "153758.017000", "153758.019000", "153758.022000", "153758.024000", "153758.027000", "153758.029000", "153758.032000", "153758.034000", "153758.037000", "153758.039000", "153758.042000", "153758.044000", "153758.047000", "153758.049000", "153758.051000", "153758.054000", "153758.056000", "153758.059000", "153758.061000", "153758.064000", "153758.066000", "153758.069000", "153758.071000", "153758.074000", "153837.994000", "153837.996000", "153838.000000", "153838.003000", "153838.006000", "153838.008000", "153838.011000", "153838.013000", "153838.016000", "153838.018000", "153838.021000", "153838.023000", "153838.026000", "153838.028000", "153838.031000", "153838.033000", "153838.036000", "153838.038000", "153838.041000", "153838.043000", "153838.046000", "153838.048000", "153838.051000", "153838.053000", "153838.056000", "153838.058000", "153838.061000", "153917.997000", "153918.000000", "153918.002000", "153918.005000", "153918.007000", "153918.010000", "153918.012000", "153918.015000", "153918.017000", "153918.020000", "153918.022000", "153918.025000", "153918.027000", "153918.030000", "153918.032000", "153918.035000", "153918.037000", "153918.040000", "153918.042000", "153918.045000", "153918.047000", "153918.050000", "153918.052000", "153918.055000", "153918.057000", "153918.060000", "153918.062000", "153957.988000", "153957.990000", "153957.993000", "153957.996000", "153957.998000", "153958.002000", "153958.004000", "153958.007000", "153958.009000", "153958.012000", "153958.014000", "153958.017000", "153958.019000", "153958.022000", "153958.024000", "153958.027000", "153958.029000", "153958.032000", "153958.034000", "153958.037000", "153958.039000", "153958.042000", "153958.044000", "153958.047000", "153958.049000", "153958.052000", "153958.054000", "154037.995000", "154037.998000", "154038.002000", "154038.004000", "154038.007000", "154038.009000", "154038.012000", "154038.014000", "154038.017000", "154038.019000", "154038.022000", "154038.024000", "154038.027000", "154038.030000", "154038.032000", "154038.035000", "154038.037000", "154038.040000", "154038.042000", "154038.045000", "154038.047000", "154038.050000", "154038.052000", "154038.055000", "154038.057000", "154038.060000", "154038.062000", "154117.998000", "154118.002000", "154118.005000", "154118.008000", "154118.010000", "154118.013000", "154118.015000", "154118.018000", "154118.020000", "154118.023000", "154118.025000", "154118.028000", "154118.030000", "154118.033000", "154118.035000", "154118.038000", "154118.040000", "154118.043000", "154118.045000", "154118.048000", "154118.051000", "154118.053000", "154118.055000", "154118.058000", "154118.060000", "154118.063000", "154157.989000", "154157.992000", "154157.995000", "154157.997000", "154158.001000", "154158.003000", "154158.006000", "154158.008000", "154158.011000", "154158.013000", "154158.016000", "154158.018000", "154158.021000", "154158.023000", "154158.026000", "154158.028000", "154158.031000", "154158.033000", "154158.036000", "154158.039000", "154158.041000", "154158.044000", "154158.046000", "154158.049000", "154158.051000", "154158.054000", "154158.056000", "154217.937000", "154217.940000", "154217.942000", "154217.945000", "154217.947000", "154217.950000", "154217.960000", "154217.963000", "154217.965000", "154217.968000", "154217.970000", "154217.973000", "154217.975000", "154217.978000", "154257.985000", "154257.988000", "154257.990000", "154257.993000", "154257.995000", "154258.005000", "154258.007000", "154258.010000", "154258.012000", "154258.015000", "154258.018000", "154258.020000", "154258.022000", "154258.025000", "154258.027000", "154258.030000", "154258.032000", "154258.035000", "154258.038000", "154258.040000", "154258.042000", "154258.045000", "154258.048000", "154258.050000", "154258.053000", "154258.055000", "154258.058000", "154338.000000", "154338.003000", "154338.005000", "154338.008000", "154338.011000", "154338.013000", "154338.016000", "154338.018000", "154338.021000", "154338.024000", "154338.026000", "154338.028000", "154338.031000", "154338.033000", "154338.036000", "154338.039000", "154338.042000", "154338.046000", "154338.049000", "154338.051000", "154338.054000", "154338.056000", "154338.060000", "154338.063000", "154338.065000", "154338.068000", "154418.312000", "154418.315000", "154418.317000", "154418.320000", "154418.323000", "154418.325000", "154418.328000", "154418.330000", "154418.333000", "154418.335000", "154418.338000", "154418.340000", "154418.343000", "154418.345000", "154418.348000", "154418.350000", "154418.353000", "154418.355000", "154418.358000", "154418.361000", "154418.363000", "154418.366000", "154418.368000", "154418.371000", "154418.373000", "154418.376000", "154418.378000", "154440.455000", "154440.457000", "154440.460000", "154440.462000", "154440.465000", "154440.468000", "154440.470000", "154440.472000", "154440.475000", "154440.478000", "154440.480000", "154440.483000", "154440.485000", "154440.488000", "154440.490000"],
