{
  "AcquisitionMatrixPE": 104,
  "AcquisitionNumber": 1,
  "AcquisitionTime": "16:02:18.862500",
  "BandwidthPerPixelPhaseEncode": 17.17,
  "BaseResolution": 104,
  "BodyPartExamined": "BRAIN",
  "CoilString": "HC1-7;NC1_2",
  "ConsistencyInfo": "N4_VE11C_LATEST_20160120",
  "ConversionSoftware": "dcm2niix",
  "ConversionSoftwareVersion": "v1.0.20190902",
  "DerivedVendorReportedEchoSpacing": 0.000560011,
  "DeviceSerialNumber": "167006",
  "DwellTime": 2.1e-06,
  "EchoTime": 0.037,
  "EchoTrainLength": 104,
  "EffectiveEchoSpacing": 0.000560011,
  "FlipAngle": 52,
  "HeudiconvVersion": "0.10.0",
  "ImageComments": "Unaliased_MB4_PE3_LB",
  "ImageOrientationPatientDICOM": [0.998997, -0.0322027, 0.031118, 0.0406477, 0.943677, -0.328362],
  "ImageType": [
    "ORIGINAL",
    "PRIMARY",
    "M",
    "MB",
    "ND",
    "MOSAIC"
],
  "ImagingFrequency": 123.259,
  "InPlanePhaseEncodingDirectionDICOM": "COL",
  "InstitutionAddress": "Chemin_Queen-Mary_4565_Montreal_District_CA_H3W_1W5",
  "InstitutionName": "IUGM",
  "InstitutionalDepartmentName": "Department",
  "MRAcquisitionType": "2D",
  "MagneticFieldStrength": 3,
  "Manufacturer": "Siemens",
  "ManufacturersModelName": "Prisma_fit",
  "Modality": "MR",
  "MultibandAccelerationFactor": 4,
  "PartialFourier": 1,
  "PatientPosition": "HFS",
  "PercentPhaseFOV": 100,
  "PhaseEncodingDirection": "j",
  "PhaseEncodingSteps": 104,
  "PhaseResolution": 1,
  "PixelBandwidth": 2290,
  "ProcedureStepDescription": "games_mario",
  "ProtocolName": "func_task-mario_run-03",
  "PulseSequenceDetails": "%CustomerSeq%_cmrr_mbep2d_bold",
  "ReceiveCoilActiveElements": "HC1-7;NC1,2",
  "ReceiveCoilName": "HeadNeck_64",
  "ReconMatrixPE": 104,
  "RepetitionTime": 1.49,
  "SAR": 0.0426327,
  "ScanOptions": "FS",
  "ScanningSequence": "EP",
  "SequenceName": "epfid2d1_104",
  "SequenceVariant": "SK_SS",
  "SeriesDescription": "func_task-mario_run-03",
  "SeriesNumber": 16,
  "ShimSetting": [630, -7252, -8802, 622, -2, -202, -82, -30],
  "SliceThickness": 2,
  "SliceTiming": [0, 0.785, 0.1, 0.8825, 0.1975, 0.98, 0.295, 1.08, 0.3925, 1.1775, 0.49, 1.275, 0.59, 1.3725, 0.6875, 0, 0.785, 0.1, 0.8825, 0.1975, 0.98, 0.295, 1.08, 0.3925, 1.1775, 0.49, 1.275, 0.59, 1.3725, 0.6875, 0, 0.785, 0.1, 0.8825, 0.1975, 0.98, 0.295, 1.08, 0.3925, 1.1775, 0.49, 1.275, 0.59, 1.3725, 0.6875, 0, 0.785, 0.1, 0.8825, 0.1975, 0.98, 0.295, 1.08, 0.3925, 1.1775, 0.49, 1.275, 0.59, 1.3725, 0.6875],
  "SoftwareVersions": "syngo_MR_E11",
  "SpacingBetweenSlices": 2,
  "StationName": "MRC35049",
  "TaskName": "mario",
  "TotalReadoutTime": 0.0576811,
  "TxRefAmp": 236.165,
  "WipMemBlock": "658882d1-28d1-46a9-b6a0-832caca52770||Sequence: R016 ve11c/master r/e634e98; Dec 19 2017 11:00:25 by eja",
  "dcmmeta_affine": [
    [-1.9979935884475708, 0.0812954232096672, 0.037582479417324066, 101.6802978515625],
    [0.06440543383359909, 1.8873541355133057, -0.6585943102836609, -68.84952545166016],
    [0.06223607435822487, 0.6567233204841614, 1.8880786895751953, -60.62521743774414],
    [0.0, 0.0, 0.0, 1.0]
],
  "dcmmeta_reorient_transform": [
    [0.0, -1.0, 0.0, 103.0],
    [1.0, 0.0, 0.0, 0.0],
    [0.0, 0.0, 1.0, 0.0],
    [0.0, 0.0, 0.0, 1.0]
],
  "dcmmeta_shape": [104, 104, 60, 481],
  "dcmmeta_slice_dim": 2,
  "dcmmeta_version": 0.6,
  "global": {
    "const": {
      "AcquisitionMatrix": [104, 0, 0, 104],
      "AngioFlag": "N",
      "BitsAllocated": 16,
      "BitsStored": 16,
      "BodyPartExamined": "BRAIN",
      "Columns": 832,
      "EchoNumbers": 1,
      "EchoTime": 37.0,
      "EchoTrainLength": 104,
      "FlipAngle": 52.0,
      "HighBit": 15,
      "ImageOrientationPatient": [0.99899682318838, -0.032202717924, 0.03111803685696, 0.04064771331996, 0.94367705066827, -0.3283616717035],
      "ImagePositionPatient": [-866.91495062395, -789.10125871956, 223.41065469278],
      "ImageType": [
        "ORIGINAL",
        "PRIMARY",
        "M",
        "MB",
        "ND",
        "MOSAIC"
],
      "ImagedNucleus": "1H",
      "ImagingFrequency": 123.258882,
      "InPlanePhaseEncodingDirection": "COL",
      "MRAcquisitionType": "2D",
      "MagneticFieldStrength": 3.0,
      "Manufacturer": "SIEMENS",
      "ManufacturerModelName": "Prisma_fit",
      "Modality": "MR",
      "NumberOfAverages": 1.0,
      "NumberOfPhaseEncodingSteps": 104,
      "PercentPhaseFieldOfView": 100.0,
      "PercentSampling": 100.0,
      "PerformedProcedureStepStartTime": "150739.144000",
      "PhotometricInterpretation": "MONOCHROME2",
      "PixelBandwidth": 2290.0,
      "PixelRepresentation": 0,
      "PixelSpacing": [2.0, 2.0],
      "ProtocolName": "func_task-mario_run-03",
      "RepetitionTime": 1490.0,
      "Rows": 832,
      "SAR": 0.04263272139414,
      "SamplesPerPixel": 1,
      "ScanOptions": "FS",
      "ScanningSequence": "EP",
      "SequenceName": "epfid2d1_104",
      "SequenceVariant": [
        "SK",
        "SS"
],
      "SeriesDescription": "func_task-mario_run-03",
      "SeriesNumber": 16,
      "SeriesTime": "160338.095000",
      "SliceLocation": -32.649937197355,
      "SliceThickness": 2.0,
      "SmallestImagePixelValue": 0,
      "SoftwareVersions": "syngo MR E11",
      "SpacingBetweenSlices": 2.0000000415183,
      "SpecificCharacterSet": "ISO_IR 100",
      "StudyID": "1",
      "StudyTime": "150739.088000",
      "TransmitCoilName": "Body",
      "VariableFlipAngleFlag": "N",
      "WindowCenterWidthExplanation": "Algo1",
      "dBdt": 0.0},
    "slices": {}
  },
  "time": {
    "samples": {
      "AcquisitionNumber": [1, 2, 3, 4, 5, 6, 7, 8, 9, 10, 11, 12, 13, 14, 15, 16, 17, 18, 19, 20, 21, 22, 23, 24, 25, 26, 27, 28, 29, 30, 31, 32, 33, 34, 35, 36, 37, 38, 39, 40, 41, 42, 43, 44, 45, 46, 47, 48, 49, 50, 51, 52, 53, 54, 55, 56, 57, 58, 59, 60, 61, 62, 63, 64, 65, 66, 67, 68, 69, 70, 71, 72, 73, 74, 75, 76, 77, 78, 79, 80, 81, 82, 83, 84, 85, 86, 87, 88, 89, 90, 91, 92, 93, 94, 95, 96, 97, 98, 99, 100, 101, 102, 103, 104, 105, 106, 107, 108, 109, 110, 111, 112, 113, 114, 115, 116, 117, 118, 119, 120, 121, 122, 123, 124, 125, 126, 127, 128, 129, 130, 131, 132, 133, 134, 135, 136, 137, 138, 139, 140, 141, 142, 143, 144, 145, 146, 147, 148, 149, 150, 151, 152, 153, 154, 155, 156, 157, 158, 159, 160, 161, 162, 163, 164, 165, 166, 167, 168, 169, 170, 171, 172, 173, 174, 175, 176, 177, 178, 179, 180, 181, 182, 183, 184, 185, 186, 187, 188, 189, 190, 191, 192, 193, 194, 195, 196, 197, 198, 199, 200, 201, 202, 203, 204, 205, 206, 207, 208, 209, 210, 211, 212, 213, 214, 215, 216, 217, 218, 219, 220, 221, 222, 223, 224, 225, 226, 227, 228, 229, 230, 231, 232, 233, 234, 235, 236, 237, 238, 239, 240, 241, 242, 243, 244, 245, 246, 247, 248, 249, 250, 251, 252, 253, 254, 255, 256, 257, 258, 259, 260, 261, 262, 263, 264, 265, 266, 267, 268, 269, 270, 271, 272, 273, 274, 275, 276, 277, 278, 279, 280, 281, 282, 283, 284, 285, 286, 287, 288, 289, 290, 291, 292, 293, 294, 295, 296, 297, 298, 299, 300, 301, 302, 303, 304, 305, 306, 307, 308, 309, 310, 311, 312, 313, 314, 315, 316, 317, 318, 319, 320, 321, 322, 323, 324, 325, 326, 327, 328, 329, 330, 331, 332, 333, 334, 335, 336, 337, 338, 339, 340, 341, 342, 343, 344, 345, 346, 347, 348, 349, 350, 351, 352, 353, 354, 355, 356, 357, 358, 359, 360, 361, 362, 363, 364, 365, 366, 367, 368, 369, 370, 371, 372, 373, 374, 375, 376, 377, 378, 379, 380, 381, 382, 383, 384, 385, 386, 387, 388, 389, 390, 391, 392, 393, 394, 395, 396, 397, 398, 399, 400, 401, 402, 403, 404, 405, 406, 407, 408, 409, 410, 411, 412, 413, 414, 415, 416, 417, 418, 419, 420, 421, 422, 423, 424, 425, 426, 427, 428, 429, 430, 431, 432, 433, 434, 435, 436, 437, 438, 439, 440, 441, 442, 443, 444, 445, 446, 447, 448, 449, 450, 451, 452, 453, 454, 455, 456, 457, 458, 459, 460, 461, 462, 463, 464, 465, 466, 467, 468, 469, 470, 471, 472, 473, 474, 475, 476, 477, 478, 479, 480, 481],
      "AcquisitionTime": ["160218.862500", "160220.352500", "160221.842500", "160223.332500", "160224.822500", "160226.312500", "160227.802500", "160229.292500", "160230.782500", "160232.272500", "160233.762500", "160235.252500", "160236.742500", "160238.232500", "160239.722500", "160241.212500", "160242.702500", "160244.192500", "160245.682500", "160247.172500", "160248.662500", "160250.152500", "160251.642500", "160253.132500", "160254.622500", "160256.112500", "160257.602500", "160259.092500", "160300.582500", "160302.072500", "160303.562500", "160305.052500", "160306.542500", "160308.032500", "160309.522500", "160311.012500", "160312.502500", "160313.992500", "160315.482500", "160316.972500", "160318.462500", "160319.952500", "160321.442500", "160322.932500", "160324.422500", "160325.912500", "160327.402500", "160328.892500", "160330.382500", "160331.872500", "160333.362500", "160334.852500", "160336.342500", "160337.832500", "160339.322500", "160340.812500", "160342.302500", "160343.792500", "160345.282500", "160346.772500", "160348.262500", "160349.752500", "160351.242500", "160352.732500", "160354.222500", "160355.712500", "160357.202500", "160358.692500", "160400.182500", "160401.672500", "160403.162500", "160404.652500", "160406.142500", "160407.632500", "160409.122500", "160410.612500", "160412.102500", "160413.592500", "160415.082500", "160416.572500", "160418.062500", "160419.552500", "160421.042500", "160422.532500", "160424.022500", "160425.512500", "160427.002500", "160428.492500", "160429.982500", "160431.472500", "160432.962500", "160434.452500", "160435.942500", "160437.432500", "160438.922500", "160440.412500", "160441.902500", "160443.392500", "160444.882500", "160446.372500", "160447.862500", "160449.352500", "160450.842500", "160452.332500", "160453.822500", "160455.312500", "160456.802500", "160458.292500", "160459.782500", "160501.272500", "160502.762500", "160504.252500", "160505.742500", "160507.232500", "160508.722500", "160510.212500", "160511.702500", "160513.192500", "160514.682500", "160516.172500", "160517.662500", "160519.152500", "160520.642500", "160522.132500", "160523.622500", "160525.112500", "160526.602500", "160528.092500", "160529.582500", "160531.072500", "160532.562500", "160534.052500", "160535.542500", "160537.032500", "160538.522500", "160540.012500", "160541.502500", "160542.992500", "160544.482500", "160545.972500", "160547.462500", "160548.952500", "160550.442500", "160551.932500", "160553.422500", "160554.912500", "160556.402500", "160557.892500", "160559.382500", "160600.872500", "160602.362500", "160603.852500", "160605.342500", "160606.832500", "160608.322500", "160609.812500", "160611.302500", "160612.792500", "160614.282500", "160615.772500", "160617.262500", "160618.752500", "160620.242500", "160621.732500", "160623.222500", "160624.712500", "160626.202500", "160627.692500", "160629.182500", "160630.672500", "160632.162500", "160633.652500", "160635.142500", "160636.632500", "160638.122500", "160639.612500", "160641.102500", "160642.592500", "160644.082500", "160645.572500", "160647.062500", "160648.552500", "160650.042500", "160651.532500", "160653.022500", "160654.512500", "160656.002500", "160657.492500", "160658.982500", "160700.472500", "160701.962500", "160703.452500", "160704.942500", "160706.432500", "160707.922500", "160709.412500", "160710.902500", "160712.392500", "160713.882500", "160715.372500", "160716.862500", "160718.352500", "160719.842500", "160721.332500", "160722.822500", "160724.312500", "160725.802500", "160727.292500", "160728.782500", "160730.272500", "160731.762500", "160733.252500", "160734.742500", "160736.232500", "160737.722500", "160739.212500", "160740.702500", "160742.192500", "160743.682500", "160745.172500", "160746.662500", "160748.152500", "160749.642500", "160751.132500", "160752.622500", "160754.112500", "160755.602500", "160757.092500", "160758.582500", "160800.072500", "160801.562500", "160803.052500", "160804.542500", "160806.032500", "160807.522500", "160809.012500", "160810.502500", "160811.992500", "160813.482500", "160814.972500", "160816.462500", "160817.952500", "160819.442500", "160820.932500", "160822.422500", "160823.912500", "160825.402500", "160826.892500", "160828.382500", "160829.872500", "160831.362500", "160832.852500", "160834.342500", "160835.832500", "160837.322500", "160838.812500", "160840.302500", "160841.792500", "160843.282500", "160844.772500", "160846.262500", "160847.752500", "160849.242500", "160850.732500", "160852.222500", "160853.712500", "160855.202500", "160856.692500", "160858.182500", "160859.672500", "160901.162500", "160902.652500", "160904.142500", "160905.632500", "160907.122500", "160908.612500", "160910.102500", "160911.592500", "160913.082500", "160914.572500", "160916.062500", "160917.552500", "160919.042500", "160920.532500", "160922.022500", "160923.512500", "160925.002500", "160926.492500", "160927.982500", "160929.472500", "160930.962500", "160932.452500", "160933.942500", "160935.432500", "160936.922500", "160938.412500", "160939.902500", "160941.392500", "160942.882500", "160944.372500", "160945.862500", "160947.352500", "160948.842500", "160950.332500", "160951.822500", "160953.312500", "160954.802500", "160956.292500", "160957.782500", "160959.272500", "161000.762500", "161002.252500", "161003.742500", "161005.232500", "161006.722500", "161008.212500", "161009.702500", "161011.192500", "161012.682500", "161014.172500", "161015.662500", "161017.152500", "161018.642500", "161020.132500", "161021.622500", "161023.112500", "161024.602500", "161026.092500", "161027.582500", "161029.072500", "161030.562500", "161032.052500", "161033.542500", "161035.032500", "161036.522500", "161038.012500", "161039.502500", "161040.992500", "161042.482500", "161043.972500", "161045.462500", "161046.952500", "161048.442500", "161049.932500", "161051.422500", "161052.912500", "161054.402500", "161055.892500", "161057.382500", "161058.872500", "161100.362500", "161101.852500", "161103.342500", "161104.832500", "161106.322500", "161107.812500", "161109.302500", "161110.792500", "161112.282500", "161113.772500", "161115.262500", "161116.752500", "161118.242500", "161119.732500", "161121.222500", "161122.712500", "161124.202500", "161125.692500", "161127.182500", "161128.672500", "161130.162500", "161131.652500", "161133.142500", "161134.632500", "161136.122500", "161137.612500", "161139.102500", "161140.592500", "161142.082500", "161143.572500", "161145.062500", "161146.552500", "161148.042500", "161149.532500", "161151.022500", "161152.512500", "161154.002500", "161155.492500", "161156.982500", "161158.472500", "161159.962500", "161201.452500", "161202.942500", "161204.432500", "161205.922500", "161207.412500", "161208.902500", "161210.392500", "161211.882500", "161213.372500", "161214.862500", "161216.352500", "161217.842500", "161219.332500", "161220.822500", "161222.312500", "161223.802500", "161225.292500", "161226.782500", "161228.272500", "161229.762500", "161231.252500", "161232.742500", "161234.232500", "161235.722500", "161237.212500", "161238.702500", "161240.192500", "161241.682500", "161243.172500", "161244.662500", "161246.152500", "161247.642500", "161249.132500", "161250.622500", "161252.112500", "161253.602500", "161255.092500", "161256.582500", "161258.072500", "161259.562500", "161301.052500", "161302.542500", "161304.032500", "161305.522500", "161307.012500", "161308.502500", "161309.992500", "161311.482500", "161312.972500", "161314.462500", "161315.952500", "161317.442500", "161318.932500", "161320.422500", "161321.912500", "161323.402500", "161324.892500", "161326.382500", "161327.872500", "161329.362500", "161330.852500", "161332.342500", "161333.832500", "161335.322500", "161336.812500", "161338.302500", "161339.792500", "161341.282500", "161342.772500", "161344.262500", "161345.752500", "161347.242500", "161348.732500", "161350.222500", "161351.712500", "161353.202500", "161354.692500", "161356.182500", "161357.672500", "161359.162500", "161400.652500", "161402.142500", "161403.632500", "161405.122500", "161406.612500", "161408.102500", "161409.592500", "161411.082500", "161412.572500", "161414.062500"],
      "ContentTime": ["160338.098000", "160338.107000", "160338.110000", "160338.114000", "160338.117000", "160338.121000", "160338.124000", "160338.127000", "160338.131000", "160338.134000", "160338.137000", "160338.141000", "160338.144000", "160338.148000", "160338.151000", "160338.154000", "160338.158000", "160338.161000", "160338.164000", "160338.168000", "160338.171000", "160338.178000", "160338.181000", "160338.185000", "160338.188000", "160338.191000", "160358.054000", "160358.058000", "160358.061000", "160358.065000", "160358.068000", "160358.071000", "160358.075000", "160358.078000", "160358.082000", "160358.085000", "160358.088000", "160358.092000", "160358.095000", "160358.098000", "160358.102000", "160358.105000", "160358.108000", "160358.112000", "160358.115000", "160358.118000", "160418.053000", "160418.057000", "160418.060000", "160418.064000", "160418.067000", "160418.070000", "160418.074000", "160418.077000", "160418.080000", "160418.084000", "160418.088000", "160418.091000", "160418.095000", "160418.098000", "160418.101000", "160418.105000", "160418.108000", "160418.131000", "160418.135000", "160418.138000", "160438.053000", "160438.057000", "160438.060000", "160438.064000", "160438.067000", "160438.070000", "160438.074000", "160438.088000", "160438.091000", "160438.095000", "160438.098000", "160438.101000", "160438.104000", "160438.108000", "160438.111000", "160438.115000", "160438.118000", "160438.121000", "160438.125000", "160438.128000", "160458.053000", "160458.057000", "160458.060000", "160458.064000", "160458.067000", "160458.070000", "160458.074000", "160458.077000", "160458.080000", "160458.084000", "160458.087000", "160458.090000", "160458.094000", "160458.097000", "160458.100000", "160458.104000", "160458.107000", "160458.111000", "160458.114000", "160458.117000", "160538.054000", "160538.058000", "160538.061000", "160538.065000", "160538.068000", "160538.071000", "160538.075000", "160538.078000", "160538.081000", "160538.085000", "160538.088000", "160538.091000", "160538.095000", "160538.098000", "160538.101000", "160538.105000", "160538.108000", "160538.111000", "160538.115000", "160538.118000", "160538.121000", "160538.132000", "160538.135000", "160538.139000", "160538.142000", "160538.146000", "160538.149000", "160618.054000", "160618.058000", "160618.061000", "160618.065000", "160618.068000", "160618.072000", "160618.076000", "160618.079000", "160618.083000", "160618.086000", "160618.089000", "160618.093000", "160618.096000", "160618.099000", "160618.103000", "160618.106000", "160618.109000", "160618.113000", "160618.116000", "160618.119000", "160618.123000", "160618.126000", "160618.130000", "160618.133000", "160618.136000", "160618.140000", "160638.053000", "160638.057000", "160638.060000", "160638.064000", "160638.067000", "160638.071000", "160638.074000", "160638.077000", "160638.081000", "160638.084000", "160638.087000", "160638.091000", "160638.094000", "160638.097000", "160718.053000", "160718.058000", "160718.061000", "160718.065000", "160718.068000", "160718.071000", "160718.075000", "160718.078000", "160718.082000", "160718.085000", "160718.088000", "160718.092000", "160718.095000", "160718.099000", "160718.102000", "160718.105000", "160718.109000", "160718.112000", "160718.115000", "160718.119000", "160718.122000", "160718.126000", "160718.129000", "160718.132000", "160718.136000", "160718.139000", "160718.142000", "160758.054000", "160758.058000", "160758.061000", "160758.065000", "160758.068000", "160758.071000", "160758.075000", "160758.078000", "160758.082000", "160758.085000", "160758.088000", "160758.091000", "160758.095000", "160758.098000", "160758.102000", "160758.105000", "160758.109000", "160758.112000", "160758.116000", "160758.119000", "160758.122000", "160758.126000", "160758.129000", "160758.132000", "160758.136000", "160758.139000", "160758.142000", "160838.054000", "160838.058000", "160838.062000", "160838.065000", "160838.068000", "160838.072000", "160838.075000", "160838.079000", "160838.082000", "160838.085000", "160838.089000", "160838.092000", "160838.095000", "160838.099000", "160838.102000", "160838.105000", "160838.109000", "160838.112000", "160838.116000", "160838.119000", "160838.122000", "160838.125000", "160838.129000", "160838.133000", "160838.137000", "160838.140000", "160918.053000", "160918.057000", "160918.061000", "160918.064000", "160918.067000", "160918.071000", "160918.074000", "160918.078000", "160918.081000", "160918.085000", "160918.088000", "160918.091000", "160918.095000", "160918.098000", "160918.102000", "160918.105000", "160918.108000", "160918.112000", "160918.115000", "160918.118000", "160918.122000", "160918.125000", "160918.147000", "160918.151000", "160918.154000", "160918.157000", "160918.161000", "160958.054000", "160958.058000", "160958.061000", "160958.065000", "160958.068000", "160958.071000", "160958.075000", "160958.085000", "160958.088000", "160958.091000", "160958.095000", "160958.098000", "160958.102000", "160958.105000", "160958.108000", "160958.112000", "160958.115000", "160958.118000", "160958.122000", "160958.125000", "160958.129000", "160958.132000", "160958.135000", "160958.139000", "160958.142000", "160958.146000", "160958.149000", "161038.054000", "161038.058000", "161038.062000", "161038.065000", "161038.068000", "161038.072000", "161038.075000", "161038.078000", "161038.082000", "161038.085000", "161038.088000", "161038.092000", "161038.095000", "161038.098000", "161038.102000", "161038.105000", "161038.109000", "161038.112000", "161038.115000", "161038.119000", "161038.122000", "161038.125000", "161038.129000", "161038.132000", "161038.135000", "161038.139000", "161038.142000", "161118.053000", "161118.057000", "161118.060000", "161118.064000", "161118.067000", "161118.071000", "161118.074000", "161118.077000", "161118.081000", "161118.084000", "161118.088000", "161118.091000", "161118.094000", "161118.098000", "161118.101000", "161118.104000", "161118.108000", "161118.111000", "161118.114000", "161118.118000", "161118.121000", "161118.124000", "161118.128000", "161118.131000", "161118.134000", "161118.138000", "161118.141000", "161158.054000", "161158.058000", "161158.061000", "161158.065000", "161158.068000", "161158.072000", "161158.075000", "161158.078000", "161158.082000", "161158.085000", "161158.088000", "161158.092000", "161158.095000", "161158.098000", "161158.103000", "161158.107000", "161158.110000", "161158.113000", "161158.117000", "161158.120000", "161158.123000", "161158.127000", "161158.130000", "161158.134000", "161158.137000", "161158.140000", "161158.144000", "161238.054000", "161238.058000", "161238.061000", "161238.065000", "161238.068000", "161238.072000", "161238.075000", "161238.079000", "161238.082000", "161238.085000", "161238.089000", "161238.092000", "161238.095000", "161238.099000", "161238.102000", "161238.106000", "161238.109000", "161238.112000", "161238.116000", "161238.119000", "161238.122000", "161238.126000", "161238.129000", "161238.132000", "161238.136000", "161238.139000", "161318.054000", "161318.058000", "161318.061000", "161318.065000", "161318.068000", "161318.071000", "161318.075000", "161318.078000", "161318.081000", "161318.085000", "161318.088000", "161318.091000", "161318.095000", "161318.098000", "161318.101000", "161318.105000", "161318.108000", "161318.112000", "161318.115000", "161318.118000", "161318.121000", "161318.125000", "161318.128000", "161318.131000", "161318.135000", "161318.138000", "161318.142000", "161358.053000", "161358.057000", "161358.061000", "161358.064000", "161358.067000", "161358.071000", "161358.074000", "161358.078000", "161358.081000", "161358.085000", "161358.088000", "161358.091000", "161358.095000", "161358.113000", "161358.117000", "161358.120000", "161358.124000", "161358.127000", "161358.130000", "161358.133000", "161358.137000", "161358.140000", "161358.144000", "161358.147000", "161358.150000", "161358.154000", "161358.157000", "161416.828000", "161416.832000", "161416.835000", "161416.839000", "161416.842000", "161416.846000", "161416.849000", "161416.852000", "161416.856000", "161416.859000", "161416.862000", "161416.866000", "161416.869000"],
