{
  "AcquisitionMatrixPE": 104,
  "AcquisitionNumber": 1,
  "AcquisitionTime": "15:33:55.787500",
  "BandwidthPerPixelPhaseEncode": 17.17,
  "BaseResolution": 104,
  "BodyPartExamined": "BRAIN",
  "CoilString": "HC1-7;NC1_2",
  "ConsistencyInfo": "N4_VE11C_LATEST_20160120",
  "ConversionSoftware": "dcm2niix",
  "ConversionSoftwareVersion": "v1.0.20190902",
  "DerivedVendorReportedEchoSpacing": 0.000560011,
  "DeviceSerialNumber": "167006",
  "DwellTime": 2.1e-06,
  "EchoTime": 0.037,
  "EchoTrainLength": 104,
  "EffectiveEchoSpacing": 0.000560011,
  "FlipAngle": 52,
  "HeudiconvVersion": "0.10.0",
  "ImageComments": "Unaliased_MB4_PE3_LB",
  "ImageOrientationPatientDICOM": [0.998997, -0.0322027, 0.031118, 0.0406477, 0.943677, -0.328362],
  "ImageType": [
    "ORIGINAL",
    "PRIMARY",
    "M",
    "MB",
    "ND",
    "MOSAIC"
],
  "ImagingFrequency": 123.259,
  "InPlanePhaseEncodingDirectionDICOM": "COL",
  "InstitutionAddress": "Chemin_Queen-Mary_4565_Montreal_District_CA_H3W_1W5",
  "InstitutionName": "IUGM",
  "InstitutionalDepartmentName": "Department",
  "MRAcquisitionType": "2D",
  "MagneticFieldStrength": 3,
  "Manufacturer": "Siemens",
  "ManufacturersModelName": "Prisma_fit",
  "Modality": "MR",
  "MultibandAccelerationFactor": 4,
  "PartialFourier": 1,
  "PatientPosition": "HFS",
  "PercentPhaseFOV": 100,
  "PhaseEncodingDirection": "j",
  "PhaseEncodingSteps": 104,
  "PhaseResolution": 1,
  "PixelBandwidth": 2290,
  "ProcedureStepDescription": "games_mario",
  "ProtocolName": "func_task-mario_run-01",
  "PulseSequenceDetails": "%CustomerSeq%_cmrr_mbep2d_bold",
  "ReceiveCoilActiveElements": "HC1-7;NC1,2",
  "ReceiveCoilName": "HeadNeck_64",
  "ReconMatrixPE": 104,
  "RepetitionTime": 1.49,
  "SAR": 0.0426327,
  "ScanOptions": "FS",
  "ScanningSequence": "EP",
  "SequenceName": "epfid2d1_104",
  "SequenceVariant": "SK_SS",
  "SeriesDescription": "func_task-mario_run-01",
  "SeriesNumber": 10,
  "ShimSetting": [630, -7252, -8802, 622, -2, -202, -82, -30],
  "SliceThickness": 2,
  "SliceTiming": [0, 0.7825, 0.0975, 0.8825, 0.195, 0.98, 0.2925, 1.0775, 0.3925, 1.175, 0.49, 1.2725, 0.5875, 1.3725, 0.685, 0, 0.7825, 0.0975, 0.8825, 0.195, 0.98, 0.2925, 1.0775, 0.3925, 1.175, 0.49, 1.2725, 0.5875, 1.3725, 0.685, 0, 0.7825, 0.0975, 0.8825, 0.195, 0.98, 0.2925, 1.0775, 0.3925, 1.175, 0.49, 1.2725, 0.5875, 1.3725, 0.685, 0, 0.7825, 0.0975, 0.8825, 0.195, 0.98, 0.2925, 1.0775, 0.3925, 1.175, 0.49, 1.2725, 0.5875, 1.3725, 0.685],
  "SoftwareVersions": "syngo_MR_E11",
  "SpacingBetweenSlices": 2,
  "StationName": "MRC35049",
  "TaskName": "mario",
  "TotalReadoutTime": 0.0576811,
  "TxRefAmp": 236.165,
  "WipMemBlock": "80731e75-a427-4d35-9afb-aab061ea1868||Sequence: R016 ve11c/master r/e634e98; Dec 19 2017 11:00:25 by eja",
  "dcmmeta_affine": [
    [-1.9979935884475708, 0.0812954232096672, 0.037582479417324066, 101.6802978515625],
    [0.06440543383359909, 1.8873541355133057, -0.6585943102836609, -68.84952545166016],
    [0.06223607435822487, 0.6567233204841614, 1.8880786895751953, -60.62521743774414],
    [0.0, 0.0, 0.0, 1.0]
],
  "dcmmeta_reorient_transform": [
    [0.0, -1.0, 0.0, 103.0],
    [1.0, 0.0, 0.0, 0.0],
    [0.0, 0.0, 1.0, 0.0],
    [0.0, 0.0, 0.0, 1.0]
],
  "dcmmeta_shape": [104, 104, 60, 433],
  "dcmmeta_slice_dim": 2,
  "dcmmeta_version": 0.6,
  "global": {
    "const": {
      "AcquisitionMatrix": [104, 0, 0, 104],
      "AngioFlag": "N",
      "BitsAllocated": 16,
      "BitsStored": 16,
      "BodyPartExamined": "BRAIN",
      "Columns": 832,
      "EchoNumbers": 1,
      "EchoTime": 37.0,
      "EchoTrainLength": 104,
      "FlipAngle": 52.0,
      "HighBit": 15,
      "ImageOrientationPatient": [0.99899682318838, -0.032202717924, 0.03111803685696, 0.04064771331996, 0.94367705066827, -0.3283616717035],
      "ImagePositionPatient": [-866.91495062395, -789.10125871956, 223.41065469278],
      "ImageType": [
        "ORIGINAL",
        "PRIMARY",
        "M",
        "MB",
        "ND",
        "MOSAIC"
],
      "ImagedNucleus": "1H",
      "ImagingFrequency": 123.258874,
      "InPlanePhaseEncodingDirection": "COL",
      "MRAcquisitionType": "2D",
      "MagneticFieldStrength": 3.0,
      "Manufacturer": "SIEMENS",
      "ManufacturerModelName": "Prisma_fit",
      "Modality": "MR",
      "NumberOfAverages": 1.0,
      "NumberOfPhaseEncodingSteps": 104,
      "PercentPhaseFieldOfView": 100.0,
      "PercentSampling": 100.0,
      "PerformedProcedureStepStartTime": "150739.144000",
      "PhotometricInterpretation": "MONOCHROME2",
      "PixelBandwidth": 2290.0,
      "PixelRepresentation": 0,
      "PixelSpacing": [2.0, 2.0],
      "ProtocolName": "func_task-mario_run-01",
      "RepetitionTime": 1490.0,
      "Rows": 832,
      "SAR": 0.04263272139414,
      "SamplesPerPixel": 1,
      "ScanOptions": "FS",
      "ScanningSequence": "EP",
      "SequenceName": "epfid2d1_104",
      "SequenceVariant": [
        "SK",
        "SS"
],
      "SeriesDescription": "func_task-mario_run-01",
      "SeriesNumber": 10,
      "SeriesTime": "153526.035000",
      "SliceLocation": -32.649937197355,
      "SliceThickness": 2.0,
      "SmallestImagePixelValue": 0,
      "SoftwareVersions": "syngo MR E11",
      "SpacingBetweenSlices": 2.0000000415183,
      "SpecificCharacterSet": "ISO_IR 100",
      "StudyID": "1",
      "StudyTime": "150739.088000",
      "TransmitCoilName": "Body",
      "VariableFlipAngleFlag": "N",
      "WindowCenterWidthExplanation": "Algo1",
      "dBdt": 0.0},
    "slices": {}
  },
  "time": {
    "samples": {
      "AcquisitionNumber": [1, 2, 3, 4, 5, 6, 7, 8, 9, 10, 11, 12, 13, 14, 15, 16, 17, 18, 19, 20, 21, 22, 23, 24, 25, 26, 27, 28, 29, 30, 31, 32, 33, 34, 35, 36, 37, 38, 39, 40, 41, 42, 43, 44, 45, 46, 47, 48, 49, 50, 51, 52, 53, 54, 55, 56, 57, 58, 59, 60, 61, 62, 63, 64, 65, 66, 67, 68, 69, 70, 71, 72, 73, 74, 75, 76, 77, 78, 79, 80, 81, 82, 83, 84, 85, 86, 87, 88, 89, 90, 91, 92, 93, 94, 95, 96, 97, 98, 99, 100, 101, 102, 103, 104, 105, 106, 107, 108, 109, 110, 111, 112, 113, 114, 115, 116, 117, 118, 119, 120, 121, 122, 123, 124, 125, 126, 127, 128, 129, 130, 131, 132, 133, 134, 135, 136, 137, 138, 139, 140, 141, 142, 143, 144, 145, 146, 147, 148, 149, 150, 151, 152, 153, 154, 155, 156, 157, 158, 159, 160, 161, 162, 163, 164, 165, 166, 167, 168, 169, 170, 171, 172, 173, 174, 175, 176, 177, 178, 179, 180, 181, 182, 183, 184, 185, 186, 187, 188, 189, 190, 191, 192, 193, 194, 195, 196, 197, 198, 199, 200, 201, 202, 203, 204, 205, 206, 207, 208, 209, 210, 211, 212, 213, 214, 215, 216, 217, 218, 219, 220, 221, 222, 223, 224, 225, 226, 227, 228, 229, 230, 231, 232, 233, 234, 235, 236, 237, 238, 239, 240, 241, 242, 243, 244, 245, 246, 247, 248, 249, 250, 251, 252, 253, 254, 255, 256, 257, 258, 259, 260, 261, 262, 263, 264, 265, 266, 267, 268, 269, 270, 271, 272, 273, 274, 275, 276, 277, 278, 279, 280, 281, 282, 283, 284, 285, 286, 287, 288, 289, 290, 291, 292, 293, 294, 295, 296, 297, 298, 299, 300, 301, 302, 303, 304, 305, 306, 307, 308, 309, 310, 311, 312, 313, 314, 315, 316, 317, 318, 319, 320, 321, 322, 323, 324, 325, 326, 327, 328, 329, 330, 331, 332, 333, 334, 335, 336, 337, 338, 339, 340, 341, 342, 343, 344, 345, 346, 347, 348, 349, 350, 351, 352, 353, 354, 355, 356, 357, 358, 359, 360, 361, 362, 363, 364, 365, 366, 367, 368, 369, 370, 371, 372, 373, 374, 375, 376, 377, 378, 379, 380, 381, 382, 383, 384, 385, 386, 387, 388, 389, 390, 391, 392, 393, 394, 395, 396, 397, 398, 399, 400, 401, 402, 403, 404, 405, 406, 407, 408, 409, 410, 411, 412, 413, 414, 415, 416, 417, 418, 419, 420, 421, 422, 423, 424, 425, 426, 427, 428, 429, 430, 431, 432, 433],
      "AcquisitionTime": ["153355.787500", "153357.277500", "153358.767500", "153400.257500", "153401.747500", "153403.237500", "153404.727500", "153406.217500", "153407.707500", "153409.197500", "153410.687500", "153412.177500", "153413.667500", "153415.157500", "153416.647500", "153418.137500", "153419.627500", "153421.117500", "153422.607500", "153424.097500", "153425.587500", "153427.077500", "153428.567500", "153430.057500", "153431.547500", "153433.037500", "153434.527500", "153436.017500", "153437.507500", "153438.997500", "153440.487500", "153441.977500", "153443.467500", "153444.957500", "153446.447500", "153447.937500", "153449.427500", "153450.917500", "153452.407500", "153453.897500", "153455.387500", "153456.877500", "153458.367500", "153459.857500", "153501.347500", "153502.837500", "153504.327500", "153505.817500", "153507.307500", "153508.797500", "153510.287500", "153511.777500", "153513.267500", "153514.757500", "153516.247500", "153517.737500", "153519.227500", "153520.717500", "153522.207500", "153523.697500", "153525.187500", "153526.677500", "153528.167500", "153529.657500", "153531.147500", "153532.637500", "153534.127500", "153535.617500", "153537.107500", "153538.597500", "153540.087500", "153541.577500", "153543.067500", "153544.557500", "153546.047500", "153547.537500", "153549.027500", "153550.517500", "153552.007500", "153553.497500", "153554.987500", "153556.477500", "153557.967500", "153559.457500", "153600.947500", "153602.437500", "153603.927500", "153605.417500", "153606.907500", "153608.397500", "153609.887500", "153611.377500", "153612.867500", "153614.357500", "153615.847500", "153617.337500", "153618.827500", "153620.317500", "153621.807500", "153623.297500", "153624.787500", "153626.277500", "153627.767500", "153629.257500", "153630.747500", "153632.237500", "153633.727500", "153635.217500", "153636.707500", "153638.197500", "153639.687500", "153641.177500", "153642.667500", "153644.157500", "153645.647500", "153647.137500", "153648.627500", "153650.117500", "153651.607500", "153653.097500", "153654.587500", "153656.077500", "153657.567500", "153659.057500", "153700.547500", "153702.037500", "153703.527500", "153705.017500", "153706.507500", "153707.997500", "153709.487500", "153710.977500", "153712.467500", "153713.957500", "153715.447500", "153716.937500", "153718.427500", "153719.917500", "153721.407500", "153722.897500", "153724.387500", "153725.877500", "153727.367500", "153728.857500", "153730.347500", "153731.837500", "153733.327500", "153734.817500", "153736.307500", "153737.797500", "153739.287500", "153740.777500", "153742.267500", "153743.757500", "153745.247500", "153746.737500", "153748.227500", "153749.717500", "153751.207500", "153752.697500", "153754.187500", "153755.677500", "153757.167500", "153758.657500", "153800.147500", "153801.637500", "153803.127500", "153804.617500", "153806.107500", "153807.597500", "153809.087500", "153810.577500", "153812.067500", "153813.557500", "153815.047500", "153816.537500", "153818.027500", "153819.517500", "153821.007500", "153822.497500", "153823.987500", "153825.477500", "153826.967500", "153828.457500", "153829.947500", "153831.437500", "153832.927500", "153834.417500", "153835.907500", "153837.397500", "153838.887500", "153840.377500", "153841.867500", "153843.357500", "153844.847500", "153846.337500", "153847.827500", "153849.317500", "153850.807500", "153852.297500", "153853.787500", "153855.277500", "153856.767500", "153858.257500", "153859.747500", "153901.237500", "153902.727500", "153904.217500", "153905.707500", "153907.197500", "153908.687500", "153910.177500", "153911.667500", "153913.157500", "153914.647500", "153916.137500", "153917.627500", "153919.117500", "153920.607500", "153922.097500", "153923.587500", "153925.077500", "153926.567500", "153928.057500", "153929.547500", "153931.037500", "153932.527500", "153934.017500", "153935.507500", "153936.997500", "153938.487500", "153939.977500", "153941.467500", "153942.957500", "153944.447500", "153945.937500", "153947.427500", "153948.917500", "153950.407500", "153951.897500", "153953.387500", "153954.877500", "153956.367500", "153957.857500", "153959.347500", "154000.837500", "154002.327500", "154003.817500", "154005.307500", "154006.797500", "154008.287500", "154009.777500", "154011.267500", "154012.757500", "154014.247500", "154015.737500", "154017.227500", "154018.717500", "154020.207500", "154021.697500", "154023.187500", "154024.677500", "154026.167500", "154027.657500", "154029.147500", "154030.637500", "154032.127500", "154033.617500", "154035.107500", "154036.597500", "154038.087500", "154039.577500", "154041.067500", "154042.557500", "154044.047500", "154045.537500", "154047.027500", "154048.517500", "154050.007500", "154051.497500", "154052.987500", "154054.477500", "154055.967500", "154057.457500", "154058.947500", "154100.437500", "154101.927500", "154103.417500", "154104.907500", "154106.397500", "154107.887500", "154109.377500", "154110.867500", "154112.357500", "154113.847500", "154115.337500", "154116.827500", "154118.317500", "154119.807500", "154121.297500", "154122.787500", "154124.277500", "154125.767500", "154127.257500", "154128.747500", "154130.237500", "154131.727500", "154133.217500", "154134.707500", "154136.197500", "154137.687500", "154139.177500", "154140.667500", "154142.157500", "154143.647500", "154145.137500", "154146.627500", "154148.117500", "154149.607500", "154151.097500", "154152.587500", "154154.077500", "154155.567500", "154157.057500", "154158.547500", "154200.037500", "154201.527500", "154203.017500", "154204.507500", "154205.997500", "154207.487500", "154208.977500", "154210.467500", "154211.957500", "154213.447500", "154214.937500", "154216.427500", "154217.917500", "154219.407500", "154220.897500", "154222.387500", "154223.877500", "154225.367500", "154226.857500", "154228.347500", "154229.837500", "154231.327500", "154232.817500", "154234.307500", "154235.797500", "154237.287500", "154238.777500", "154240.267500", "154241.757500", "154243.247500", "154244.737500", "154246.227500", "154247.717500", "154249.207500", "154250.697500", "154252.187500", "154253.677500", "154255.167500", "154256.657500", "154258.147500", "154259.637500", "154301.127500", "154302.617500", "154304.107500", "154305.597500", "154307.087500", "154308.577500", "154310.067500", "154311.557500", "154313.047500", "154314.537500", "154316.027500", "154317.517500", "154319.007500", "154320.497500", "154321.987500", "154323.477500", "154324.967500", "154326.457500", "154327.947500", "154329.437500", "154330.927500", "154332.417500", "154333.907500", "154335.397500", "154336.887500", "154338.377500", "154339.867500", "154341.357500", "154342.847500", "154344.337500", "154345.827500", "154347.317500", "154348.807500", "154350.297500", "154351.787500", "154353.277500", "154354.767500", "154356.257500", "154357.747500", "154359.237500", "154400.727500", "154402.217500", "154403.707500", "154405.197500", "154406.687500", "154408.177500", "154409.667500", "154411.157500", "154412.647500", "154414.137500", "154415.627500", "154417.117500", "154418.607500", "154420.097500", "154421.587500", "154423.077500", "154424.567500", "154426.057500", "154427.547500", "154429.037500", "154430.527500", "154432.017500", "154433.507500", "154434.997500", "154436.487500", "154437.977500", "154439.467500"],
      "ContentTime": ["153526.038000", "153526.043000", "153526.046000", "153526.049000", "153526.053000", "153526.056000", "153526.059000", "153526.063000", "153526.066000", "153526.069000", "153526.073000", "153526.076000", "153526.079000", "153526.083000", "153526.086000", "153526.089000", "153526.093000", "153526.096000", "153526.099000", "153526.102000", "153526.106000", "153526.112000", "153526.116000", "153526.119000", "153526.122000", "153526.126000", "153526.129000", "153526.132000", "153526.136000", "153526.139000", "153526.143000", "153526.146000", "153526.149000", "153526.153000", "153526.156000", "153526.166000", "153526.169000", "153545.998000", "153546.003000", "153546.006000", "153546.010000", "153546.013000", "153546.016000", "153546.020000", "153546.023000", "153546.026000", "153546.030000", "153546.033000", "153546.036000", "153546.040000", "153546.043000", "153546.046000", "153546.050000", "153546.053000", "153546.057000", "153546.060000", "153546.063000", "153605.998000", "153606.003000", "153606.006000", "153606.010000", "153606.013000", "153606.016000", "153606.020000", "153606.023000", "153606.026000", "153606.030000", "153606.033000", "153606.036000", "153606.040000", "153606.043000", "153606.046000", "153606.050000", "153606.053000", "153606.056000", "153606.060000", "153606.063000", "153626.000000", "153626.004000", "153626.007000", "153626.011000", "153626.014000", "153626.017000", "153626.021000", "153626.024000", "153626.027000", "153626.031000", "153626.034000", "153626.037000", "153626.041000", "153626.044000", "153626.055000", "153626.059000", "153626.062000", "153626.065000", "153626.069000", "153626.072000", "153706.000000", "153706.004000", "153706.007000", "153706.011000", "153706.014000", "153706.017000", "153706.021000", "153706.024000", "153706.027000", "153706.031000", "153706.034000", "153706.037000", "153706.041000", "153706.044000", "153706.047000", "153706.051000", "153706.054000", "153706.057000", "153706.061000", "153706.064000", "153706.067000", "153706.071000", "153706.074000", "153706.078000", "153706.081000", "153706.084000", "153706.088000", "153706.091000", "153706.094000", "153706.098000", "153745.998000", "153746.051000", "153746.055000", "153746.058000", "153746.061000", "153746.065000", "153746.068000", "153746.071000", "153746.075000", "153746.078000", "153746.081000", "153746.085000", "153746.088000", "153746.091000", "153746.095000", "153746.101000", "153746.105000", "153746.108000", "153746.111000", "153746.115000", "153746.118000", "153746.121000", "153746.125000", "153746.128000", "153746.132000", "153746.135000", "153825.998000", "153826.003000", "153826.006000", "153826.010000", "153826.013000", "153826.017000", "153826.020000", "153826.023000", "153826.027000", "153826.030000", "153826.033000", "153826.037000", "153826.040000", "153826.043000", "153826.047000", "153826.050000", "153826.054000", "153826.057000", "153826.061000", "153826.064000", "153826.067000", "153826.071000", "153826.074000", "153826.077000", "153826.081000", "153826.084000", "153826.088000", "153906.000000", "153906.004000", "153906.007000", "153906.011000", "153906.014000", "153906.017000", "153906.021000", "153906.024000", "153906.039000", "153906.055000", "153906.059000", "153906.062000", "153906.065000", "153906.069000", "153906.072000", "153906.075000", "153906.079000", "153906.082000", "153906.086000", "153906.089000", "153906.092000", "153906.096000", "153906.099000", "153906.102000", "153906.106000", "153906.109000", "153906.112000", "153946.000000", "153946.004000", "153946.007000", "153946.011000", "153946.014000", "153946.018000", "153946.021000", "153946.025000", "153946.028000", "153946.031000", "153946.034000", "153946.038000", "153946.041000", "153946.045000", "153946.048000", "153946.051000", "153946.055000", "153946.058000", "153946.061000", "153946.065000", "153946.075000", "153946.079000", "153946.082000", "153946.085000", "153946.089000", "153946.092000", "153946.095000", "154025.998000", "154026.003000", "154026.006000", "154026.014000", "154026.017000", "154026.021000", "154026.025000", "154026.028000", "154026.032000", "154026.035000", "154026.039000", "154026.042000", "154026.046000", "154026.049000", "154026.052000", "154026.056000", "154026.059000", "154026.062000", "154026.066000", "154026.069000", "154026.072000", "154026.076000", "154026.079000", "154026.082000", "154026.086000", "154026.089000", "154026.092000", "154106.000000", "154106.004000", "154106.007000", "154106.011000", "154106.014000", "154106.018000", "154106.021000", "154106.024000", "154106.028000", "154106.031000", "154106.034000", "154106.037000", "154106.041000", "154106.044000", "154106.048000", "154106.051000", "154106.054000", "154106.058000", "154106.061000", "154106.064000", "154106.068000", "154106.071000", "154106.075000", "154106.078000", "154106.081000", "154106.084000", "154106.088000", "154146.000000", "154146.004000", "154146.007000", "154146.011000", "154146.014000", "154146.018000", "154146.021000", "154146.024000", "154146.028000", "154146.031000", "154146.034000", "154146.038000", "154146.041000", "154146.044000", "154146.048000", "154146.051000", "154146.054000", "154146.058000", "154146.061000", "154146.064000", "154146.068000", "154146.071000", "154146.074000", "154146.078000", "154146.081000", "154146.084000", "154146.088000", "154226.000000", "154226.005000", "154226.008000", "154226.012000", "154226.015000", "154226.019000", "154226.022000", "154226.025000", "154226.029000", "154226.032000", "154226.036000", "154226.039000", "154226.043000", "154226.046000", "154226.049000", "154226.053000", "154226.056000", "154226.059000", "154226.063000", "154226.066000", "154226.069000", "154226.073000", "154226.076000", "154226.079000", "154226.091000", "154226.095000", "154305.998000", "154306.003000", "154306.006000", "154306.010000", "154306.013000", "154306.017000", "154306.020000", "154306.023000", "154306.027000", "154306.030000", "154306.033000", "154306.037000", "154306.040000", "154306.043000", "154306.047000", "154306.050000", "154306.053000", "154306.057000", "154306.060000", "154306.063000", "154306.067000", "154306.070000", "154306.073000", "154306.090000", "154306.093000", "154306.096000", "154306.100000", "154346.000000", "154346.004000", "154346.028000", "154346.031000", "154346.034000", "154346.038000", "154346.041000", "154346.046000", "154346.049000", "154346.053000", "154346.056000", "154346.059000", "154346.062000", "154346.066000", "154346.069000", "154346.072000", "154346.076000", "154346.079000", "154346.083000", "154346.086000", "154346.089000", "154346.092000", "154346.096000", "154346.099000", "154346.102000", "154346.106000", "154346.109000", "154426.000000", "154426.004000", "154426.007000", "154426.011000", "154426.014000", "154426.017000", "154426.021000", "154426.024000", "154426.028000", "154426.031000", "154426.034000", "154426.038000", "154426.041000", "154426.044000", "154426.048000", "154426.051000", "154426.054000", "154426.058000", "154426.061000", "154426.064000", "154426.068000", "154426.071000", "154426.074000", "154426.078000", "154426.081000", "154426.084000", "154426.088000", "154442.019000", "154442.023000", "154442.026000", "154442.030000", "154442.033000", "154442.036000", "154442.040000", "154442.043000", "154442.047000", "154442.050000", "154442.053000"],
      "InstanceCreationTime": ["153526.038000", "153526.043000", "153526.046000", "153526.049000", "153526.053000", "153526.056000", "153526.059000", "153526.063000", "153526.066000", "153526.069000", "153526.073000", "153526.076000", "153526.079000", "153526.083000", "153526.086000", "153526.089000", "153526.093000", "153526.096000", "153526.099000", "153526.102000", "153526.106000", "153526.112000", "153526.116000", "153526.119000", "153526.122000", "153526.126000", "153526.129000", "153526.132000", "153526.136000", "153526.139000", "153526.143000", "153526.146000", "153526.149000", "153526.153000", "153526.156000", "153526.166000", "153526.169000", "153545.998000", "153546.003000", "153546.006000", "153546.010000", "153546.013000", "153546.016000", "153546.020000", "153546.023000", "153546.026000", "153546.030000", "153546.033000", "153546.036000", "153546.040000", "153546.043000", "153546.046000", "153546.050000", "153546.053000", "153546.057000", "153546.060000", "153546.063000", "153605.998000", "153606.003000", "153606.006000", "153606.010000", "153606.013000", "153606.016000", "153606.020000", "153606.023000", "153606.026000", "153606.030000", "153606.033000", "153606.036000", "153606.040000", "153606.043000", "153606.046000", "153606.050000", "153606.053000", "153606.056000", "153606.060000", "153606.063000", "153626.000000", "153626.004000", "153626.007000", "153626.011000", "153626.014000", "153626.017000", "153626.021000", "153626.024000", "153626.027000", "153626.031000", "153626.034000", "153626.037000", "153626.041000", "153626.044000", "153626.055000", "153626.059000", "153626.062000", "153626.065000", "153626.069000", "153626.072000", "153706.000000", "153706.004000", "153706.007000", "153706.011000", "153706.014000", "153706.017000", "153706.021000", "153706.024000", "153706.027000", "153706.031000", "153706.034000", "153706.037000", "153706.041000", "153706.044000", "153706.047000", "153706.051000", "153706.054000", "153706.057000", "153706.061000", "153706.064000", "153706.067000", "153706.071000", "153706.074000", "153706.078000", "153706.081000", "153706.084000", "153706.088000", "153706.091000", "153706.094000", "153706.098000", "153745.998000", "153746.051000", "153746.055000", "153746.058000", "153746.061000", "153746.065000", "153746.068000", "153746.071000", "153746.075000", "153746.078000", "153746.081000", "153746.085000", "153746.088000", "153746.091000", "153746.095000", "153746.101000", "153746.105000", "153746.108000", "153746.111000", "153746.115000", "153746.118000", "153746.121000", "153746.125000", "153746.128000", "153746.132000", "153746.135000", "153825.998000", "153826.003000", "153826.006000", "153826.010000", "153826.013000", "153826.017000", "153826.020000", "153826.023000", "153826.027000", "153826.030000", "153826.033000", "153826.037000", "153826.040000", "153826.043000", "153826.047000", "153826.050000", "153826.054000", "153826.057000", "153826.061000", "153826.064000", "153826.067000", "153826.071000", "153826.074000", "153826.077000", "153826.081000", "153826.084000", "153826.088000", "153906.000000", "153906.004000", "153906.007000", "153906.011000", "153906.014000", "153906.017000", "153906.021000", "153906.024000", "153906.039000", "153906.055000", "153906.059000", "153906.062000", "153906.065000", "153906.069000", "153906.072000", "153906.075000", "153906.079000", "153906.082000", "153906.086000", "153906.089000", "153906.092000", "153906.096000", "153906.099000", "153906.102000", "153906.106000", "153906.109000", "153906.112000", "153946.000000", "153946.004000", "153946.007000", "153946.011000", "153946.014000", "153946.018000", "153946.021000", "153946.025000", "153946.028000", "153946.031000", "153946.034000", "153946.038000", "153946.041000", "153946.045000", "153946.048000", "153946.051000", "153946.055000", "153946.058000", "153946.061000", "153946.065000", "153946.075000", "153946.079000", "153946.082000", "153946.085000", "153946.089000", "153946.092000", "153946.095000", "154025.998000", "154026.003000", "154026.006000", "154026.014000", "154026.017000", "154026.021000", "154026.025000", "154026.028000", "154026.032000", "154026.035000", "154026.039000", "154026.042000", "154026.046000", "154026.049000", "154026.052000", "154026.056000", "154026.059000", "154026.062000", "154026.066000", "154026.069000", "154026.072000", "154026.076000", "154026.079000", "154026.082000", "154026.086000", "154026.089000", "154026.092000", "154106.000000", "154106.004000", "154106.007000", "154106.011000", "154106.014000", "154106.018000", "154106.021000", "154106.024000", "154106.028000", "154106.031000", "154106.034000", "154106.037000", "154106.041000", "154106.044000", "154106.048000", "154106.051000", "154106.054000", "154106.058000", "154106.061000", "154106.064000", "154106.068000", "154106.071000", "154106.075000", "154106.078000", "154106.081000", "154106.084000", "154106.088000", "154146.000000", "154146.004000", "154146.007000", "154146.011000", "154146.014000", "154146.018000", "154146.021000", "154146.024000", "154146.028000", "154146.031000", "154146.034000", "154146.038000", "154146.041000", "154146.044000", "154146.048000", "154146.051000", "154146.054000", "154146.058000", "154146.061000", "154146.064000", "154146.068000", "154146.071000", "154146.074000", "154146.078000", "154146.081000", "154146.084000", "154146.088000", "154226.000000", "154226.005000", "154226.008000", "154226.012000", "154226.015000", "154226.019000", "154226.022000", "154226.025000", "154226.029000", "154226.032000", "154226.036000", "154226.039000", "154226.043000", "154226.046000", "154226.049000", "154226.053000", "154226.056000", "154226.059000", "154226.063000", "154226.066000", "154226.069000", "154226.073000", "154226.076000", "154226.079000", "154226.091000", "154226.095000", "154305.998000", "154306.003000", "154306.006000", "154306.010000", "154306.013000", "154306.017000", "154306.020000", "154306.023000", "154306.027000", "154306.030000", "154306.033000", "154306.037000", "154306.040000", "154306.043000", "154306.047000", "154306.050000", "154306.053000", "154306.057000", "154306.060000", "154306.063000", "154306.067000", "154306.070000", "154306.073000", "154306.090000", "154306.093000", "154306.096000", "154306.100000", "154346.000000", "154346.004000", "154346.028000", "154346.031000", "154346.034000", "154346.038000", "154346.041000", "154346.046000", "154346.049000", "154346.053000", "154346.056000", "154346.059000", "154346.062000", "154346.066000", "154346.069000", "154346.072000", "154346.076000", "154346.079000", "154346.083000", "154346.086000", "154346.089000", "154346.092000", "154346.096000", "154346.099000", "154346.102000", "154346.106000", "154346.109000", "154426.000000", "154426.004000", "154426.007000", "154426.011000", "154426.014000", "154426.017000", "154426.021000", "154426.024000", "154426.028000", "154426.031000", "154426.034000", "154426.038000", "154426.041000", "154426.044000", "154426.048000", "154426.051000", "154426.054000", "154426.058000", "154426.061000", "154426.064000", "154426.068000", "154426.071000", "154426.074000", "154426.078000", "154426.081000", "154426.084000", "154426.088000", "154442.019000", "154442.023000", "154442.026000", "154442.030000", "154442.033000", "154442.036000", "154442.040000", "154442.043000", "154442.047000", "154442.050000", "154442.053000"],
