{
  "AcquisitionMatrixPE": 104,
  "AcquisitionNumber": 1,
  "AcquisitionTime": "16:16:0.202500",
  "BandwidthPerPixelPhaseEncode": 17.17,
  "BaseResolution": 104,
  "BodyPartExamined": "BRAIN",
  "CoilString": "HC1-7;NC1_2",
  "ConsistencyInfo": "N4_VE11C_LATEST_20160120",
  "ConversionSoftware": "dcm2niix",
  "ConversionSoftwareVersion": "v1.0.20190902",
  "DerivedVendorReportedEchoSpacing": 0.000560011,
  "DeviceSerialNumber": "167006",
  "DwellTime": 2.1e-06,
  "EchoTime": 0.037,
  "EchoTrainLength": 104,
  "EffectiveEchoSpacing": 0.000560011,
  "FlipAngle": 52,
  "HeudiconvVersion": "0.10.0",
  "ImageComments": "Unaliased_MB4_PE3_LB",
  "ImageOrientationPatientDICOM": [0.998997, -0.0322027, 0.031118, 0.0406477, 0.943677, -0.328362],
  "ImageType": [
    "ORIGINAL",
    "PRIMARY",
    "P",
    "MB",
    "ND",
    "MOSAIC"
],
  "ImagingFrequency": 123.259,
  "InPlanePhaseEncodingDirectionDICOM": "COL",
  "InstitutionAddress": "Chemin_Queen-Mary_4565_Montreal_District_CA_H3W_1W5",
  "InstitutionName": "IUGM",
  "InstitutionalDepartmentName": "Department",
  "MRAcquisitionType": "2D",
  "MagneticFieldStrength": 3,
  "Manufacturer": "Siemens",
  "ManufacturersModelName": "Prisma_fit",
  "Modality": "MR",
  "MultibandAccelerationFactor": 4,
  "PartialFourier": 1,
  "PatientPosition": "HFS",
  "PercentPhaseFOV": 100,
  "PhaseEncodingDirection": "j",
  "PhaseEncodingSteps": 104,
  "PhaseResolution": 1,
  "PixelBandwidth": 2290,
  "ProcedureStepDescription": "games_mario",
  "ProtocolName": "func_task-mario_run-04",
  "PulseSequenceDetails": "%CustomerSeq%_cmrr_mbep2d_bold",
  "ReceiveCoilActiveElements": "HC1-7;NC1,2",
  "ReceiveCoilName": "HeadNeck_64",
  "ReconMatrixPE": 104,
  "RepetitionTime": 1.49,
  "SAR": 0.0426327,
  "ScanOptions": "FS",
  "ScanningSequence": "EP",
  "SequenceName": "epfid2d1_104",
  "SequenceVariant": "SK_SS",
  "SeriesDescription": "func_task-mario_run-04",
  "SeriesNumber": 20,
  "ShimSetting": [630, -7252, -8802, 622, -2, -202, -82, -30],
  "SliceThickness": 2,
  "SliceTiming": [0, 0.785, 0.0975, 0.8825, 0.195, 0.98, 0.295, 1.0775, 0.3925, 1.175, 0.49, 1.275, 0.5875, 1.3725, 0.685, 0, 0.785, 0.0975, 0.8825, 0.195, 0.98, 0.295, 1.0775, 0.3925, 1.175, 0.49, 1.275, 0.5875, 1.3725, 0.685, 0, 0.785, 0.0975, 0.8825, 0.195, 0.98, 0.295, 1.0775, 0.3925, 1.175, 0.49, 1.275, 0.5875, 1.3725, 0.685, 0, 0.785, 0.0975, 0.8825, 0.195, 0.98, 0.295, 1.0775, 0.3925, 1.175, 0.49, 1.275, 0.5875, 1.3725, 0.685],
  "SoftwareVersions": "syngo_MR_E11",
  "SpacingBetweenSlices": 2,
  "StationName": "MRC35049",
  "TaskName": "mario",
  "TotalReadoutTime": 0.0576811,
  "TxRefAmp": 236.165,
  "WipMemBlock": "03e694bb-8a16-4f26-893b-6bca5f61a0f6||Sequence: R016 ve11c/master r/e634e98; Dec 19 2017 11:00:25 by eja",
  "dcmmeta_affine": [
    [-1.9979935884475708, 0.0812954232096672, 0.037582479417324066, 101.6802978515625],
    [0.06440543383359909, 1.8873541355133057, -0.6585943102836609, -68.84952545166016],
    [0.06223607435822487, 0.6567233204841614, 1.8880786895751953, -60.62521743774414],
    [0.0, 0.0, 0.0, 1.0]
],
  "dcmmeta_reorient_transform": [
    [0.0, -1.0, 0.0, 103.0],
    [1.0, 0.0, 0.0, 0.0],
    [0.0, 0.0, 1.0, 0.0],
    [0.0, 0.0, 0.0, 1.0]
],
  "dcmmeta_shape": [104, 104, 60, 510],
  "dcmmeta_slice_dim": 2,
  "dcmmeta_version": 0.6,
  "global": {
    "const": {
      "AcquisitionMatrix": [104, 0, 0, 104],
      "AngioFlag": "N",
      "BitsAllocated": 16,
      "BitsStored": 16,
      "BodyPartExamined": "BRAIN",
      "Columns": 832,
      "EchoNumbers": 1,
      "EchoTime": 37.0,
      "EchoTrainLength": 104,
      "FlipAngle": 52.0,
      "HighBit": 15,
      "ImageOrientationPatient": [0.99899682318838, -0.032202717924, 0.03111803685696, 0.04064771331996, 0.94367705066827, -0.3283616717035],
      "ImagePositionPatient": [-866.91495062395, -789.10125871956, 223.41065469278],
      "ImageType": [
        "ORIGINAL",
        "PRIMARY",
        "P",
        "MB",
        "ND",
        "MOSAIC"
],
      "ImagedNucleus": "1H",
      "ImagingFrequency": 123.258884,
      "InPlanePhaseEncodingDirection": "COL",
      "LargestImagePixelValue": 4095,
      "MRAcquisitionType": "2D",
      "MagneticFieldStrength": 3.0,
      "Manufacturer": "SIEMENS",
      "ManufacturerModelName": "Prisma_fit",
      "Modality": "MR",
      "NumberOfAverages": 1.0,
      "NumberOfPhaseEncodingSteps": 104,
      "PercentPhaseFieldOfView": 100.0,
      "PercentSampling": 100.0,
      "PerformedProcedureStepStartTime": "150739.144000",
      "PhotometricInterpretation": "MONOCHROME2",
      "PixelBandwidth": 2290.0,
      "PixelRepresentation": 0,
      "PixelSpacing": [2.0, 2.0],
      "ProtocolName": "func_task-mario_run-04",
      "RepetitionTime": 1490.0,
      "RescaleIntercept": -4096.0,
      "RescaleSlope": 2.0,
      "RescaleType": "US",
      "Rows": 832,
      "SAR": 0.04263272139414,
      "SamplesPerPixel": 1,
      "ScanOptions": "FS",
      "ScanningSequence": "EP",
      "SequenceName": "epfid2d1_104",
      "SequenceVariant": [
        "SK",
        "SS"
],
      "SeriesDescription": "func_task-mario_run-04",
      "SeriesNumber": 20,
      "SeriesTime": "161706.102000",
      "SliceLocation": -32.649937197355,
      "SliceThickness": 2.0,
      "SmallestImagePixelValue": 0,
      "SoftwareVersions": "syngo MR E11",
      "SpacingBetweenSlices": 2.0000000415183,
      "SpecificCharacterSet": "ISO_IR 100",
      "StudyID": "1",
      "StudyTime": "150739.088000",
      "TransmitCoilName": "Body",
      "VariableFlipAngleFlag": "N",
      "WindowCenterWidthExplanation": "Algo1",
      "dBdt": 0.0},
    "slices": {}
  },
  "time": {
    "samples": {
      "AcquisitionNumber": [1, 2, 3, 4, 5, 6, 7, 8, 9, 10, 11, 12, 13, 14, 15, 16, 17, 18, 19, 20, 21, 22, 23, 24, 25, 26, 27, 28, 29, 30, 31, 32, 33, 34, 35, 36, 37, 38, 39, 40, 41, 42, 43, 44, 45, 46, 47, 48, 49, 50, 51, 52, 53, 54, 55, 56, 57, 58, 59, 60, 61, 62, 63, 64, 65, 66, 67, 68, 69, 70, 71, 72, 73, 74, 75, 76, 77, 78, 79, 80, 81, 82, 83, 84, 85, 86, 87, 88, 89, 90, 91, 92, 93, 94, 95, 96, 97, 98, 99, 100, 101, 102, 103, 104, 105, 106, 107, 108, 109, 110, 111, 112, 113, 114, 115, 116, 117, 118, 119, 120, 121, 122, 123, 124, 125, 126, 127, 128, 129, 130, 131, 132, 133, 134, 135, 136, 137, 138, 139, 140, 141, 142, 143, 144, 145, 146, 147, 148, 149, 150, 151, 152, 153, 154, 155, 156, 157, 158, 159, 160, 161, 162, 163, 164, 165, 166, 167, 168, 169, 170, 171, 172, 173, 174, 175, 176, 177, 178, 179, 180, 181, 182, 183, 184, 185, 186, 187, 188, 189, 190, 191, 192, 193, 194, 195, 196, 197, 198, 199, 200, 201, 202, 203, 204, 205, 206, 207, 208, 209, 210, 211, 212, 213, 214, 215, 216, 217, 218, 219, 220, 221, 222, 223, 224, 225, 226, 227, 228, 229, 230, 231, 232, 233, 234, 235, 236, 237, 238, 239, 240, 241, 242, 243, 244, 245, 246, 247, 248, 249, 250, 251, 252, 253, 254, 255, 256, 257, 258, 259, 260, 261, 262, 263, 264, 265, 266, 267, 268, 269, 270, 271, 272, 273, 274, 275, 276, 277, 278, 279, 280, 281, 282, 283, 284, 285, 286, 287, 288, 289, 290, 291, 292, 293, 294, 295, 296, 297, 298, 299, 300, 301, 302, 303, 304, 305, 306, 307, 308, 309, 310, 311, 312, 313, 314, 315, 316, 317, 318, 319, 320, 321, 322, 323, 324, 325, 326, 327, 328, 329, 330, 331, 332, 333, 334, 335, 336, 337, 338, 339, 340, 341, 342, 343, 344, 345, 346, 347, 348, 349, 350, 351, 352, 353, 354, 355, 356, 357, 358, 359, 360, 361, 362, 363, 364, 365, 366, 367, 368, 369, 370, 371, 372, 373, 374, 375, 376, 377, 378, 379, 380, 381, 382, 383, 384, 385, 386, 387, 388, 389, 390, 391, 392, 393, 394, 395, 396, 397, 398, 399, 400, 401, 402, 403, 404, 405, 406, 407, 408, 409, 410, 411, 412, 413, 414, 415, 416, 417, 418, 419, 420, 421, 422, 423, 424, 425, 426, 427, 428, 429, 430, 431, 432, 433, 434, 435, 436, 437, 438, 439, 440, 441, 442, 443, 444, 445, 446, 447, 448, 449, 450, 451, 452, 453, 454, 455, 456, 457, 458, 459, 460, 461, 462, 463, 464, 465, 466, 467, 468, 469, 470, 471, 472, 473, 474, 475, 476, 477, 478, 479, 480, 481, 482, 483, 484, 485, 486, 487, 488, 489, 490, 491, 492, 493, 494, 495, 496, 497, 498, 499, 500, 501, 502, 503, 504, 505, 506, 507, 508, 509, 510],
      "AcquisitionTime": ["161600.202500", "161601.692500", "161603.182500", "161604.672500", "161606.162500", "161607.652500", "161609.142500", "161610.632500", "161612.122500", "161613.612500", "161615.102500", "161616.592500", "161618.082500", "161619.572500", "161621.062500", "161622.552500", "161624.042500", "161625.532500", "161627.022500", "161628.512500", "161630.002500", "161631.492500", "161632.982500", "161634.472500", "161635.962500", "161637.452500", "161638.942500", "161640.432500", "161641.922500", "161643.412500", "161644.902500", "161646.392500", "161647.882500", "161649.372500", "161650.862500", "161652.352500", "161653.842500", "161655.332500", "161656.822500", "161658.312500", "161659.802500", "161701.292500", "161702.782500", "161704.272500", "161705.762500", "161707.252500", "161708.742500", "161710.232500", "161711.722500", "161713.212500", "161714.702500", "161716.192500", "161717.682500", "161719.172500", "161720.662500", "161722.152500", "161723.642500", "161725.132500", "161726.622500", "161728.112500", "161729.602500", "161731.092500", "161732.582500", "161734.072500", "161735.562500", "161737.052500", "161738.542500", "161740.032500", "161741.522500", "161743.012500", "161744.502500", "161745.992500", "161747.482500", "161748.972500", "161750.462500", "161751.952500", "161753.442500", "161754.932500", "161756.422500", "161757.912500", "161759.402500", "161800.892500", "161802.382500", "161803.872500", "161805.362500", "161806.852500", "161808.342500", "161809.832500", "161811.322500", "161812.812500", "161814.302500", "161815.792500", "161817.282500", "161818.772500", "161820.262500", "161821.752500", "161823.242500", "161824.732500", "161826.222500", "161827.712500", "161829.202500", "161830.692500", "161832.182500", "161833.672500", "161835.162500", "161836.652500", "161838.142500", "161839.632500", "161841.122500", "161842.612500", "161844.102500", "161845.592500", "161847.082500", "161848.572500", "161850.062500", "161851.552500", "161853.042500", "161854.532500", "161856.022500", "161857.512500", "161859.002500", "161900.492500", "161901.982500", "161903.472500", "161904.962500", "161906.452500", "161907.942500", "161909.432500", "161910.922500", "161912.412500", "161913.902500", "161915.392500", "161916.882500", "161918.372500", "161919.862500", "161921.352500", "161922.842500", "161924.332500", "161925.822500", "161927.312500", "161928.802500", "161930.292500", "161931.782500", "161933.272500", "161934.762500", "161936.252500", "161937.742500", "161939.232500", "161940.722500", "161942.212500", "161943.702500", "161945.192500", "161946.682500", "161948.172500", "161949.662500", "161951.152500", "161952.642500", "161954.132500", "161955.622500", "161957.112500", "161958.602500", "162000.092500", "162001.582500", "162003.072500", "162004.562500", "162006.052500", "162007.542500", "162009.032500", "162010.522500", "162012.012500", "162013.502500", "162014.992500", "162016.482500", "162017.972500", "162019.462500", "162020.952500", "162022.442500", "162023.932500", "162025.422500", "162026.912500", "162028.402500", "162029.892500", "162031.382500", "162032.872500", "162034.362500", "162035.852500", "162037.342500", "162038.832500", "162040.322500", "162041.812500", "162043.302500", "162044.792500", "162046.282500", "162047.772500", "162049.262500", "162050.752500", "162052.242500", "162053.732500", "162055.222500", "162056.712500", "162058.202500", "162059.692500", "162101.182500", "162102.672500", "162104.162500", "162105.652500", "162107.142500", "162108.632500", "162110.122500", "162111.612500", "162113.102500", "162114.592500", "162116.082500", "162117.572500", "162119.062500", "162120.552500", "162122.042500", "162123.532500", "162125.022500", "162126.512500", "162128.002500", "162129.492500", "162130.982500", "162132.472500", "162133.962500", "162135.452500", "162136.942500", "162138.432500", "162139.922500", "162141.412500", "162142.902500", "162144.392500", "162145.882500", "162147.372500", "162148.862500", "162150.352500", "162151.842500", "162153.332500", "162154.822500", "162156.312500", "162157.802500", "162159.292500", "162200.782500", "162202.272500", "162203.762500", "162205.252500", "162206.742500", "162208.232500", "162209.722500", "162211.212500", "162212.702500", "162214.192500", "162215.682500", "162217.172500", "162218.662500", "162220.152500", "162221.642500", "162223.132500", "162224.622500", "162226.112500", "162227.602500", "162229.092500", "162230.582500", "162232.072500", "162233.562500", "162235.052500", "162236.542500", "162238.032500", "162239.522500", "162241.012500", "162242.502500", "162243.992500", "162245.482500", "162246.972500", "162248.462500", "162249.952500", "162251.442500", "162252.932500", "162254.422500", "162255.912500", "162257.402500", "162258.892500", "162300.382500", "162301.872500", "162303.362500", "162304.852500", "162306.342500", "162307.832500", "162309.322500", "162310.812500", "162312.302500", "162313.792500", "162315.282500", "162316.772500", "162318.262500", "162319.752500", "162321.242500", "162322.732500", "162324.222500", "162325.712500", "162327.202500", "162328.692500", "162330.182500", "162331.672500", "162333.162500", "162334.652500", "162336.142500", "162337.632500", "162339.122500", "162340.612500", "162342.102500", "162343.592500", "162345.082500", "162346.572500", "162348.062500", "162349.552500", "162351.042500", "162352.532500", "162354.022500", "162355.512500", "162357.002500", "162358.492500", "162359.982500", "162401.472500", "162402.962500", "162404.452500", "162405.942500", "162407.432500", "162408.922500", "162410.412500", "162411.902500", "162413.392500", "162414.882500", "162416.372500", "162417.862500", "162419.352500", "162420.842500", "162422.332500", "162423.822500", "162425.312500", "162426.802500", "162428.292500", "162429.782500", "162431.272500", "162432.762500", "162434.252500", "162435.742500", "162437.232500", "162438.722500", "162440.212500", "162441.702500", "162443.192500", "162444.682500", "162446.172500", "162447.662500", "162449.152500", "162450.642500", "162452.132500", "162453.622500", "162455.112500", "162456.602500", "162458.092500", "162459.582500", "162501.072500", "162502.562500", "162504.052500", "162505.542500", "162507.032500", "162508.522500", "162510.012500", "162511.502500", "162512.992500", "162514.482500", "162515.972500", "162517.462500", "162518.952500", "162520.442500", "162521.932500", "162523.422500", "162524.912500", "162526.402500", "162527.892500", "162529.382500", "162530.872500", "162532.362500", "162533.852500", "162535.342500", "162536.832500", "162538.322500", "162539.812500", "162541.302500", "162542.792500", "162544.282500", "162545.772500", "162547.262500", "162548.752500", "162550.242500", "162551.732500", "162553.222500", "162554.712500", "162556.202500", "162557.692500", "162559.182500", "162600.672500", "162602.162500", "162603.652500", "162605.142500", "162606.632500", "162608.122500", "162609.612500", "162611.102500", "162612.592500", "162614.082500", "162615.572500", "162617.062500", "162618.552500", "162620.042500", "162621.532500", "162623.022500", "162624.512500", "162626.002500", "162627.492500", "162628.982500", "162630.472500", "162631.962500", "162633.452500", "162634.942500", "162636.432500", "162637.922500", "162639.412500", "162640.902500", "162642.392500", "162643.882500", "162645.372500", "162646.862500", "162648.352500", "162649.842500", "162651.332500", "162652.822500", "162654.312500", "162655.802500", "162657.292500", "162658.782500", "162700.272500", "162701.762500", "162703.252500", "162704.742500", "162706.232500", "162707.722500", "162709.212500", "162710.702500", "162712.192500", "162713.682500", "162715.172500", "162716.662500", "162718.152500", "162719.642500", "162721.132500", "162722.622500", "162724.112500", "162725.602500", "162727.092500", "162728.582500", "162730.072500", "162731.562500", "162733.052500", "162734.542500", "162736.032500", "162737.522500", "162739.012500", "162740.502500", "162741.992500", "162743.482500", "162744.972500", "162746.462500", "162747.952500", "162749.442500", "162750.932500", "162752.422500", "162753.912500", "162755.402500", "162756.892500", "162758.382500", "162759.872500", "162801.362500", "162802.852500", "162804.342500", "162805.832500", "162807.322500", "162808.812500", "162810.302500", "162811.792500", "162813.282500", "162814.772500", "162816.262500", "162817.752500", "162819.242500", "162820.732500", "162822.222500", "162823.712500", "162825.202500", "162826.692500", "162828.182500", "162829.672500", "162831.162500", "162832.652500", "162834.142500", "162835.632500", "162837.122500", "162838.612500"],
      "ContentTime": ["161706.104000", "161706.107000", "161706.119000", "161706.121000", "161706.124000", "161706.126000", "161706.138000", "161706.140000", "161706.143000", "161706.145000", "161726.112000", "161726.115000", "161726.118000", "161726.120000", "161726.123000", "161726.125000", "161726.128000", "161726.130000", "161726.140000", "161726.142000", "161726.145000", "161726.148000", "161726.150000", "161726.153000", "161726.155000", "161726.158000", "161726.160000", "161726.163000", "161726.165000", "161726.168000", "161726.170000", "161746.111000", "161746.114000", "161746.117000", "161746.119000", "161746.122000", "161746.124000", "161746.127000", "161746.129000", "161746.132000", "161746.134000", "161746.137000", "161746.139000", "161746.142000", "161746.144000", "161746.147000", "161746.149000", "161746.152000", "161746.154000", "161746.156000", "161746.163000", "161806.128000", "161806.131000", "161806.133000", "161806.136000", "161806.138000", "161806.141000", "161806.143000", "161806.146000", "161806.149000", "161806.151000", "161806.154000", "161806.156000", "161806.159000", "161806.161000", "161806.164000", "161806.166000", "161806.169000", "161806.171000", "161806.174000", "161806.176000", "161826.110000", "161826.113000", "161826.115000", "161826.118000", "161826.120000", "161826.123000", "161826.126000", "161826.128000", "161826.130000", "161826.133000", "161826.135000", "161826.138000", "161826.140000", "161826.143000", "161826.145000", "161826.148000", "161826.150000", "161826.153000", "161826.155000", "161826.158000", "161906.164000", "161906.167000", "161906.169000", "161906.172000", "161906.175000", "161906.177000", "161906.180000", "161906.182000", "161906.185000", "161906.187000", "161906.190000", "161906.192000", "161906.195000", "161906.197000", "161906.200000", "161906.202000", "161906.205000", "161906.207000", "161906.210000", "161906.212000", "161906.215000", "161906.217000", "161906.220000", "161906.222000", "161906.225000", "161906.227000", "161906.230000", "161906.232000", "161906.235000", "161906.238000", "161906.240000", "161906.243000", "161906.245000", "161946.154000", "161946.157000", "161946.160000", "161946.162000", "161946.165000", "161946.167000", "161946.170000", "161946.172000", "161946.175000", "161946.178000", "161946.180000", "161946.183000", "161946.185000", "161946.188000", "161946.190000", "161946.193000", "161946.196000", "161946.198000", "161946.201000", "161946.203000", "161946.206000", "161946.208000", "161946.211000", "161946.213000", "161946.216000", "161946.219000", "161946.221000", "162026.168000", "162026.171000", "162026.186000", "162026.188000", "162026.191000", "162026.193000", "162026.196000", "162026.198000", "162026.201000", "162026.203000", "162026.206000", "162026.209000", "162026.211000", "162026.214000", "162026.216000", "162026.219000", "162026.221000", "162026.224000", "162026.227000", "162026.229000", "162026.232000", "162026.234000", "162026.237000", "162026.239000", "162026.242000", "162026.245000", "162026.247000", "162106.153000", "162106.156000", "162106.158000", "162106.161000", "162106.163000", "162106.166000", "162106.169000", "162106.171000", "162106.174000", "162106.185000", "162106.188000", "162106.191000", "162106.193000", "162106.196000", "162106.198000", "162106.202000", "162106.204000", "162106.207000", "162106.210000", "162106.212000", "162106.215000", "162106.218000", "162106.220000", "162106.223000", "162106.225000", "162106.228000", "162146.155000", "162146.158000", "162146.160000", "162146.163000", "162146.165000", "162146.168000", "162146.170000", "162146.173000", "162146.175000", "162146.178000", "162146.180000", "162146.183000", "162146.186000", "162146.188000", "162146.190000", "162146.193000", "162146.196000", "162146.198000", "162146.201000", "162146.203000", "162146.206000", "162146.208000", "162146.211000", "162146.213000", "162146.216000", "162146.218000", "162146.221000", "162226.134000", "162226.137000", "162226.139000", "162226.142000", "162226.144000", "162226.147000", "162226.149000", "162226.152000", "162226.154000", "162226.157000", "162226.159000", "162226.162000", "162226.164000", "162226.167000", "162226.169000", "162226.172000", "162226.174000", "162226.177000", "162226.183000", "162226.185000", "162226.188000", "162226.190000", "162226.193000", "162226.196000", "162226.198000", "162226.201000", "162226.203000", "162306.154000", "162306.157000", "162306.160000", "162306.162000", "162306.165000", "162306.167000", "162306.170000", "162306.172000", "162306.175000", "162306.177000", "162306.180000", "162306.182000", "162306.185000", "162306.187000", "162306.190000", "162306.192000", "162306.195000", "162306.197000", "162306.200000", "162306.202000", "162306.205000", "162306.207000", "162306.210000", "162306.212000", "162306.215000", "162306.217000", "162306.220000", "162346.139000", "162346.142000", "162346.144000", "162346.147000", "162346.149000", "162346.152000", "162346.155000", "162346.157000", "162346.160000", "162346.162000", "162346.165000", "162346.167000", "162346.170000", "162346.172000", "162346.175000", "162346.177000", "162346.180000", "162346.182000", "162346.185000", "162346.188000", "162346.190000", "162346.193000", "162346.195000", "162346.198000", "162346.200000", "162346.203000", "162346.205000", "162426.147000", "162426.150000", "162426.152000", "162426.155000", "162426.158000", "162426.160000", "162426.163000", "162426.165000", "162426.168000", "162426.170000", "162426.173000", "162426.176000", "162426.178000", "162426.181000", "162426.183000", "162426.186000", "162426.188000", "162426.191000", "162426.193000", "162426.196000", "162426.199000", "162426.201000", "162426.204000", "162426.206000", "162426.209000", "162426.211000", "162426.214000", "162506.184000", "162506.187000", "162506.190000", "162506.192000", "162506.195000", "162506.197000", "162506.200000", "162506.202000", "162506.205000", "162506.207000", "162506.210000", "162506.221000", "162506.223000", "162506.226000", "162506.228000", "162506.231000", "162506.234000", "162506.236000", "162506.239000", "162506.242000", "162506.244000", "162506.247000", "162506.249000", "162506.252000", "162506.255000", "162506.257000", "162546.141000", "162546.144000", "162546.146000", "162546.149000", "162546.151000", "162546.154000", "162546.156000", "162546.159000", "162546.161000", "162546.164000", "162546.166000", "162546.170000", "162546.173000", "162546.175000", "162546.178000", "162546.180000", "162546.183000", "162546.185000", "162546.188000", "162546.190000", "162546.193000", "162546.195000", "162546.198000", "162546.200000", "162546.203000", "162546.205000", "162546.208000", "162626.126000", "162626.129000", "162626.131000", "162626.134000", "162626.137000", "162626.139000", "162626.142000", "162626.144000", "162626.147000", "162626.149000", "162626.152000", "162626.154000", "162626.157000", "162626.159000", "162626.162000", "162626.164000", "162626.167000", "162626.169000", "162626.172000", "162626.174000", "162626.177000", "162626.179000", "162626.182000", "162626.184000", "162626.187000", "162626.190000", "162626.192000", "162706.152000", "162706.154000", "162706.157000", "162706.159000", "162706.162000", "162706.164000", "162706.167000", "162706.170000", "162706.172000", "162706.175000", "162706.177000", "162706.180000", "162706.182000", "162706.185000", "162706.187000", "162706.190000", "162706.193000", "162706.202000", "162706.205000", "162706.207000", "162706.210000", "162706.212000", "162706.215000", "162706.217000", "162706.220000", "162706.223000", "162706.225000", "162746.142000", "162746.144000", "162746.147000", "162746.150000", "162746.152000", "162746.155000", "162746.157000", "162746.160000", "162746.162000", "162746.165000", "162746.167000", "162746.170000", "162746.172000", "162746.175000", "162746.177000", "162746.180000", "162746.182000", "162746.185000", "162746.187000", "162746.190000", "162746.193000", "162746.195000", "162746.198000", "162746.200000", "162746.203000", "162746.205000", "162746.208000", "162826.145000", "162826.148000", "162826.150000", "162826.153000", "162826.155000", "162826.158000", "162826.160000", "162826.163000", "162826.166000", "162826.168000", "162826.171000", "162826.173000", "162826.176000", "162826.178000", "162826.181000", "162826.183000", "162826.186000", "162826.188000", "162826.191000", "162826.193000", "162826.196000", "162826.198000", "162826.201000", "162826.204000", "162826.206000", "162826.209000", "162826.211000", "162842.094000", "162842.097000", "162842.099000", "162842.102000", "162842.104000", "162842.107000", "162842.109000", "162842.112000", "162842.114000", "162842.117000"],
