{
  "AcquisitionMatrixPE": 104,
  "AcquisitionNumber": 1,
  "AcquisitionTime": "15:45:50.370000",
  "BandwidthPerPixelPhaseEncode": 17.17,
  "BaseResolution": 104,
  "BodyPartExamined": "BRAIN",
  "CoilCombinationMethod": "Sum of Squares",
  "ConsistencyInfo": "N4_VE11C_LATEST_20160120",
  "ConversionSoftware": "dcm2niix",
  "ConversionSoftwareVersion": "v1.0.20211006",
  "DerivedVendorReportedEchoSpacing": 0.000560011,
  "DeviceSerialNumber": "167006",
  "DwellTime": 2.1e-06,
  "EchoTime": 0.037,
  "EchoTrainLength": 104,
  "EffectiveEchoSpacing": 0.000560011,
  "FlipAngle": 52,
  "HeudiconvVersion": "0.5.3.post569+g418601f",
  "ImageComments": "Unaliased MB4/PE3/LB",
  "ImageOrientationPatientDICOM": [0.999508, -0.0311821, -0.00340197, 0.0284425, 0.946699, -0.32086],
  "ImageOrientationText": "Tra>Cor(-18.7)>Sag(-0.8)",
  "ImageType": [
    "ORIGINAL",
    "PRIMARY",
    "M",
    "MB",
    "ND",
    "MOSAIC"
],
  "ImagingFrequency": 123.259,
  "InPlanePhaseEncodingDirectionDICOM": "COL",
  "InstitutionAddress": "Chemin Queen-Mary 4565,Montreal,District,CA,H3W 1W5",
  "InstitutionName": "IUGM",
  "InstitutionalDepartmentName": "Department",
  "MRAcquisitionType": "2D",
  "MagneticFieldStrength": 3,
  "Manufacturer": "Siemens",
  "ManufacturersModelName": "Prisma_fit",
  "MatrixCoilMode": "SENSE",
  "Modality": "MR",
  "MultibandAccelerationFactor": 4,
  "PartialFourier": 1,
  "PatientPosition": "HFS",
  "PercentPhaseFOV": 100,
  "PercentSampling": 100,
  "PhaseEncodingDirection": "j",
  "PhaseEncodingSteps": 104,
  "PhaseResolution": 1,
  "PixelBandwidth": 2290,
  "ProcedureStepDescription": "games^mario",
  "ProtocolName": "func_task-mario_run-03",
  "PulseSequenceDetails": "%CustomerSeq%\\cmrr_mbep2d_bold",
  "ReceiveCoilActiveElements": "HC1-7;NC1,2",
  "ReceiveCoilName": "HeadNeck_64",
  "ReconMatrixPE": 104,
  "RepetitionTime": 1.49,
  "SAR": 0.0502123,
  "ScanOptions": "FS",
  "ScanningSequence": "EP",
  "SequenceName": "epfid2d1_104",
  "SequenceVariant": "SK\\SS",
  "SeriesDescription": "func_task-mario_run-03",
  "SeriesNumber": 16,
  "ShimSetting": [614, -7254, -8808, 610, -35, -202, -37, -23],
  "SliceThickness": 2,
  "SliceTiming": [0, 0.785, 0.0975, 0.8825, 0.1975, 0.98, 0.295, 1.0775, 0.3925, 1.1775, 0.49, 1.275, 0.5875, 1.3725, 0.6875, 0, 0.785, 0.0975, 0.8825, 0.1975, 0.98, 0.295, 1.0775, 0.3925, 1.1775, 0.49, 1.275, 0.5875, 1.3725, 0.6875, 0, 0.785, 0.0975, 0.8825, 0.1975, 0.98, 0.295, 1.0775, 0.3925, 1.1775, 0.49, 1.275, 0.5875, 1.3725, 0.6875, 0, 0.785, 0.0975, 0.8825, 0.1975, 0.98, 0.295, 1.0775, 0.3925, 1.1775, 0.49, 1.275, 0.5875, 1.3725, 0.6875],
  "SoftwareVersions": "syngo MR E11",
  "SpacingBetweenSlices": 2,
  "StationName": "MRC35049",
  "TaskName": "mario",
  "TotalReadoutTime": 0.0576811,
  "TxRefAmp": 257.288,
  "WipMemBlock": "35d9ad3a-1839-415c-9db8-a51528e794f7||Sequence: R016 ve11c/master r/e634e98; Dec 19 2017 11:00:25 by eja",
  "dcmmeta_affine": [
    [-1.9990158081054688, 0.0568850003182888, -0.026451464742422104, 103.76811218261719],
    [0.06236416846513748, 1.8933988809585571, -0.6412107944488525, -69.4587631225586],
    [-0.0068039484322071075, 0.6417201161384583, 1.8942409753799438, -60.85423278808594],
    [0.0, 0.0, 0.0, 1.0]
],
  "dcmmeta_reorient_transform": [
    [0.0, -1.0, 0.0, 103.0],
    [1.0, 0.0, 0.0, 0.0],
    [0.0, 0.0, 1.0, 0.0],
    [0.0, 0.0, 0.0, 1.0]
],
  "dcmmeta_shape": [104, 104, 60, 471],
  "dcmmeta_slice_dim": 2,
  "dcmmeta_version": 0.6,
  "global": {
    "const": {
      "AcquisitionMatrix": [104, 0, 0, 104],
      "AngioFlag": "N",
      "BitsAllocated": 16,
      "BitsStored": 16,
      "BodyPartExamined": "BRAIN",
      "Columns": 832,
      "EchoNumbers": 1,
      "EchoTime": 37.0,
      "EchoTrainLength": 104,
      "FlipAngle": 52.0,
      "HighBit": 15,
      "ImageOrientationPatient": [0.99950793101373, -0.0311820848031, -0.0034019741318, 0.02844250070695, 0.94669945271378, -0.3208600479726],
      "ImagePositionPatient": [-857.97517955217, -792.05796520786, 241.3056881361],
      "ImageType": [
        "ORIGINAL",
        "PRIMARY",
        "M",
        "MB",
        "ND",
        "MOSAIC"
],
      "ImagedNucleus": "1H",
      "ImagingFrequency": 123.25884,
      "InPlanePhaseEncodingDirection": "COL",
      "MRAcquisitionType": "2D",
      "MagneticFieldStrength": 3.0,
      "Manufacturer": "SIEMENS",
      "ManufacturerModelName": "Prisma_fit",
      "Modality": "MR",
      "NumberOfAverages": 1.0,
      "NumberOfPhaseEncodingSteps": 104,
      "PercentPhaseFieldOfView": 100.0,
      "PercentSampling": 100.0,
      "PerformedProcedureStepStartTime": "144003.775000",
      "PhotometricInterpretation": "MONOCHROME2",
      "PixelBandwidth": 2290.0,
      "PixelRepresentation": 0,
      "PixelSpacing": [2.0, 2.0],
      "ProtocolName": "func_task-mario_run-03",
      "RepetitionTime": 1490.0,
      "Rows": 832,
      "SAR": 0.05021225686747,
      "SamplesPerPixel": 1,
      "ScanOptions": "FS",
      "ScanningSequence": "EP",
      "SequenceName": "epfid2d1_104",
      "SequenceVariant": [
        "SK",
        "SS"
],
      "SeriesDescription": "func_task-mario_run-03",
      "SeriesNumber": 16,
      "SeriesTime": "154656.009000",
      "SliceLocation": -36.739846530618,
      "SliceThickness": 2.0,
      "SmallestImagePixelValue": 0,
      "SoftwareVersions": "syngo MR E11",
      "SpacingBetweenSlices": 2.0000000157572,
      "SpecificCharacterSet": "ISO_IR 100",
      "StudyID": "1",
      "StudyTime": "144003.723000",
      "TransmitCoilName": "Body",
      "VariableFlipAngleFlag": "N",
      "WindowCenterWidthExplanation": "Algo1",
      "dBdt": 0.0},
    "slices": {}
  },
  "time": {
    "samples": {
      "AcquisitionNumber": [1, 2, 3, 4, 5, 6, 7, 8, 9, 10, 11, 12, 13, 14, 15, 16, 17, 18, 19, 20, 21, 22, 23, 24, 25, 26, 27, 28, 29, 30, 31, 32, 33, 34, 35, 36, 37, 38, 39, 40, 41, 42, 43, 44, 45, 46, 47, 48, 49, 50, 51, 52, 53, 54, 55, 56, 57, 58, 59, 60, 61, 62, 63, 64, 65, 66, 67, 68, 69, 70, 71, 72, 73, 74, 75, 76, 77, 78, 79, 80, 81, 82, 83, 84, 85, 86, 87, 88, 89, 90, 91, 92, 93, 94, 95, 96, 97, 98, 99, 100, 101, 102, 103, 104, 105, 106, 107, 108, 109, 110, 111, 112, 113, 114, 115, 116, 117, 118, 119, 120, 121, 122, 123, 124, 125, 126, 127, 128, 129, 130, 131, 132, 133, 134, 135, 136, 137, 138, 139, 140, 141, 142, 143, 144, 145, 146, 147, 148, 149, 150, 151, 152, 153, 154, 155, 156, 157, 158, 159, 160, 161, 162, 163, 164, 165, 166, 167, 168, 169, 170, 171, 172, 173, 174, 175, 176, 177, 178, 179, 180, 181, 182, 183, 184, 185, 186, 187, 188, 189, 190, 191, 192, 193, 194, 195, 196, 197, 198, 199, 200, 201, 202, 203, 204, 205, 206, 207, 208, 209, 210, 211, 212, 213, 214, 215, 216, 217, 218, 219, 220, 221, 222, 223, 224, 225, 226, 227, 228, 229, 230, 231, 232, 233, 234, 235, 236, 237, 238, 239, 240, 241, 242, 243, 244, 245, 246, 247, 248, 249, 250, 251, 252, 253, 254, 255, 256, 257, 258, 259, 260, 261, 262, 263, 264, 265, 266, 267, 268, 269, 270, 271, 272, 273, 274, 275, 276, 277, 278, 279, 280, 281, 282, 283, 284, 285, 286, 287, 288, 289, 290, 291, 292, 293, 294, 295, 296, 297, 298, 299, 300, 301, 302, 303, 304, 305, 306, 307, 308, 309, 310, 311, 312, 313, 314, 315, 316, 317, 318, 319, 320, 321, 322, 323, 324, 325, 326, 327, 328, 329, 330, 331, 332, 333, 334, 335, 336, 337, 338, 339, 340, 341, 342, 343, 344, 345, 346, 347, 348, 349, 350, 351, 352, 353, 354, 355, 356, 357, 358, 359, 360, 361, 362, 363, 364, 365, 366, 367, 368, 369, 370, 371, 372, 373, 374, 375, 376, 377, 378, 379, 380, 381, 382, 383, 384, 385, 386, 387, 388, 389, 390, 391, 392, 393, 394, 395, 396, 397, 398, 399, 400, 401, 402, 403, 404, 405, 406, 407, 408, 409, 410, 411, 412, 413, 414, 415, 416, 417, 418, 419, 420, 421, 422, 423, 424, 425, 426, 427, 428, 429, 430, 431, 432, 433, 434, 435, 436, 437, 438, 439, 440, 441, 442, 443, 444, 445, 446, 447, 448, 449, 450, 451, 452, 453, 454, 455, 456, 457, 458, 459, 460, 461, 462, 463, 464, 465, 466, 467, 468, 469, 470, 471],
      "AcquisitionTime": ["154550.370000", "154551.860000", "154553.350000", "154554.840000", "154556.330000", "154557.820000", "154559.310000", "154600.800000", "154602.290000", "154603.780000", "154605.270000", "154606.760000", "154608.250000", "154609.740000", "154611.230000", "154612.720000", "154614.210000", "154615.700000", "154617.190000", "154618.680000", "154620.170000", "154621.660000", "154623.150000", "154624.640000", "154626.130000", "154627.620000", "154629.110000", "154630.600000", "154632.090000", "154633.580000", "154635.070000", "154636.560000", "154638.050000", "154639.540000", "154641.030000", "154642.520000", "154644.010000", "154645.500000", "154646.990000", "154648.480000", "154649.970000", "154651.460000", "154652.950000", "154654.440000", "154655.930000", "154657.420000", "154658.910000", "154700.400000", "154701.890000", "154703.380000", "154704.870000", "154706.360000", "154707.850000", "154709.340000", "154710.830000", "154712.320000", "154713.810000", "154715.300000", "154716.790000", "154718.280000", "154719.770000", "154721.260000", "154722.750000", "154724.240000", "154725.730000", "154727.220000", "154728.710000", "154730.200000", "154731.690000", "154733.180000", "154734.670000", "154736.160000", "154737.650000", "154739.140000", "154740.630000", "154742.120000", "154743.610000", "154745.100000", "154746.590000", "154748.080000", "154749.570000", "154751.060000", "154752.550000", "154754.040000", "154755.530000", "154757.020000", "154758.510000", "154800.000000", "154801.490000", "154802.980000", "154804.470000", "154805.960000", "154807.450000", "154808.940000", "154810.430000", "154811.920000", "154813.410000", "154814.900000", "154816.390000", "154817.880000", "154819.370000", "154820.860000", "154822.350000", "154823.840000", "154825.330000", "154826.820000", "154828.310000", "154829.800000", "154831.290000", "154832.780000", "154834.270000", "154835.760000", "154837.250000", "154838.740000", "154840.230000", "154841.720000", "154843.210000", "154844.700000", "154846.190000", "154847.680000", "154849.170000", "154850.660000", "154852.150000", "154853.640000", "154855.130000", "154856.620000", "154858.110000", "154859.600000", "154901.090000", "154902.580000", "154904.070000", "154905.560000", "154907.050000", "154908.540000", "154910.030000", "154911.520000", "154913.010000", "154914.500000", "154915.990000", "154917.480000", "154918.970000", "154920.460000", "154921.950000", "154923.440000", "154924.930000", "154926.420000", "154927.910000", "154929.400000", "154930.890000", "154932.380000", "154933.870000", "154935.360000", "154936.850000", "154938.340000", "154939.830000", "154941.320000", "154942.810000", "154944.300000", "154945.790000", "154947.280000", "154948.770000", "154950.260000", "154951.750000", "154953.240000", "154954.730000", "154956.220000", "154957.710000", "154959.200000", "155000.690000", "155002.180000", "155003.670000", "155005.160000", "155006.650000", "155008.140000", "155009.630000", "155011.120000", "155012.610000", "155014.100000", "155015.590000", "155017.080000", "155018.570000", "155020.060000", "155021.550000", "155023.040000", "155024.530000", "155026.020000", "155027.510000", "155029.000000", "155030.490000", "155031.980000", "155033.470000", "155034.960000", "155036.450000", "155037.940000", "155039.430000", "155040.920000", "155042.410000", "155043.900000", "155045.390000", "155046.880000", "155048.370000", "155049.860000", "155051.350000", "155052.840000", "155054.330000", "155055.820000", "155057.310000", "155058.800000", "155100.290000", "155101.780000", "155103.270000", "155104.760000", "155106.250000", "155107.740000", "155109.230000", "155110.720000", "155112.210000", "155113.700000", "155115.190000", "155116.680000", "155118.170000", "155119.660000", "155121.150000", "155122.640000", "155124.130000", "155125.620000", "155127.110000", "155128.600000", "155130.090000", "155131.580000", "155133.070000", "155134.560000", "155136.050000", "155137.540000", "155139.030000", "155140.520000", "155142.010000", "155143.500000", "155144.990000", "155146.480000", "155147.970000", "155149.460000", "155150.950000", "155152.440000", "155153.930000", "155155.420000", "155156.910000", "155158.400000", "155159.890000", "155201.380000", "155202.870000", "155204.360000", "155205.850000", "155207.340000", "155208.830000", "155210.320000", "155211.810000", "155213.300000", "155214.790000", "155216.280000", "155217.770000", "155219.260000", "155220.750000", "155222.240000", "155223.730000", "155225.220000", "155226.710000", "155228.200000", "155229.690000", "155231.180000", "155232.670000", "155234.160000", "155235.650000", "155237.140000", "155238.630000", "155240.120000", "155241.610000", "155243.100000", "155244.590000", "155246.080000", "155247.570000", "155249.060000", "155250.550000", "155252.040000", "155253.530000", "155255.020000", "155256.510000", "155258.000000", "155259.490000", "155300.980000", "155302.470000", "155303.960000", "155305.450000", "155306.940000", "155308.430000", "155309.920000", "155311.410000", "155312.900000", "155314.390000", "155315.880000", "155317.370000", "155318.860000", "155320.350000", "155321.840000", "155323.330000", "155324.820000", "155326.310000", "155327.800000", "155329.290000", "155330.780000", "155332.270000", "155333.760000", "155335.250000", "155336.740000", "155338.230000", "155339.720000", "155341.210000", "155342.700000", "155344.190000", "155345.680000", "155347.170000", "155348.660000", "155350.150000", "155351.640000", "155353.130000", "155354.620000", "155356.110000", "155357.600000", "155359.090000", "155400.580000", "155402.070000", "155403.560000", "155405.050000", "155406.540000", "155408.030000", "155409.520000", "155411.010000", "155412.500000", "155413.990000", "155415.480000", "155416.970000", "155418.460000", "155419.950000", "155421.440000", "155422.930000", "155424.420000", "155425.910000", "155427.400000", "155428.890000", "155430.380000", "155431.870000", "155433.360000", "155434.850000", "155436.340000", "155437.830000", "155439.320000", "155440.810000", "155442.300000", "155443.790000", "155445.280000", "155446.770000", "155448.260000", "155449.750000", "155451.240000", "155452.730000", "155454.220000", "155455.710000", "155457.200000", "155458.690000", "155500.180000", "155501.670000", "155503.160000", "155504.650000", "155506.140000", "155507.630000", "155509.120000", "155510.610000", "155512.100000", "155513.590000", "155515.080000", "155516.570000", "155518.060000", "155519.550000", "155521.040000", "155522.530000", "155524.020000", "155525.510000", "155527.000000", "155528.490000", "155529.980000", "155531.470000", "155532.960000", "155534.450000", "155535.940000", "155537.430000", "155538.920000", "155540.410000", "155541.900000", "155543.390000", "155544.880000", "155546.370000", "155547.860000", "155549.350000", "155550.840000", "155552.330000", "155553.820000", "155555.310000", "155556.800000", "155558.290000", "155559.780000", "155601.270000", "155602.760000", "155604.250000", "155605.740000", "155607.230000", "155608.720000", "155610.210000", "155611.700000", "155613.190000", "155614.680000", "155616.170000", "155617.660000", "155619.150000", "155620.640000", "155622.130000", "155623.620000", "155625.110000", "155626.600000", "155628.090000", "155629.580000", "155631.070000", "155632.560000", "155634.050000", "155635.540000", "155637.030000", "155638.520000", "155640.010000", "155641.500000", "155642.990000", "155644.480000", "155645.970000", "155647.460000", "155648.950000", "155650.440000", "155651.930000", "155653.420000", "155654.910000", "155656.400000", "155657.890000", "155659.380000", "155700.870000", "155702.360000", "155703.850000", "155705.340000", "155706.830000", "155708.320000", "155709.810000", "155711.300000", "155712.790000", "155714.280000", "155715.770000", "155717.260000", "155718.750000", "155720.240000", "155721.730000", "155723.220000", "155724.710000", "155726.200000", "155727.690000", "155729.180000", "155730.670000"],
      "ContentTime": ["154656.012000", "154656.016000", "154656.019000", "154656.023000", "154656.035000", "154656.039000", "154656.042000", "154656.045000", "154656.048000", "154656.052000", "154715.971000", "154715.975000", "154715.978000", "154715.982000", "154715.985000", "154715.988000", "154715.991000", "154715.995000", "154715.998000", "154716.001000", "154716.004000", "154716.008000", "154716.011000", "154716.021000", "154716.024000", "154716.027000", "154716.031000", "154716.034000", "154716.037000", "154716.040000", "154716.044000", "154735.972000", "154735.976000", "154735.979000", "154735.982000", "154735.986000", "154735.989000", "154735.992000", "154735.996000", "154736.000000", "154736.003000", "154736.006000", "154736.010000", "154736.013000", "154736.026000", "154736.029000", "154736.033000", "154736.036000", "154736.039000", "154736.043000", "154736.046000", "154755.972000", "154755.976000", "154755.979000", "154755.982000", "154755.986000", "154755.989000", "154755.992000", "154755.996000", "154756.000000", "154756.003000", "154756.006000", "154756.010000", "154756.013000", "154756.016000", "154756.020000", "154756.023000", "154756.026000", "154756.030000", "154756.033000", "154756.036000", "154815.972000", "154815.976000", "154815.979000", "154815.982000", "154815.986000", "154815.989000", "154815.992000", "154815.996000", "154816.000000", "154816.003000", "154816.006000", "154816.010000", "154816.013000", "154816.016000", "154816.020000", "154816.023000", "154816.026000", "154816.030000", "154816.033000", "154816.036000", "154855.972000", "154855.976000", "154855.980000", "154855.983000", "154855.987000", "154855.990000", "154855.993000", "154855.997000", "154856.001000", "154856.004000", "154856.008000", "154856.011000", "154856.015000", "154856.029000", "154856.032000", "154856.036000", "154856.039000", "154856.042000", "154856.046000", "154856.049000", "154856.052000", "154856.057000", "154856.061000", "154856.064000", "154856.067000", "154856.071000", "154856.074000", "154856.077000", "154856.081000", "154856.084000", "154856.087000", "154856.090000", "154856.094000", "154935.971000", "154935.975000", "154935.978000", "154935.981000", "154935.985000", "154935.988000", "154935.992000", "154935.995000", "154935.998000", "154936.003000", "154936.006000", "154936.009000", "154936.013000", "154936.016000", "154936.019000", "154936.023000", "154936.026000", "154936.029000", "154936.032000", "154936.036000", "154936.039000", "154936.042000", "154936.046000", "154936.049000", "154936.052000", "154936.056000", "155015.972000", "155015.976000", "155015.979000", "155015.983000", "155015.986000", "155015.989000", "155015.992000", "155015.996000", "155015.999000", "155016.002000", "155016.006000", "155016.009000", "155016.012000", "155016.016000", "155016.019000", "155016.022000", "155016.026000", "155016.029000", "155016.032000", "155016.035000", "155016.039000", "155016.042000", "155016.045000", "155016.049000", "155016.052000", "155016.055000", "155016.058000", "155055.972000", "155055.976000", "155055.979000", "155055.982000", "155055.991000", "155055.994000", "155055.997000", "155056.002000", "155056.005000", "155056.008000", "155056.012000", "155056.015000", "155056.018000", "155056.022000", "155056.025000", "155056.028000", "155056.032000", "155056.035000", "155056.038000", "155056.042000", "155056.045000", "155056.048000", "155056.051000", "155056.055000", "155056.058000", "155056.061000", "155056.064000", "155135.971000", "155135.975000", "155135.978000", "155135.982000", "155135.985000", "155135.988000", "155135.991000", "155135.995000", "155135.998000", "155136.002000", "155136.006000", "155136.009000", "155136.012000", "155136.016000", "155136.019000", "155136.022000", "155136.026000", "155136.029000", "155136.032000", "155136.036000", "155136.039000", "155136.042000", "155136.046000", "155136.049000", "155136.052000", "155136.055000", "155136.059000", "155215.972000", "155215.976000", "155215.979000", "155215.983000", "155215.986000", "155215.989000", "155215.993000", "155215.996000", "155216.000000", "155216.004000", "155216.007000", "155216.011000", "155216.014000", "155216.017000", "155216.020000", "155216.024000", "155216.027000", "155216.030000", "155216.034000", "155216.037000", "155216.040000", "155216.044000", "155216.047000", "155216.050000", "155216.054000", "155216.057000", "155216.060000", "155255.972000", "155255.976000", "155255.979000", "155255.983000", "155255.986000", "155255.990000", "155255.994000", "155255.997000", "155256.002000", "155256.005000", "155256.009000", "155256.012000", "155256.016000", "155256.019000", "155256.023000", "155256.026000", "155256.029000", "155256.033000", "155256.036000", "155256.039000", "155256.043000", "155256.046000", "155256.050000", "155256.053000", "155256.056000", "155256.060000", "155256.063000", "155335.972000", "155335.975000", "155335.979000", "155335.982000", "155335.985000", "155335.989000", "155335.992000", "155336.005000", "155336.008000", "155336.011000", "155336.015000", "155336.018000", "155336.021000", "155336.025000", "155336.028000", "155336.031000", "155336.035000", "155336.038000", "155336.041000", "155336.044000", "155336.048000", "155336.051000", "155336.054000", "155336.058000", "155336.061000", "155336.064000", "155336.067000", "155415.971000", "155415.975000", "155415.978000", "155415.982000", "155415.993000", "155415.996000", "155416.000000", "155416.004000", "155416.007000", "155416.011000", "155416.014000", "155416.017000", "155416.021000", "155416.024000", "155416.028000", "155416.032000", "155416.035000", "155416.038000", "155416.042000", "155416.045000", "155416.049000", "155416.053000", "155416.056000", "155416.060000", "155416.063000", "155416.067000", "155455.972000", "155455.976000", "155455.979000", "155455.982000", "155455.986000", "155455.989000", "155455.992000", "155455.996000", "155456.000000", "155456.004000", "155456.007000", "155456.010000", "155456.014000", "155456.017000", "155456.020000", "155456.023000", "155456.027000", "155456.030000", "155456.033000", "155456.037000", "155456.040000", "155456.043000", "155456.047000", "155456.050000", "155456.053000", "155456.057000", "155456.060000", "155535.972000", "155535.976000", "155535.979000", "155535.982000", "155535.986000", "155535.989000", "155535.992000", "155535.996000", "155536.000000", "155536.003000", "155536.007000", "155536.010000", "155536.014000", "155536.017000", "155536.020000", "155536.024000", "155536.027000", "155536.030000", "155536.033000", "155536.037000", "155536.047000", "155536.050000", "155536.053000", "155536.057000", "155536.060000", "155536.063000", "155536.067000", "155555.971000", "155555.975000", "155555.978000", "155555.982000", "155555.985000", "155555.988000", "155555.991000", "155555.995000", "155555.998000", "155556.002000", "155556.005000", "155556.009000", "155556.013000", "155635.971000", "155635.975000", "155635.978000", "155635.982000", "155635.985000", "155635.988000", "155635.992000", "155635.995000", "155635.998000", "155636.003000", "155636.006000", "155636.009000", "155636.013000", "155636.016000", "155636.019000", "155636.023000", "155636.026000", "155636.029000", "155636.033000", "155636.036000", "155636.039000", "155636.043000", "155636.046000", "155636.049000", "155636.053000", "155636.056000", "155636.059000", "155715.972000", "155715.976000", "155715.979000", "155715.983000", "155715.986000", "155715.989000", "155715.993000", "155715.996000", "155715.999000", "155716.003000", "155716.006000", "155716.009000", "155716.013000", "155716.016000", "155716.019000", "155716.023000", "155716.026000", "155716.029000", "155716.033000", "155716.036000", "155716.039000", "155716.042000", "155716.046000", "155716.049000", "155716.052000", "155716.056000", "155716.059000", "155733.878000", "155733.882000", "155733.885000", "155733.888000", "155733.892000", "155733.895000", "155733.898000", "155733.902000", "155733.905000", "155733.914000", "155733.918000", "155733.921000"],
