{
  "AcquisitionMatrixPE": 104,
  "AcquisitionNumber": 1,
  "AcquisitionTime": "15:45:50.370000",
  "BandwidthPerPixelPhaseEncode": 17.17,
  "BaseResolution": 104,
  "BodyPartExamined": "BRAIN",
  "CoilCombinationMethod": "Sum of Squares",
  "ConsistencyInfo": "N4_VE11C_LATEST_20160120",
  "ConversionSoftware": "dcm2niix",
  "ConversionSoftwareVersion": "v1.0.20211006",
  "DerivedVendorReportedEchoSpacing": 0.000560011,
  "DeviceSerialNumber": "167006",
  "DwellTime": 2.1e-06,
  "EchoTime": 0.037,
  "EchoTime1": 0.037,
  "EchoTime2": 0.001,
  "EchoTrainLength": 104,
  "EffectiveEchoSpacing": 0.000560011,
  "FlipAngle": 52,
  "HeudiconvVersion": "0.5.3.post569+g418601f",
  "ImageComments": "Unaliased MB4/PE3/LB",
  "ImageOrientationPatientDICOM": [0.999508, -0.0311821, -0.00340197, 0.0284425, 0.946699, -0.32086],
  "ImageOrientationText": "Tra>Cor(-18.7)>Sag(-0.8)",
  "ImageType": [
    "ORIGINAL",
    "PRIMARY",
    "P",
    "MB",
    "ND",
    "MOSAIC",
    "PHASE"
],
  "ImagingFrequency": 123.259,
  "InPlanePhaseEncodingDirectionDICOM": "COL",
  "InstitutionAddress": "Chemin Queen-Mary 4565,Montreal,District,CA,H3W 1W5",
  "InstitutionName": "IUGM",
  "InstitutionalDepartmentName": "Department",
  "MRAcquisitionType": "2D",
  "MagneticFieldStrength": 3,
  "Manufacturer": "Siemens",
  "ManufacturersModelName": "Prisma_fit",
  "MatrixCoilMode": "SENSE",
  "Modality": "MR",
  "MultibandAccelerationFactor": 4,
  "PartialFourier": 1,
  "PatientPosition": "HFS",
  "PercentPhaseFOV": 100,
  "PercentSampling": 100,
  "PhaseEncodingDirection": "j",
  "PhaseEncodingSteps": 104,
  "PhaseResolution": 1,
  "PixelBandwidth": 2290,
  "ProcedureStepDescription": "games^mario",
  "ProtocolName": "func_task-mario_run-03",
  "PulseSequenceDetails": "%CustomerSeq%\\cmrr_mbep2d_bold",
  "ReceiveCoilActiveElements": "HC1-7;NC1,2",
  "ReceiveCoilName": "HeadNeck_64",
  "ReconMatrixPE": 104,
  "RepetitionTime": 1.49,
  "SAR": 0.0502123,
  "ScanOptions": "FS",
  "ScanningSequence": "EP",
  "SequenceName": "epfid2d1_104",
  "SequenceVariant": "SK\\SS",
  "SeriesDescription": "func_task-mario_run-03",
  "SeriesNumber": 17,
  "ShimSetting": [614, -7254, -8808, 610, -35, -202, -37, -23],
  "SliceThickness": 2,
  "SliceTiming": [0, 0.785, 0.0975, 0.8825, 0.1975, 0.98, 0.295, 1.0775, 0.3925, 1.1775, 0.49, 1.275, 0.5875, 1.3725, 0.6875, 0, 0.785, 0.0975, 0.8825, 0.1975, 0.98, 0.295, 1.0775, 0.3925, 1.1775, 0.49, 1.275, 0.5875, 1.3725, 0.6875, 0, 0.785, 0.0975, 0.8825, 0.1975, 0.98, 0.295, 1.0775, 0.3925, 1.1775, 0.49, 1.275, 0.5875, 1.3725, 0.6875, 0, 0.785, 0.0975, 0.8825, 0.1975, 0.98, 0.295, 1.0775, 0.3925, 1.1775, 0.49, 1.275, 0.5875, 1.3725, 0.6875],
  "SoftwareVersions": "syngo MR E11",
  "SpacingBetweenSlices": 2,
  "StationName": "MRC35049",
  "TaskName": "mario",
  "TotalReadoutTime": 0.0576811,
  "TxRefAmp": 257.288,
  "WipMemBlock": "35d9ad3a-1839-415c-9db8-a51528e794f7||Sequence: R016 ve11c/master r/e634e98; Dec 19 2017 11:00:25 by eja",
  "dcmmeta_affine": [
    [-1.9990158081054688, 0.0568850003182888, -0.026451464742422104, 103.76811218261719],
    [0.06236416846513748, 1.8933988809585571, -0.6412107944488525, -69.4587631225586],
    [-0.0068039484322071075, 0.6417201161384583, 1.8942409753799438, -60.85423278808594],
    [0.0, 0.0, 0.0, 1.0]
],
  "dcmmeta_reorient_transform": [
    [0.0, -1.0, 0.0, 103.0],
    [1.0, 0.0, 0.0, 0.0],
    [0.0, 0.0, 1.0, 0.0],
    [0.0, 0.0, 0.0, 1.0]
],
  "dcmmeta_shape": [104, 104, 60, 471],
  "dcmmeta_slice_dim": 2,
  "dcmmeta_version": 0.6,
  "global": {
    "const": {
      "AcquisitionMatrix": [104, 0, 0, 104],
      "AngioFlag": "N",
      "BitsAllocated": 16,
      "BitsStored": 16,
      "BodyPartExamined": "BRAIN",
      "Columns": 832,
      "EchoNumbers": 1,
      "EchoTime": 37.0,
      "EchoTrainLength": 104,
      "FlipAngle": 52.0,
      "HighBit": 15,
      "ImageOrientationPatient": [0.99950793101373, -0.0311820848031, -0.0034019741318, 0.02844250070695, 0.94669945271378, -0.3208600479726],
      "ImagePositionPatient": [-857.97517955217, -792.05796520786, 241.3056881361],
      "ImageType": [
        "ORIGINAL",
        "PRIMARY",
        "P",
        "MB",
        "ND",
        "MOSAIC"
],
      "ImagedNucleus": "1H",
      "ImagingFrequency": 123.25884,
      "InPlanePhaseEncodingDirection": "COL",
      "LargestImagePixelValue": 4095,
      "MRAcquisitionType": "2D",
      "MagneticFieldStrength": 3.0,
      "Manufacturer": "SIEMENS",
      "ManufacturerModelName": "Prisma_fit",
      "Modality": "MR",
      "NumberOfAverages": 1.0,
      "NumberOfPhaseEncodingSteps": 104,
      "PercentPhaseFieldOfView": 100.0,
      "PercentSampling": 100.0,
      "PerformedProcedureStepStartTime": "144003.775000",
      "PhotometricInterpretation": "MONOCHROME2",
      "PixelBandwidth": 2290.0,
      "PixelRepresentation": 0,
      "PixelSpacing": [2.0, 2.0],
      "ProtocolName": "func_task-mario_run-03",
      "RepetitionTime": 1490.0,
      "RescaleIntercept": -4096.0,
      "RescaleSlope": 2.0,
      "RescaleType": "US",
      "Rows": 832,
      "SAR": 0.05021225686747,
      "SamplesPerPixel": 1,
      "ScanOptions": "FS",
      "ScanningSequence": "EP",
      "SequenceName": "epfid2d1_104",
      "SequenceVariant": [
        "SK",
        "SS"
],
      "SeriesDescription": "func_task-mario_run-03",
      "SeriesNumber": 17,
      "SeriesTime": "154656.083000",
      "SliceLocation": -36.739846530618,
      "SliceThickness": 2.0,
      "SmallestImagePixelValue": 0,
      "SoftwareVersions": "syngo MR E11",
      "SpacingBetweenSlices": 2.0000000157572,
      "SpecificCharacterSet": "ISO_IR 100",
      "StudyID": "1",
      "StudyTime": "144003.723000",
      "TransmitCoilName": "Body",
      "VariableFlipAngleFlag": "N",
      "WindowCenterWidthExplanation": "Algo1",
      "dBdt": 0.0},
    "slices": {}
  },
  "time": {
    "samples": {
      "AcquisitionNumber": [1, 2, 3, 4, 5, 6, 7, 8, 9, 10, 11, 12, 13, 14, 15, 16, 17, 18, 19, 20, 21, 22, 23, 24, 25, 26, 27, 28, 29, 30, 31, 32, 33, 34, 35, 36, 37, 38, 39, 40, 41, 42, 43, 44, 45, 46, 47, 48, 49, 50, 51, 52, 53, 54, 55, 56, 57, 58, 59, 60, 61, 62, 63, 64, 65, 66, 67, 68, 69, 70, 71, 72, 73, 74, 75, 76, 77, 78, 79, 80, 81, 82, 83, 84, 85, 86, 87, 88, 89, 90, 91, 92, 93, 94, 95, 96, 97, 98, 99, 100, 101, 102, 103, 104, 105, 106, 107, 108, 109, 110, 111, 112, 113, 114, 115, 116, 117, 118, 119, 120, 121, 122, 123, 124, 125, 126, 127, 128, 129, 130, 131, 132, 133, 134, 135, 136, 137, 138, 139, 140, 141, 142, 143, 144, 145, 146, 147, 148, 149, 150, 151, 152, 153, 154, 155, 156, 157, 158, 159, 160, 161, 162, 163, 164, 165, 166, 167, 168, 169, 170, 171, 172, 173, 174, 175, 176, 177, 178, 179, 180, 181, 182, 183, 184, 185, 186, 187, 188, 189, 190, 191, 192, 193, 194, 195, 196, 197, 198, 199, 200, 201, 202, 203, 204, 205, 206, 207, 208, 209, 210, 211, 212, 213, 214, 215, 216, 217, 218, 219, 220, 221, 222, 223, 224, 225, 226, 227, 228, 229, 230, 231, 232, 233, 234, 235, 236, 237, 238, 239, 240, 241, 242, 243, 244, 245, 246, 247, 248, 249, 250, 251, 252, 253, 254, 255, 256, 257, 258, 259, 260, 261, 262, 263, 264, 265, 266, 267, 268, 269, 270, 271, 272, 273, 274, 275, 276, 277, 278, 279, 280, 281, 282, 283, 284, 285, 286, 287, 288, 289, 290, 291, 292, 293, 294, 295, 296, 297, 298, 299, 300, 301, 302, 303, 304, 305, 306, 307, 308, 309, 310, 311, 312, 313, 314, 315, 316, 317, 318, 319, 320, 321, 322, 323, 324, 325, 326, 327, 328, 329, 330, 331, 332, 333, 334, 335, 336, 337, 338, 339, 340, 341, 342, 343, 344, 345, 346, 347, 348, 349, 350, 351, 352, 353, 354, 355, 356, 357, 358, 359, 360, 361, 362, 363, 364, 365, 366, 367, 368, 369, 370, 371, 372, 373, 374, 375, 376, 377, 378, 379, 380, 381, 382, 383, 384, 385, 386, 387, 388, 389, 390, 391, 392, 393, 394, 395, 396, 397, 398, 399, 400, 401, 402, 403, 404, 405, 406, 407, 408, 409, 410, 411, 412, 413, 414, 415, 416, 417, 418, 419, 420, 421, 422, 423, 424, 425, 426, 427, 428, 429, 430, 431, 432, 433, 434, 435, 436, 437, 438, 439, 440, 441, 442, 443, 444, 445, 446, 447, 448, 449, 450, 451, 452, 453, 454, 455, 456, 457, 458, 459, 460, 461, 462, 463, 464, 465, 466, 467, 468, 469, 470, 471],
      "AcquisitionTime": ["154550.370000", "154551.860000", "154553.350000", "154554.840000", "154556.330000", "154557.820000", "154559.310000", "154600.800000", "154602.290000", "154603.780000", "154605.270000", "154606.760000", "154608.250000", "154609.740000", "154611.230000", "154612.720000", "154614.210000", "154615.700000", "154617.190000", "154618.680000", "154620.170000", "154621.660000", "154623.150000", "154624.640000", "154626.130000", "154627.620000", "154629.110000", "154630.600000", "154632.090000", "154633.580000", "154635.070000", "154636.560000", "154638.050000", "154639.540000", "154641.030000", "154642.520000", "154644.010000", "154645.500000", "154646.990000", "154648.480000", "154649.970000", "154651.460000", "154652.950000", "154654.440000", "154655.930000", "154657.420000", "154658.910000", "154700.400000", "154701.890000", "154703.380000", "154704.870000", "154706.360000", "154707.850000", "154709.340000", "154710.830000", "154712.320000", "154713.810000", "154715.300000", "154716.790000", "154718.280000", "154719.770000", "154721.260000", "154722.750000", "154724.240000", "154725.730000", "154727.220000", "154728.710000", "154730.200000", "154731.690000", "154733.180000", "154734.670000", "154736.160000", "154737.650000", "154739.140000", "154740.630000", "154742.120000", "154743.610000", "154745.100000", "154746.590000", "154748.080000", "154749.570000", "154751.060000", "154752.550000", "154754.040000", "154755.530000", "154757.020000", "154758.510000", "154800.000000", "154801.490000", "154802.980000", "154804.470000", "154805.960000", "154807.450000", "154808.940000", "154810.430000", "154811.920000", "154813.410000", "154814.900000", "154816.390000", "154817.880000", "154819.370000", "154820.860000", "154822.350000", "154823.840000", "154825.330000", "154826.820000", "154828.310000", "154829.800000", "154831.290000", "154832.780000", "154834.270000", "154835.760000", "154837.250000", "154838.740000", "154840.230000", "154841.720000", "154843.210000", "154844.700000", "154846.190000", "154847.680000", "154849.170000", "154850.660000", "154852.150000", "154853.640000", "154855.130000", "154856.620000", "154858.110000", "154859.600000", "154901.090000", "154902.580000", "154904.070000", "154905.560000", "154907.050000", "154908.540000", "154910.030000", "154911.520000", "154913.010000", "154914.500000", "154915.990000", "154917.480000", "154918.970000", "154920.460000", "154921.950000", "154923.440000", "154924.930000", "154926.420000", "154927.910000", "154929.400000", "154930.890000", "154932.380000", "154933.870000", "154935.360000", "154936.850000", "154938.340000", "154939.830000", "154941.320000", "154942.810000", "154944.300000", "154945.790000", "154947.280000", "154948.770000", "154950.260000", "154951.750000", "154953.240000", "154954.730000", "154956.220000", "154957.710000", "154959.200000", "155000.690000", "155002.180000", "155003.670000", "155005.160000", "155006.650000", "155008.140000", "155009.630000", "155011.120000", "155012.610000", "155014.100000", "155015.590000", "155017.080000", "155018.570000", "155020.060000", "155021.550000", "155023.040000", "155024.530000", "155026.020000", "155027.510000", "155029.000000", "155030.490000", "155031.980000", "155033.470000", "155034.960000", "155036.450000", "155037.940000", "155039.430000", "155040.920000", "155042.410000", "155043.900000", "155045.390000", "155046.880000", "155048.370000", "155049.860000", "155051.350000", "155052.840000", "155054.330000", "155055.820000", "155057.310000", "155058.800000", "155100.290000", "155101.780000", "155103.270000", "155104.760000", "155106.250000", "155107.740000", "155109.230000", "155110.720000", "155112.210000", "155113.700000", "155115.190000", "155116.680000", "155118.170000", "155119.660000", "155121.150000", "155122.640000", "155124.130000", "155125.620000", "155127.110000", "155128.600000", "155130.090000", "155131.580000", "155133.070000", "155134.560000", "155136.050000", "155137.540000", "155139.030000", "155140.520000", "155142.010000", "155143.500000", "155144.990000", "155146.480000", "155147.970000", "155149.460000", "155150.950000", "155152.440000", "155153.930000", "155155.420000", "155156.910000", "155158.400000", "155159.890000", "155201.380000", "155202.870000", "155204.360000", "155205.850000", "155207.340000", "155208.830000", "155210.320000", "155211.810000", "155213.300000", "155214.790000", "155216.280000", "155217.770000", "155219.260000", "155220.750000", "155222.240000", "155223.730000", "155225.220000", "155226.710000", "155228.200000", "155229.690000", "155231.180000", "155232.670000", "155234.160000", "155235.650000", "155237.140000", "155238.630000", "155240.120000", "155241.610000", "155243.100000", "155244.590000", "155246.080000", "155247.570000", "155249.060000", "155250.550000", "155252.040000", "155253.530000", "155255.020000", "155256.510000", "155258.000000", "155259.490000", "155300.980000", "155302.470000", "155303.960000", "155305.450000", "155306.940000", "155308.430000", "155309.920000", "155311.410000", "155312.900000", "155314.390000", "155315.880000", "155317.370000", "155318.860000", "155320.350000", "155321.840000", "155323.330000", "155324.820000", "155326.310000", "155327.800000", "155329.290000", "155330.780000", "155332.270000", "155333.760000", "155335.250000", "155336.740000", "155338.230000", "155339.720000", "155341.210000", "155342.700000", "155344.190000", "155345.680000", "155347.170000", "155348.660000", "155350.150000", "155351.640000", "155353.130000", "155354.620000", "155356.110000", "155357.600000", "155359.090000", "155400.580000", "155402.070000", "155403.560000", "155405.050000", "155406.540000", "155408.030000", "155409.520000", "155411.010000", "155412.500000", "155413.990000", "155415.480000", "155416.970000", "155418.460000", "155419.950000", "155421.440000", "155422.930000", "155424.420000", "155425.910000", "155427.400000", "155428.890000", "155430.380000", "155431.870000", "155433.360000", "155434.850000", "155436.340000", "155437.830000", "155439.320000", "155440.810000", "155442.300000", "155443.790000", "155445.280000", "155446.770000", "155448.260000", "155449.750000", "155451.240000", "155452.730000", "155454.220000", "155455.710000", "155457.200000", "155458.690000", "155500.180000", "155501.670000", "155503.160000", "155504.650000", "155506.140000", "155507.630000", "155509.120000", "155510.610000", "155512.100000", "155513.590000", "155515.080000", "155516.570000", "155518.060000", "155519.550000", "155521.040000", "155522.530000", "155524.020000", "155525.510000", "155527.000000", "155528.490000", "155529.980000", "155531.470000", "155532.960000", "155534.450000", "155535.940000", "155537.430000", "155538.920000", "155540.410000", "155541.900000", "155543.390000", "155544.880000", "155546.370000", "155547.860000", "155549.350000", "155550.840000", "155552.330000", "155553.820000", "155555.310000", "155556.800000", "155558.290000", "155559.780000", "155601.270000", "155602.760000", "155604.250000", "155605.740000", "155607.230000", "155608.720000", "155610.210000", "155611.700000", "155613.190000", "155614.680000", "155616.170000", "155617.660000", "155619.150000", "155620.640000", "155622.130000", "155623.620000", "155625.110000", "155626.600000", "155628.090000", "155629.580000", "155631.070000", "155632.560000", "155634.050000", "155635.540000", "155637.030000", "155638.520000", "155640.010000", "155641.500000", "155642.990000", "155644.480000", "155645.970000", "155647.460000", "155648.950000", "155650.440000", "155651.930000", "155653.420000", "155654.910000", "155656.400000", "155657.890000", "155659.380000", "155700.870000", "155702.360000", "155703.850000", "155705.340000", "155706.830000", "155708.320000", "155709.810000", "155711.300000", "155712.790000", "155714.280000", "155715.770000", "155717.260000", "155718.750000", "155720.240000", "155721.730000", "155723.220000", "155724.710000", "155726.200000", "155727.690000", "155729.180000", "155730.670000"],
      "ContentTime": ["154656.085000", "154656.088000", "154656.090000", "154656.093000", "154656.096000", "154656.099000", "154656.101000", "154656.104000", "154656.106000", "154656.109000", "154716.095000", "154716.097000", "154716.100000", "154716.102000", "154716.105000", "154716.107000", "154716.110000", "154716.112000", "154716.115000", "154716.117000", "154716.120000", "154716.122000", "154716.124000", "154716.127000", "154716.129000", "154716.132000", "154716.134000", "154716.137000", "154716.139000", "154716.142000", "154716.144000", "154736.095000", "154736.098000", "154736.100000", "154736.103000", "154736.105000", "154736.108000", "154736.110000", "154736.113000", "154736.115000", "154736.118000", "154736.120000", "154736.122000", "154736.125000", "154736.127000", "154736.130000", "154736.132000", "154736.135000", "154736.137000", "154736.140000", "154736.142000", "154756.093000", "154756.096000", "154756.098000", "154756.101000", "154756.104000", "154756.107000", "154756.110000", "154756.112000", "154756.115000", "154756.117000", "154756.120000", "154756.122000", "154756.125000", "154756.127000", "154756.130000", "154756.132000", "154756.135000", "154756.137000", "154756.140000", "154756.142000", "154816.086000", "154816.089000", "154816.091000", "154816.093000", "154816.096000", "154816.098000", "154816.101000", "154816.103000", "154816.106000", "154816.108000", "154816.111000", "154816.113000", "154816.116000", "154816.118000", "154816.121000", "154816.123000", "154816.126000", "154816.128000", "154816.131000", "154816.133000", "154856.157000", "154856.160000", "154856.162000", "154856.165000", "154856.167000", "154856.170000", "154856.172000", "154856.175000", "154856.177000", "154856.180000", "154856.182000", "154856.185000", "154856.187000", "154856.190000", "154856.192000", "154856.195000", "154856.197000", "154856.200000", "154856.202000", "154856.205000", "154856.207000", "154856.210000", "154856.212000", "154856.215000", "154856.217000", "154856.220000", "154856.222000", "154856.225000", "154856.227000", "154856.230000", "154856.232000", "154856.235000", "154856.237000", "154936.119000", "154936.121000", "154936.124000", "154936.126000", "154936.129000", "154936.131000", "154936.134000", "154936.136000", "154936.139000", "154936.141000", "154936.144000", "154936.146000", "154936.149000", "154936.151000", "154936.154000", "154936.157000", "154936.159000", "154936.161000", "154936.164000", "154936.167000", "154936.169000", "154936.171000", "154936.174000", "154936.176000", "154936.179000", "154936.181000", "155016.122000", "155016.124000", "155016.127000", "155016.129000", "155016.132000", "155016.134000", "155016.137000", "155016.139000", "155016.142000", "155016.145000", "155016.147000", "155016.149000", "155016.152000", "155016.154000", "155016.157000", "155016.161000", "155016.163000", "155016.166000", "155016.168000", "155016.171000", "155016.174000", "155016.176000", "155016.179000", "155016.181000", "155016.184000", "155016.186000", "155016.189000", "155056.114000", "155056.116000", "155056.119000", "155056.121000", "155056.124000", "155056.126000", "155056.129000", "155056.131000", "155056.134000", "155056.136000", "155056.139000", "155056.141000", "155056.144000", "155056.146000", "155056.149000", "155056.151000", "155056.154000", "155056.156000", "155056.159000", "155056.161000", "155056.164000", "155056.166000", "155056.169000", "155056.171000", "155056.174000", "155056.176000", "155056.179000", "155136.119000", "155136.122000", "155136.125000", "155136.127000", "155136.130000", "155136.132000", "155136.135000", "155136.137000", "155136.140000", "155136.142000", "155136.145000", "155136.147000", "155136.150000", "155136.152000", "155136.155000", "155136.157000", "155136.160000", "155136.162000", "155136.165000", "155136.167000", "155136.170000", "155136.172000", "155136.175000", "155136.177000", "155136.180000", "155136.183000", "155136.185000", "155216.111000", "155216.114000", "155216.116000", "155216.119000", "155216.121000", "155216.124000", "155216.126000", "155216.129000", "155216.131000", "155216.134000", "155216.136000", "155216.139000", "155216.141000", "155216.144000", "155216.146000", "155216.149000", "155216.151000", "155216.154000", "155216.156000", "155216.159000", "155216.161000", "155216.164000", "155216.167000", "155216.169000", "155216.172000", "155216.174000", "155216.177000", "155256.113000", "155256.116000", "155256.118000", "155256.121000", "155256.123000", "155256.126000", "155256.128000", "155256.131000", "155256.133000", "155256.136000", "155256.138000", "155256.141000", "155256.143000", "155256.146000", "155256.148000", "155256.151000", "155256.154000", "155256.156000", "155256.159000", "155256.161000", "155256.164000", "155256.167000", "155256.169000", "155256.172000", "155256.174000", "155256.177000", "155256.179000", "155336.133000", "155336.135000", "155336.138000", "155336.140000", "155336.143000", "155336.145000", "155336.148000", "155336.150000", "155336.153000", "155336.155000", "155336.158000", "155336.160000", "155336.163000", "155336.165000", "155336.168000", "155336.170000", "155336.173000", "155336.175000", "155336.178000", "155336.180000", "155336.183000", "155336.185000", "155336.188000", "155336.190000", "155336.193000", "155336.195000", "155416.112000", "155416.115000", "155416.118000", "155416.120000", "155416.123000", "155416.125000", "155416.128000", "155416.130000", "155416.133000", "155416.135000", "155416.138000", "155416.140000", "155416.143000", "155416.146000", "155416.148000", "155416.151000", "155416.154000", "155416.156000", "155416.159000", "155416.161000", "155416.164000", "155416.167000", "155416.169000", "155416.172000", "155416.174000", "155416.177000", "155416.179000", "155456.104000", "155456.106000", "155456.109000", "155456.111000", "155456.114000", "155456.116000", "155456.119000", "155456.121000", "155456.124000", "155456.126000", "155456.129000", "155456.131000", "155456.134000", "155456.136000", "155456.139000", "155456.141000", "155456.144000", "155456.146000", "155456.149000", "155456.151000", "155456.154000", "155456.156000", "155456.159000", "155456.161000", "155456.164000", "155456.166000", "155456.169000", "155536.129000", "155536.132000", "155536.134000", "155536.137000", "155536.139000", "155536.142000", "155536.145000", "155536.147000", "155536.150000", "155536.152000", "155536.155000", "155536.157000", "155536.160000", "155536.162000", "155536.165000", "155536.167000", "155536.170000", "155536.172000", "155536.175000", "155536.177000", "155536.180000", "155536.182000", "155536.185000", "155536.187000", "155536.190000", "155536.192000", "155536.195000", "155556.481000", "155556.484000", "155556.486000", "155556.489000", "155556.491000", "155556.494000", "155556.496000", "155556.499000", "155556.501000", "155556.504000", "155556.506000", "155556.509000", "155556.511000", "155636.113000", "155636.116000", "155636.119000", "155636.121000", "155636.124000", "155636.126000", "155636.129000", "155636.131000", "155636.134000", "155636.137000", "155636.139000", "155636.142000", "155636.144000", "155636.147000", "155636.149000", "155636.152000", "155636.154000", "155636.157000", "155636.165000", "155636.167000", "155636.170000", "155636.172000", "155636.175000", "155636.177000", "155636.180000", "155636.182000", "155636.185000", "155716.105000", "155716.108000", "155716.111000", "155716.113000", "155716.116000", "155716.118000", "155716.121000", "155716.123000", "155716.126000", "155716.128000", "155716.131000", "155716.133000", "155716.136000", "155716.139000", "155716.141000", "155716.144000", "155716.146000", "155716.149000", "155716.151000", "155716.154000", "155716.156000", "155716.159000", "155716.161000", "155716.164000", "155716.166000", "155716.169000", "155716.171000", "155733.954000", "155733.957000", "155733.959000", "155733.962000", "155733.964000", "155733.967000", "155733.969000", "155733.971000", "155733.974000", "155733.976000", "155733.979000", "155733.981000"],
