{
  "AcquisitionMatrixPE": 104,
  "AcquisitionNumber": 1,
  "AcquisitionTime": "16:12:48.130000",
  "BandwidthPerPixelPhaseEncode": 17.17,
  "BaseResolution": 104,
  "BodyPartExamined": "BRAIN",
  "CoilCombinationMethod": "Sum of Squares",
  "ConsistencyInfo": "N4_VE11C_LATEST_20160120",
  "ConversionSoftware": "dcm2niix",
  "ConversionSoftwareVersion": "v1.0.20211006",
  "DerivedVendorReportedEchoSpacing": 0.000560011,
  "DeviceSerialNumber": "167006",
  "DwellTime": 2.1e-06,
  "EchoTime": 0.037,
  "EchoTrainLength": 104,
  "EffectiveEchoSpacing": 0.000560011,
  "FlipAngle": 52,
  "HeudiconvVersion": "0.5.3.post569+g418601f",
  "ImageComments": "Unaliased MB4/PE3/LB",
  "ImageOrientationPatientDICOM": [0.999508, -0.0311821, -0.00340197, 0.0284425, 0.946699, -0.32086],
  "ImageOrientationText": "Tra>Cor(-18.7)>Sag(-0.8)",
  "ImageType": [
    "ORIGINAL",
    "PRIMARY",
    "M",
    "MB",
    "ND",
    "MOSAIC"
],
  "ImagingFrequency": 123.259,
  "InPlanePhaseEncodingDirectionDICOM": "COL",
  "InstitutionAddress": "Chemin Queen-Mary 4565,Montreal,District,CA,H3W 1W5",
  "InstitutionName": "IUGM",
  "InstitutionalDepartmentName": "Department",
  "MRAcquisitionType": "2D",
  "MagneticFieldStrength": 3,
  "Manufacturer": "Siemens",
  "ManufacturersModelName": "Prisma_fit",
  "MatrixCoilMode": "SENSE",
  "Modality": "MR",
  "MultibandAccelerationFactor": 4,
  "PartialFourier": 1,
  "PatientPosition": "HFS",
  "PercentPhaseFOV": 100,
  "PercentSampling": 100,
  "PhaseEncodingDirection": "j",
  "PhaseEncodingSteps": 104,
  "PhaseResolution": 1,
  "PixelBandwidth": 2290,
  "ProcedureStepDescription": "games^mario",
  "ProtocolName": "func_task-mario_run-05",
  "PulseSequenceDetails": "%CustomerSeq%\\cmrr_mbep2d_bold",
  "ReceiveCoilActiveElements": "HC1-7;NC1,2",
  "ReceiveCoilName": "HeadNeck_64",
  "ReconMatrixPE": 104,
  "RepetitionTime": 1.49,
  "SAR": 0.0502123,
  "ScanOptions": "FS",
  "ScanningSequence": "EP",
  "SequenceName": "epfid2d1_104",
  "SequenceVariant": "SK\\SS",
  "SeriesDescription": "func_task-mario_run-05",
  "SeriesNumber": 22,
  "ShimSetting": [614, -7254, -8808, 610, -35, -202, -37, -23],
  "SliceThickness": 2,
  "SliceTiming": [0, 0.7825, 0.0975, 0.8825, 0.195, 0.98, 0.2925, 1.0775, 0.3925, 1.175, 0.49, 1.2725, 0.5875, 1.37, 0.685, 0, 0.7825, 0.0975, 0.8825, 0.195, 0.98, 0.2925, 1.0775, 0.3925, 1.175, 0.49, 1.2725, 0.5875, 1.37, 0.685, 0, 0.7825, 0.0975, 0.8825, 0.195, 0.98, 0.2925, 1.0775, 0.3925, 1.175, 0.49, 1.2725, 0.5875, 1.37, 0.685, 0, 0.7825, 0.0975, 0.8825, 0.195, 0.98, 0.2925, 1.0775, 0.3925, 1.175, 0.49, 1.2725, 0.5875, 1.37, 0.685],
  "SoftwareVersions": "syngo MR E11",
  "SpacingBetweenSlices": 2,
  "StationName": "MRC35049",
  "TaskName": "mario",
  "TotalReadoutTime": 0.0576811,
  "TxRefAmp": 257.288,
  "WipMemBlock": "9597eb9f-7b48-461e-ba98-b853c5daff2f||Sequence: R016 ve11c/master r/e634e98; Dec 19 2017 11:00:25 by eja",
  "dcmmeta_affine": [
    [-1.9990158081054688, 0.0568850003182888, -0.026451464742422104, 103.76811218261719],
    [0.06236416846513748, 1.8933988809585571, -0.6412107944488525, -69.4587631225586],
    [-0.0068039484322071075, 0.6417201161384583, 1.8942409753799438, -60.85423278808594],
    [0.0, 0.0, 0.0, 1.0]
],
  "dcmmeta_reorient_transform": [
    [0.0, -1.0, 0.0, 103.0],
    [1.0, 0.0, 0.0, 0.0],
    [0.0, 0.0, 1.0, 0.0],
    [0.0, 0.0, 0.0, 1.0]
],
  "dcmmeta_shape": [104, 104, 60, 449],
  "dcmmeta_slice_dim": 2,
  "dcmmeta_version": 0.6,
  "global": {
    "const": {
      "AcquisitionMatrix": [104, 0, 0, 104],
      "AngioFlag": "N",
      "BitsAllocated": 16,
      "BitsStored": 16,
      "BodyPartExamined": "BRAIN",
      "Columns": 832,
      "EchoNumbers": 1,
      "EchoTime": 37.0,
      "EchoTrainLength": 104,
      "FlipAngle": 52.0,
      "HighBit": 15,
      "ImageOrientationPatient": [0.99950793101373, -0.0311820848031, -0.0034019741318, 0.02844250070695, 0.94669945271378, -0.3208600479726],
      "ImagePositionPatient": [-857.97517955217, -792.05796520786, 241.3056881361],
      "ImageType": [
        "ORIGINAL",
        "PRIMARY",
        "M",
        "MB",
        "ND",
        "MOSAIC"
],
      "ImagedNucleus": "1H",
      "ImagingFrequency": 123.258847,
      "InPlanePhaseEncodingDirection": "COL",
      "MRAcquisitionType": "2D",
      "MagneticFieldStrength": 3.0,
      "Manufacturer": "SIEMENS",
      "ManufacturerModelName": "Prisma_fit",
      "Modality": "MR",
      "NumberOfAverages": 1.0,
      "NumberOfPhaseEncodingSteps": 104,
      "PercentPhaseFieldOfView": 100.0,
      "PercentSampling": 100.0,
      "PerformedProcedureStepStartTime": "144003.775000",
      "PhotometricInterpretation": "MONOCHROME2",
      "PixelBandwidth": 2290.0,
      "PixelRepresentation": 0,
      "PixelSpacing": [2.0, 2.0],
      "ProtocolName": "func_task-mario_run-05",
      "RepetitionTime": 1490.0,
      "Rows": 832,
      "SAR": 0.05021225686747,
      "SamplesPerPixel": 1,
      "ScanOptions": "FS",
      "ScanningSequence": "EP",
      "SequenceName": "epfid2d1_104",
      "SequenceVariant": [
        "SK",
        "SS"
],
      "SeriesDescription": "func_task-mario_run-05",
      "SeriesNumber": 22,
      "SeriesTime": "161418.880000",
      "SliceLocation": -36.739846530618,
      "SliceThickness": 2.0,
      "SmallestImagePixelValue": 0,
      "SoftwareVersions": "syngo MR E11",
      "SpacingBetweenSlices": 2.0000000157572,
      "SpecificCharacterSet": "ISO_IR 100",
      "StudyID": "1",
      "StudyTime": "144003.723000",
      "TransmitCoilName": "Body",
      "VariableFlipAngleFlag": "N",
      "WindowCenterWidthExplanation": "Algo1",
      "dBdt": 0.0},
    "slices": {}
  },
  "time": {
    "samples": {
      "AcquisitionNumber": [1, 2, 3, 4, 5, 6, 7, 8, 9, 10, 11, 12, 13, 14, 15, 16, 17, 18, 19, 20, 21, 22, 23, 24, 25, 26, 27, 28, 29, 30, 31, 32, 33, 34, 35, 36, 37, 38, 39, 40, 41, 42, 43, 44, 45, 46, 47, 48, 49, 50, 51, 52, 53, 54, 55, 56, 57, 58, 59, 60, 61, 62, 63, 64, 65, 66, 67, 68, 69, 70, 71, 72, 73, 74, 75, 76, 77, 78, 79, 80, 81, 82, 83, 84, 85, 86, 87, 88, 89, 90, 91, 92, 93, 94, 95, 96, 97, 98, 99, 100, 101, 102, 103, 104, 105, 106, 107, 108, 109, 110, 111, 112, 113, 114, 115, 116, 117, 118, 119, 120, 121, 122, 123, 124, 125, 126, 127, 128, 129, 130, 131, 132, 133, 134, 135, 136, 137, 138, 139, 140, 141, 142, 143, 144, 145, 146, 147, 148, 149, 150, 151, 152, 153, 154, 155, 156, 157, 158, 159, 160, 161, 162, 163, 164, 165, 166, 167, 168, 169, 170, 171, 172, 173, 174, 175, 176, 177, 178, 179, 180, 181, 182, 183, 184, 185, 186, 187, 188, 189, 190, 191, 192, 193, 194, 195, 196, 197, 198, 199, 200, 201, 202, 203, 204, 205, 206, 207, 208, 209, 210, 211, 212, 213, 214, 215, 216, 217, 218, 219, 220, 221, 222, 223, 224, 225, 226, 227, 228, 229, 230, 231, 232, 233, 234, 235, 236, 237, 238, 239, 240, 241, 242, 243, 244, 245, 246, 247, 248, 249, 250, 251, 252, 253, 254, 255, 256, 257, 258, 259, 260, 261, 262, 263, 264, 265, 266, 267, 268, 269, 270, 271, 272, 273, 274, 275, 276, 277, 278, 279, 280, 281, 282, 283, 284, 285, 286, 287, 288, 289, 290, 291, 292, 293, 294, 295, 296, 297, 298, 299, 300, 301, 302, 303, 304, 305, 306, 307, 308, 309, 310, 311, 312, 313, 314, 315, 316, 317, 318, 319, 320, 321, 322, 323, 324, 325, 326, 327, 328, 329, 330, 331, 332, 333, 334, 335, 336, 337, 338, 339, 340, 341, 342, 343, 344, 345, 346, 347, 348, 349, 350, 351, 352, 353, 354, 355, 356, 357, 358, 359, 360, 361, 362, 363, 364, 365, 366, 367, 368, 369, 370, 371, 372, 373, 374, 375, 376, 377, 378, 379, 380, 381, 382, 383, 384, 385, 386, 387, 388, 389, 390, 391, 392, 393, 394, 395, 396, 397, 398, 399, 400, 401, 402, 403, 404, 405, 406, 407, 408, 409, 410, 411, 412, 413, 414, 415, 416, 417, 418, 419, 420, 421, 422, 423, 424, 425, 426, 427, 428, 429, 430, 431, 432, 433, 434, 435, 436, 437, 438, 439, 440, 441, 442, 443, 444, 445, 446, 447, 448, 449],
      "AcquisitionTime": ["161248.130000", "161249.620000", "161251.110000", "161252.600000", "161254.090000", "161255.580000", "161257.070000", "161258.560000", "161300.050000", "161301.540000", "161303.030000", "161304.520000", "161306.010000", "161307.500000", "161308.990000", "161310.480000", "161311.970000", "161313.460000", "161314.950000", "161316.440000", "161317.930000", "161319.420000", "161320.910000", "161322.400000", "161323.890000", "161325.380000", "161326.870000", "161328.360000", "161329.850000", "161331.340000", "161332.830000", "161334.320000", "161335.810000", "161337.300000", "161338.790000", "161340.280000", "161341.770000", "161343.260000", "161344.750000", "161346.240000", "161347.730000", "161349.220000", "161350.710000", "161352.200000", "161353.690000", "161355.180000", "161356.670000", "161358.160000", "161359.650000", "161401.140000", "161402.630000", "161404.120000", "161405.610000", "161407.100000", "161408.590000", "161410.080000", "161411.570000", "161413.060000", "161414.550000", "161416.040000", "161417.530000", "161419.020000", "161420.510000", "161422.000000", "161423.490000", "161424.980000", "161426.470000", "161427.960000", "161429.450000", "161430.940000", "161432.430000", "161433.920000", "161435.410000", "161436.900000", "161438.390000", "161439.880000", "161441.370000", "161442.860000", "161444.350000", "161445.840000", "161447.330000", "161448.820000", "161450.310000", "161451.800000", "161453.290000", "161454.780000", "161456.270000", "161457.760000", "161459.250000", "161500.740000", "161502.230000", "161503.720000", "161505.210000", "161506.700000", "161508.190000", "161509.680000", "161511.170000", "161512.660000", "161514.150000", "161515.640000", "161517.130000", "161518.620000", "161520.110000", "161521.600000", "161523.090000", "161524.580000", "161526.070000", "161527.560000", "161529.050000", "161530.540000", "161532.030000", "161533.520000", "161535.010000", "161536.500000", "161537.990000", "161539.480000", "161540.970000", "161542.460000", "161543.950000", "161545.440000", "161546.930000", "161548.420000", "161549.910000", "161551.400000", "161552.890000", "161554.380000", "161555.870000", "161557.360000", "161558.850000", "161600.340000", "161601.830000", "161603.320000", "161604.810000", "161606.300000", "161607.790000", "161609.280000", "161610.770000", "161612.260000", "161613.750000", "161615.240000", "161616.730000", "161618.220000", "161619.710000", "161621.200000", "161622.690000", "161624.180000", "161625.670000", "161627.160000", "161628.650000", "161630.140000", "161631.630000", "161633.120000", "161634.610000", "161636.100000", "161637.590000", "161639.080000", "161640.570000", "161642.060000", "161643.550000", "161645.040000", "161646.530000", "161648.020000", "161649.510000", "161651.000000", "161652.490000", "161653.980000", "161655.470000", "161656.960000", "161658.450000", "161659.940000", "161701.430000", "161702.920000", "161704.410000", "161705.900000", "161707.390000", "161708.880000", "161710.370000", "161711.860000", "161713.350000", "161714.840000", "161716.330000", "161717.820000", "161719.310000", "161720.800000", "161722.290000", "161723.780000", "161725.270000", "161726.760000", "161728.250000", "161729.740000", "161731.230000", "161732.720000", "161734.210000", "161735.700000", "161737.190000", "161738.680000", "161740.170000", "161741.660000", "161743.150000", "161744.640000", "161746.130000", "161747.620000", "161749.110000", "161750.600000", "161752.090000", "161753.580000", "161755.070000", "161756.560000", "161758.050000", "161759.540000", "161801.030000", "161802.520000", "161804.010000", "161805.500000", "161806.990000", "161808.480000", "161809.970000", "161811.460000", "161812.950000", "161814.440000", "161815.930000", "161817.420000", "161818.910000", "161820.400000", "161821.890000", "161823.380000", "161824.870000", "161826.360000", "161827.850000", "161829.340000", "161830.830000", "161832.320000", "161833.810000", "161835.300000", "161836.790000", "161838.280000", "161839.770000", "161841.260000", "161842.750000", "161844.240000", "161845.730000", "161847.220000", "161848.710000", "161850.200000", "161851.690000", "161853.180000", "161854.670000", "161856.160000", "161857.650000", "161859.140000", "161900.630000", "161902.120000", "161903.610000", "161905.100000", "161906.590000", "161908.080000", "161909.570000", "161911.060000", "161912.550000", "161914.040000", "161915.530000", "161917.020000", "161918.510000", "161920.000000", "161921.490000", "161922.980000", "161924.470000", "161925.960000", "161927.450000", "161928.940000", "161930.430000", "161931.920000", "161933.410000", "161934.900000", "161936.390000", "161937.880000", "161939.370000", "161940.860000", "161942.350000", "161943.840000", "161945.330000", "161946.820000", "161948.310000", "161949.800000", "161951.290000", "161952.780000", "161954.270000", "161955.760000", "161957.250000", "161958.740000", "162000.230000", "162001.720000", "162003.210000", "162004.700000", "162006.190000", "162007.680000", "162009.170000", "162010.660000", "162012.150000", "162013.640000", "162015.130000", "162016.620000", "162018.110000", "162019.600000", "162021.090000", "162022.580000", "162024.070000", "162025.560000", "162027.050000", "162028.540000", "162030.030000", "162031.520000", "162033.010000", "162034.500000", "162035.990000", "162037.480000", "162038.970000", "162040.460000", "162041.950000", "162043.440000", "162044.930000", "162046.420000", "162047.910000", "162049.400000", "162050.890000", "162052.380000", "162053.870000", "162055.360000", "162056.850000", "162058.340000", "162059.830000", "162101.320000", "162102.810000", "162104.300000", "162105.790000", "162107.280000", "162108.770000", "162110.260000", "162111.750000", "162113.240000", "162114.730000", "162116.220000", "162117.710000", "162119.200000", "162120.690000", "162122.180000", "162123.670000", "162125.160000", "162126.650000", "162128.140000", "162129.630000", "162131.120000", "162132.610000", "162134.100000", "162135.590000", "162137.080000", "162138.570000", "162140.060000", "162141.550000", "162143.040000", "162144.530000", "162146.020000", "162147.510000", "162149.000000", "162150.490000", "162151.980000", "162153.470000", "162154.960000", "162156.450000", "162157.940000", "162159.430000", "162200.920000", "162202.410000", "162203.900000", "162205.390000", "162206.880000", "162208.370000", "162209.860000", "162211.350000", "162212.840000", "162214.330000", "162215.820000", "162217.310000", "162218.800000", "162220.290000", "162221.780000", "162223.270000", "162224.760000", "162226.250000", "162227.740000", "162229.230000", "162230.720000", "162232.210000", "162233.700000", "162235.190000", "162236.680000", "162238.170000", "162239.660000", "162241.150000", "162242.640000", "162244.130000", "162245.620000", "162247.110000", "162248.600000", "162250.090000", "162251.580000", "162253.070000", "162254.560000", "162256.050000", "162257.540000", "162259.030000", "162300.520000", "162302.010000", "162303.500000", "162304.990000", "162306.480000", "162307.970000", "162309.460000", "162310.950000", "162312.440000", "162313.930000", "162315.420000", "162316.910000", "162318.400000", "162319.890000", "162321.380000", "162322.870000", "162324.360000", "162325.850000", "162327.340000", "162328.830000", "162330.320000", "162331.810000", "162333.300000", "162334.790000", "162336.280000", "162337.770000", "162339.260000", "162340.750000", "162342.240000", "162343.730000", "162345.220000", "162346.710000", "162348.200000", "162349.690000", "162351.180000", "162352.670000", "162354.160000", "162355.650000"],
      "ContentTime": ["161418.883000", "161418.887000", "161418.891000", "161418.894000", "161418.897000", "161418.900000", "161418.904000", "161418.907000", "161418.911000", "161418.914000", "161418.917000", "161418.920000", "161418.924000", "161418.927000", "161418.930000", "161418.934000", "161418.937000", "161418.940000", "161418.943000", "161418.947000", "161418.950000", "161418.953000", "161418.957000", "161418.960000", "161418.963000", "161418.967000", "161418.970000", "161418.973000", "161418.976000", "161418.980000", "161418.983000", "161418.986000", "161418.990000", "161418.993000", "161418.996000", "161419.000000", "161438.846000", "161438.850000", "161438.853000", "161438.857000", "161438.860000", "161438.863000", "161438.867000", "161438.870000", "161438.873000", "161438.877000", "161438.880000", "161438.884000", "161438.887000", "161438.890000", "161438.893000", "161438.897000", "161438.900000", "161438.904000", "161438.907000", "161438.910000", "161458.846000", "161458.850000", "161458.853000", "161458.856000", "161458.860000", "161458.863000", "161458.866000", "161458.870000", "161458.873000", "161458.876000", "161458.880000", "161458.883000", "161458.886000", "161458.890000", "161458.893000", "161458.896000", "161458.900000", "161458.903000", "161458.906000", "161458.909000", "161518.846000", "161518.862000", "161518.865000", "161518.868000", "161518.872000", "161518.875000", "161518.878000", "161518.881000", "161518.885000", "161518.888000", "161518.891000", "161518.895000", "161518.898000", "161518.902000", "161518.906000", "161518.910000", "161518.914000", "161518.918000", "161518.922000", "161518.925000", "161558.848000", "161558.852000", "161558.855000", "161558.858000", "161558.862000", "161558.865000", "161558.868000", "161558.872000", "161558.875000", "161558.879000", "161558.882000", "161558.885000", "161558.889000", "161558.892000", "161558.895000", "161558.899000", "161558.902000", "161558.905000", "161558.909000", "161558.912000", "161558.915000", "161558.918000", "161558.922000", "161558.925000", "161558.928000", "161558.932000", "161558.935000", "161558.938000", "161558.942000", "161558.945000", "161558.948000", "161638.846000", "161638.850000", "161638.853000", "161638.857000", "161638.860000", "161638.863000", "161638.867000", "161638.870000", "161638.874000", "161638.877000", "161638.880000", "161638.884000", "161638.887000", "161638.890000", "161638.893000", "161638.897000", "161638.900000", "161638.903000", "161638.907000", "161638.910000", "161638.913000", "161638.917000", "161638.920000", "161638.924000", "161638.927000", "161638.931000", "161638.934000", "161718.846000", "161718.850000", "161718.853000", "161718.857000", "161718.860000", "161718.863000", "161718.867000", "161718.871000", "161718.875000", "161718.878000", "161718.881000", "161718.885000", "161718.888000", "161718.891000", "161718.895000", "161718.898000", "161718.901000", "161718.905000", "161718.908000", "161718.911000", "161718.915000", "161718.918000", "161718.921000", "161718.939000", "161718.943000", "161718.946000", "161718.949000", "161758.846000", "161758.850000", "161758.853000", "161758.857000", "161758.860000", "161758.863000", "161758.866000", "161758.870000", "161758.873000", "161758.877000", "161758.880000", "161758.883000", "161758.887000", "161758.890000", "161758.893000", "161758.897000", "161758.900000", "161758.903000", "161758.906000", "161758.910000", "161758.913000", "161758.916000", "161758.920000", "161758.923000", "161758.926000", "161758.930000", "161758.933000", "161838.846000", "161838.850000", "161838.853000", "161838.857000", "161838.860000", "161838.863000", "161838.867000", "161838.870000", "161838.873000", "161838.877000", "161838.880000", "161838.884000", "161838.887000", "161838.890000", "161838.894000", "161838.897000", "161838.900000", "161838.904000", "161838.907000", "161838.910000", "161838.913000", "161838.917000", "161838.920000", "161838.924000", "161838.927000", "161838.930000", "161838.933000", "161918.845000", "161918.849000", "161918.852000", "161918.856000", "161918.859000", "161918.862000", "161918.866000", "161918.869000", "161918.872000", "161918.876000", "161918.879000", "161918.882000", "161918.886000", "161918.889000", "161918.892000", "161918.896000", "161918.899000", "161918.902000", "161918.911000", "161918.915000", "161918.918000", "161918.921000", "161918.925000", "161918.928000", "161918.931000", "161918.934000", "161918.938000", "161958.846000", "161958.850000", "161958.853000", "161958.857000", "161958.860000", "161958.864000", "161958.867000", "161958.871000", "161958.875000", "161958.879000", "161958.883000", "161958.897000", "161958.901000", "161958.904000", "161958.908000", "161958.911000", "161958.914000", "161958.918000", "161958.921000", "161958.924000", "161958.928000", "161958.931000", "161958.934000", "161958.938000", "161958.941000", "161958.944000", "162038.846000", "162038.850000", "162038.853000", "162038.857000", "162038.860000", "162038.864000", "162038.867000", "162038.871000", "162038.874000", "162038.877000", "162038.881000", "162038.884000", "162038.887000", "162038.891000", "162038.894000", "162038.897000", "162038.900000", "162038.904000", "162038.907000", "162038.910000", "162038.914000", "162038.917000", "162038.920000", "162038.924000", "162038.927000", "162038.930000", "162038.934000", "162118.846000", "162118.850000", "162118.853000", "162118.857000", "162118.860000", "162118.864000", "162118.867000", "162118.870000", "162118.874000", "162118.877000", "162118.880000", "162118.884000", "162118.887000", "162118.890000", "162118.894000", "162118.897000", "162118.900000", "162118.903000", "162118.907000", "162118.910000", "162118.913000", "162118.917000", "162118.920000", "162118.923000", "162118.927000", "162118.930000", "162118.933000", "162158.846000", "162158.850000", "162158.853000", "162158.857000", "162158.860000", "162158.863000", "162158.867000", "162158.870000", "162158.873000", "162158.877000", "162158.880000", "162158.884000", "162158.887000", "162158.890000", "162158.894000", "162158.899000", "162158.902000", "162158.905000", "162158.909000", "162158.912000", "162158.915000", "162158.919000", "162158.922000", "162158.925000", "162158.939000", "162158.943000", "162158.946000", "162238.846000", "162238.850000", "162238.853000", "162238.857000", "162238.860000", "162238.863000", "162238.867000", "162238.870000", "162238.874000", "162238.877000", "162238.880000", "162238.884000", "162238.887000", "162238.890000", "162238.894000", "162238.897000", "162238.900000", "162238.904000", "162238.907000", "162238.910000", "162238.914000", "162238.917000", "162238.920000", "162238.924000", "162238.927000", "162238.930000", "162238.933000", "162318.846000", "162318.850000", "162318.853000", "162318.857000", "162318.860000", "162318.863000", "162318.867000", "162318.870000", "162318.873000", "162318.877000", "162318.880000", "162318.883000", "162318.887000", "162318.890000", "162318.894000", "162318.897000", "162318.900000", "162318.903000", "162318.907000", "162318.910000", "162318.913000", "162318.917000", "162318.920000", "162318.923000", "162318.927000", "162318.930000", "162318.933000", "162357.688000", "162357.692000", "162357.695000", "162357.699000", "162357.702000", "162357.705000", "162357.709000", "162357.712000", "162357.715000", "162357.719000", "162357.722000", "162357.725000", "162357.729000", "162357.732000", "162357.735000", "162357.739000", "162357.742000", "162357.745000", "162357.749000", "162357.752000", "162357.756000", "162357.759000", "162357.763000", "162357.766000", "162357.769000", "162357.773000"],
