{
  "AcquisitionMatrixPE": 104,
  "AcquisitionNumber": 1,
  "AcquisitionTime": "18:18:11.587500",
  "BandwidthPerPixelPhaseEncode": 17.17,
  "BaseResolution": 104,
  "BodyPartExamined": "BRAIN",
  "CoilCombinationMethod": "Sum of Squares",
  "ConsistencyInfo": "N4_VE11C_LATEST_20160120",
  "ConversionSoftware": "dcm2niix",
  "ConversionSoftwareVersion": "v1.0.20211006",
  "DerivedVendorReportedEchoSpacing": 0.000560011,
  "DeviceSerialNumber": "167006",
  "DwellTime": 2.1e-06,
  "EchoTime": 0.037,
  "EchoTime1": 0.037,
  "EchoTime2": 0.001,
  "EchoTrainLength": 104,
  "EffectiveEchoSpacing": 0.000560011,
  "FlipAngle": 52,
  "HeudiconvVersion": "0.10.0",
  "ImageComments": "Unaliased MB4/PE3/LB",
  "ImageOrientationPatientDICOM": [0.995731, 0.08317, 0.0400382, -0.0661363, 0.945412, -0.319095],
  "ImageOrientationText": "Tra>Cor(-18.4)>Sag(3.7)",
  "ImageType": [
    "ORIGINAL",
    "PRIMARY",
    "P",
    "MB",
    "ND",
    "MOSAIC",
    "PHASE"
],
  "ImagingFrequency": 123.259,
  "InPlanePhaseEncodingDirectionDICOM": "COL",
  "InstitutionAddress": "Chemin Queen-Mary 4565,Montreal,District,CA,H3W 1W5",
  "InstitutionName": "IUGM",
  "InstitutionalDepartmentName": "Department",
  "MRAcquisitionType": "2D",
  "MagneticFieldStrength": 3,
  "Manufacturer": "Siemens",
  "ManufacturersModelName": "Prisma_fit",
  "MatrixCoilMode": "SENSE",
  "Modality": "MR",
  "MultibandAccelerationFactor": 4,
  "PartialFourier": 1,
  "PatientPosition": "HFS",
  "PercentPhaseFOV": 100,
  "PercentSampling": 100,
  "PhaseEncodingDirection": "j",
  "PhaseEncodingSteps": 104,
  "PhaseResolution": 1,
  "PixelBandwidth": 2290,
  "ProcedureStepDescription": "games^mario",
  "ProtocolName": "func_task-mario_run-04",
  "PulseSequenceDetails": "%CustomerSeq%\\cmrr_mbep2d_bold",
  "ReceiveCoilActiveElements": "HC1-7;NC1,2",
  "ReceiveCoilName": "HeadNeck_64",
  "ReconMatrixPE": 104,
  "RepetitionTime": 1.49,
  "SAR": 0.0400793,
  "ScanOptions": "FS",
  "ScanningSequence": "EP",
  "SequenceName": "epfid2d1_104",
  "SequenceVariant": "SK\\SS",
  "SeriesDescription": "func_task-mario_run-04",
  "SeriesNumber": 20,
  "ShimSetting": [632, -7185, -8823, 648, 73, 12, 13, -18],
  "SliceThickness": 2,
  "SliceTiming": [0, 0.785, 0.0975, 0.8825, 0.195, 0.98, 0.295, 1.0775, 0.3925, 1.175, 0.49, 1.275, 0.5875, 1.3725, 0.685, 0, 0.785, 0.0975, 0.8825, 0.195, 0.98, 0.295, 1.0775, 0.3925, 1.175, 0.49, 1.275, 0.5875, 1.3725, 0.685, 0, 0.785, 0.0975, 0.8825, 0.195, 0.98, 0.295, 1.0775, 0.3925, 1.175, 0.49, 1.275, 0.5875, 1.3725, 0.685, 0, 0.785, 0.0975, 0.8825, 0.195, 0.98, 0.295, 1.0775, 0.3925, 1.175, 0.49, 1.275, 0.5875, 1.3725, 0.685],
  "SoftwareVersions": "syngo MR E11",
  "SpacingBetweenSlices": 2,
  "StationName": "MRC35049",
  "TaskName": "mario",
  "TotalReadoutTime": 0.0576811,
  "TxRefAmp": 252.723,
  "WipMemBlock": "17d45ddf-864f-449a-9fb8-58bb5d82de01||Sequence: R016 ve11c/master r/e634e98; Dec 19 2017 11:00:25 by eja",
  "dcmmeta_affine": [
    [-1.9914615154266357, -0.13227269053459167, 0.12878336012363434, 109.70771789550781],
    [-0.16634003818035126, 1.8908246755599976, -0.6301690340042114, -53.26681137084961],
    [0.08007630705833435, 0.6381896138191223, 1.8937532901763916, -63.432403564453125],
    [0.0, 0.0, 0.0, 1.0]
],
  "dcmmeta_reorient_transform": [
    [0.0, -1.0, 0.0, 103.0],
    [1.0, 0.0, 0.0, 0.0],
    [0.0, 0.0, 1.0, 0.0],
    [0.0, 0.0, 0.0, 1.0]
],
  "dcmmeta_shape": [104, 104, 60, 443],
  "dcmmeta_slice_dim": 2,
  "dcmmeta_version": 0.6,
  "global": {
    "const": {
      "AcquisitionMatrix": [104, 0, 0, 104],
      "AngioFlag": "N",
      "BitsAllocated": 16,
      "BitsStored": 16,
      "BodyPartExamined": "BRAIN",
      "Columns": 832,
      "EchoNumbers": 1,
      "EchoTime": 37.0,
      "EchoTrainLength": 104,
      "FlipAngle": 52.0,
      "HighBit": 15,
      "ImageOrientationPatient": [0.9957307339612, 0.08317001764104, 0.04003815193888, -0.0661363489817, 0.94541234178721, -0.3190947936582],
      "ImagePositionPatient": [-772.82834515595, -890.29608700915, 205.45435984299],
      "ImageType": [
        "ORIGINAL",
        "PRIMARY",
        "P",
        "MB",
        "ND",
        "MOSAIC"
],
      "ImagedNucleus": "1H",
      "ImagingFrequency": 123.258877,
      "InPlanePhaseEncodingDirection": "COL",
      "LargestImagePixelValue": 4095,
      "MRAcquisitionType": "2D",
      "MagneticFieldStrength": 3.0,
      "Manufacturer": "SIEMENS",
      "ManufacturerModelName": "Prisma_fit",
      "Modality": "MR",
      "NumberOfAverages": 1.0,
      "NumberOfPhaseEncodingSteps": 104,
      "PercentPhaseFieldOfView": 100.0,
      "PercentSampling": 100.0,
      "PerformedProcedureStepStartTime": "162844.692000",
      "PhotometricInterpretation": "MONOCHROME2",
      "PixelBandwidth": 2290.0,
      "PixelRepresentation": 0,
      "PixelSpacing": [2.0, 2.0],
      "ProtocolName": "func_task-mario_run-04",
      "RepetitionTime": 1490.0,
      "RescaleIntercept": -4096.0,
      "RescaleSlope": 2.0,
      "RescaleType": "US",
      "Rows": 832,
      "SAR": 0.04007934351375,
      "SamplesPerPixel": 1,
      "ScanOptions": "FS",
      "ScanningSequence": "EP",
      "SequenceName": "epfid2d1_104",
      "SequenceVariant": [
        "SK",
        "SS"
],
      "SeriesDescription": "func_task-mario_run-04",
      "SeriesNumber": 20,
      "SeriesTime": "181935.455000",
      "SliceLocation": -36.214850644869,
      "SliceThickness": 2.0,
      "SmallestImagePixelValue": 0,
      "SoftwareVersions": "syngo MR E11",
      "SpacingBetweenSlices": 1.9999999728821,
      "SpecificCharacterSet": "ISO_IR 100",
      "StudyID": "1",
      "StudyTime": "162844.555000",
      "TransmitCoilName": "Body",
      "VariableFlipAngleFlag": "N",
      "WindowCenterWidthExplanation": "Algo1",
      "dBdt": 0.0},
    "slices": {}
  },
  "time": {
    "samples": {
      "AcquisitionNumber": [1, 2, 3, 4, 5, 6, 7, 8, 9, 10, 11, 12, 13, 14, 15, 16, 17, 18, 19, 20, 21, 22, 23, 24, 25, 26, 27, 28, 29, 30, 31, 32, 33, 34, 35, 36, 37, 38, 39, 40, 41, 42, 43, 44, 45, 46, 47, 48, 49, 50, 51, 52, 53, 54, 55, 56, 57, 58, 59, 60, 61, 62, 63, 64, 65, 66, 67, 68, 69, 70, 71, 72, 73, 74, 75, 76, 77, 78, 79, 80, 81, 82, 83, 84, 85, 86, 87, 88, 89, 90, 91, 92, 93, 94, 95, 96, 97, 98, 99, 100, 101, 102, 103, 104, 105, 106, 107, 108, 109, 110, 111, 112, 113, 114, 115, 116, 117, 118, 119, 120, 121, 122, 123, 124, 125, 126, 127, 128, 129, 130, 131, 132, 133, 134, 135, 136, 137, 138, 139, 140, 141, 142, 143, 144, 145, 146, 147, 148, 149, 150, 151, 152, 153, 154, 155, 156, 157, 158, 159, 160, 161, 162, 163, 164, 165, 166, 167, 168, 169, 170, 171, 172, 173, 174, 175, 176, 177, 178, 179, 180, 181, 182, 183, 184, 185, 186, 187, 188, 189, 190, 191, 192, 193, 194, 195, 196, 197, 198, 199, 200, 201, 202, 203, 204, 205, 206, 207, 208, 209, 210, 211, 212, 213, 214, 215, 216, 217, 218, 219, 220, 221, 222, 223, 224, 225, 226, 227, 228, 229, 230, 231, 232, 233, 234, 235, 236, 237, 238, 239, 240, 241, 242, 243, 244, 245, 246, 247, 248, 249, 250, 251, 252, 253, 254, 255, 256, 257, 258, 259, 260, 261, 262, 263, 264, 265, 266, 267, 268, 269, 270, 271, 272, 273, 274, 275, 276, 277, 278, 279, 280, 281, 282, 283, 284, 285, 286, 287, 288, 289, 290, 291, 292, 293, 294, 295, 296, 297, 298, 299, 300, 301, 302, 303, 304, 305, 306, 307, 308, 309, 310, 311, 312, 313, 314, 315, 316, 317, 318, 319, 320, 321, 322, 323, 324, 325, 326, 327, 328, 329, 330, 331, 332, 333, 334, 335, 336, 337, 338, 339, 340, 341, 342, 343, 344, 345, 346, 347, 348, 349, 350, 351, 352, 353, 354, 355, 356, 357, 358, 359, 360, 361, 362, 363, 364, 365, 366, 367, 368, 369, 370, 371, 372, 373, 374, 375, 376, 377, 378, 379, 380, 381, 382, 383, 384, 385, 386, 387, 388, 389, 390, 391, 392, 393, 394, 395, 396, 397, 398, 399, 400, 401, 402, 403, 404, 405, 406, 407, 408, 409, 410, 411, 412, 413, 414, 415, 416, 417, 418, 419, 420, 421, 422, 423, 424, 425, 426, 427, 428, 429, 430, 431, 432, 433, 434, 435, 436, 437, 438, 439, 440, 441, 442, 443],
      "AcquisitionTime": ["181811.587500", "181813.077500", "181814.567500", "181816.057500", "181817.547500", "181819.037500", "181820.527500", "181822.017500", "181823.507500", "181824.997500", "181826.487500", "181827.977500", "181829.467500", "181830.957500", "181832.447500", "181833.937500", "181835.427500", "181836.917500", "181838.407500", "181839.897500", "181841.387500", "181842.877500", "181844.367500", "181845.857500", "181847.347500", "181848.837500", "181850.327500", "181851.817500", "181853.307500", "181854.797500", "181856.287500", "181857.777500", "181859.267500", "181900.757500", "181902.247500", "181903.737500", "181905.227500", "181906.717500", "181908.207500", "181909.697500", "181911.187500", "181912.677500", "181914.167500", "181915.657500", "181917.147500", "181918.637500", "181920.127500", "181921.617500", "181923.107500", "181924.597500", "181926.087500", "181927.577500", "181929.067500", "181930.557500", "181932.047500", "181933.537500", "181935.027500", "181936.517500", "181938.007500", "181939.497500", "181940.987500", "181942.477500", "181943.967500", "181945.457500", "181946.947500", "181948.437500", "181949.927500", "181951.417500", "181952.907500", "181954.397500", "181955.887500", "181957.377500", "181958.867500", "182000.357500", "182001.847500", "182003.337500", "182004.827500", "182006.317500", "182007.807500", "182009.297500", "182010.787500", "182012.277500", "182013.767500", "182015.257500", "182016.747500", "182018.237500", "182019.727500", "182021.217500", "182022.707500", "182024.197500", "182025.687500", "182027.177500", "182028.667500", "182030.157500", "182031.647500", "182033.137500", "182034.627500", "182036.117500", "182037.607500", "182039.097500", "182040.587500", "182042.077500", "182043.567500", "182045.057500", "182046.547500", "182048.037500", "182049.527500", "182051.017500", "182052.507500", "182053.997500", "182055.487500", "182056.977500", "182058.467500", "182059.957500", "182101.447500", "182102.937500", "182104.427500", "182105.917500", "182107.407500", "182108.897500", "182110.387500", "182111.877500", "182113.367500", "182114.857500", "182116.347500", "182117.837500", "182119.327500", "182120.817500", "182122.307500", "182123.797500", "182125.287500", "182126.777500", "182128.267500", "182129.757500", "182131.247500", "182132.737500", "182134.227500", "182135.717500", "182137.207500", "182138.697500", "182140.187500", "182141.677500", "182143.167500", "182144.657500", "182146.147500", "182147.637500", "182149.127500", "182150.617500", "182152.107500", "182153.597500", "182155.087500", "182156.577500", "182158.067500", "182159.557500", "182201.047500", "182202.537500", "182204.027500", "182205.517500", "182207.007500", "182208.497500", "182209.987500", "182211.477500", "182212.967500", "182214.457500", "182215.947500", "182217.437500", "182218.927500", "182220.417500", "182221.907500", "182223.397500", "182224.887500", "182226.377500", "182227.867500", "182229.357500", "182230.847500", "182232.337500", "182233.827500", "182235.317500", "182236.807500", "182238.297500", "182239.787500", "182241.277500", "182242.767500", "182244.257500", "182245.747500", "182247.237500", "182248.727500", "182250.217500", "182251.707500", "182253.197500", "182254.687500", "182256.177500", "182257.667500", "182259.157500", "182300.647500", "182302.137500", "182303.627500", "182305.117500", "182306.607500", "182308.097500", "182309.587500", "182311.077500", "182312.567500", "182314.057500", "182315.547500", "182317.037500", "182318.527500", "182320.017500", "182321.507500", "182322.997500", "182324.487500", "182325.977500", "182327.467500", "182328.957500", "182330.447500", "182331.937500", "182333.427500", "182334.917500", "182336.407500", "182337.897500", "182339.387500", "182340.877500", "182342.367500", "182343.857500", "182345.347500", "182346.837500", "182348.327500", "182349.817500", "182351.307500", "182352.797500", "182354.287500", "182355.777500", "182357.267500", "182358.757500", "182400.247500", "182401.737500", "182403.227500", "182404.717500", "182406.207500", "182407.697500", "182409.187500", "182410.677500", "182412.167500", "182413.657500", "182415.147500", "182416.637500", "182418.127500", "182419.617500", "182421.107500", "182422.597500", "182424.087500", "182425.577500", "182427.067500", "182428.557500", "182430.047500", "182431.537500", "182433.027500", "182434.517500", "182436.007500", "182437.497500", "182438.987500", "182440.477500", "182441.967500", "182443.457500", "182444.947500", "182446.437500", "182447.927500", "182449.417500", "182450.907500", "182452.397500", "182453.887500", "182455.377500", "182456.867500", "182458.357500", "182459.847500", "182501.337500", "182502.827500", "182504.317500", "182505.807500", "182507.297500", "182508.787500", "182510.277500", "182511.767500", "182513.257500", "182514.747500", "182516.237500", "182517.727500", "182519.217500", "182520.707500", "182522.197500", "182523.687500", "182525.177500", "182526.667500", "182528.157500", "182529.647500", "182531.137500", "182532.627500", "182534.117500", "182535.607500", "182537.097500", "182538.587500", "182540.077500", "182541.567500", "182543.057500", "182544.547500", "182546.037500", "182547.527500", "182549.017500", "182550.507500", "182551.997500", "182553.487500", "182554.977500", "182556.467500", "182557.957500", "182559.447500", "182600.937500", "182602.427500", "182603.917500", "182605.407500", "182606.897500", "182608.387500", "182609.877500", "182611.367500", "182612.857500", "182614.347500", "182615.837500", "182617.327500", "182618.817500", "182620.307500", "182621.797500", "182623.287500", "182624.777500", "182626.267500", "182627.757500", "182629.247500", "182630.737500", "182632.227500", "182633.717500", "182635.207500", "182636.697500", "182638.187500", "182639.677500", "182641.167500", "182642.657500", "182644.147500", "182645.637500", "182647.127500", "182648.617500", "182650.107500", "182651.597500", "182653.087500", "182654.577500", "182656.067500", "182657.557500", "182659.047500", "182700.537500", "182702.027500", "182703.517500", "182705.007500", "182706.497500", "182707.987500", "182709.477500", "182710.967500", "182712.457500", "182713.947500", "182715.437500", "182716.927500", "182718.417500", "182719.907500", "182721.397500", "182722.887500", "182724.377500", "182725.867500", "182727.357500", "182728.847500", "182730.337500", "182731.827500", "182733.317500", "182734.807500", "182736.297500", "182737.787500", "182739.277500", "182740.767500", "182742.257500", "182743.747500", "182745.237500", "182746.727500", "182748.217500", "182749.707500", "182751.197500", "182752.687500", "182754.177500", "182755.667500", "182757.157500", "182758.647500", "182800.137500", "182801.627500", "182803.117500", "182804.607500", "182806.097500", "182807.587500", "182809.077500", "182810.567500", "182812.057500", "182813.547500", "182815.037500", "182816.527500", "182818.017500", "182819.507500", "182820.997500", "182822.487500", "182823.977500", "182825.467500", "182826.957500", "182828.447500", "182829.937500", "182831.427500", "182832.917500", "182834.407500", "182835.897500", "182837.387500", "182838.877500", "182840.367500", "182841.857500", "182843.347500", "182844.837500", "182846.327500", "182847.817500", "182849.307500", "182850.797500", "182852.287500", "182853.777500", "182855.267500", "182856.757500", "182858.247500", "182859.737500", "182901.227500", "182902.717500", "182904.207500", "182905.697500", "182907.187500", "182908.677500", "182910.167500"],
      "ContentTime": ["181935.457000", "181935.460000", "181935.462000", "181935.465000", "181935.467000", "181935.470000", "181935.472000", "181935.475000", "181935.477000", "181935.480000", "181935.482000", "181935.485000", "181935.487000", "181935.489000", "181935.492000", "181935.494000", "181935.497000", "181935.499000", "181935.502000", "181935.504000", "181935.507000", "181935.509000", "181935.512000", "181935.514000", "181935.517000", "181935.519000", "181955.372000", "181955.375000", "181955.377000", "181955.379000", "181955.382000", "181955.384000", "181955.387000", "181955.389000", "181955.392000", "181955.394000", "181955.397000", "181955.399000", "181955.402000", "181955.404000", "181955.406000", "181955.409000", "181955.412000", "181955.414000", "181955.417000", "181955.419000", "182015.354000", "182015.357000", "182015.359000", "182015.361000", "182015.364000", "182015.366000", "182015.369000", "182015.371000", "182015.374000", "182015.376000", "182015.379000", "182015.381000", "182015.384000", "182015.386000", "182015.389000", "182015.391000", "182015.394000", "182015.396000", "182015.398000", "182015.401000", "182035.353000", "182035.355000", "182035.358000", "182035.360000", "182035.370000", "182035.372000", "182035.375000", "182035.378000", "182035.380000", "182035.383000", "182035.385000", "182035.388000", "182035.390000", "182035.393000", "182035.395000", "182035.398000", "182035.400000", "182035.403000", "182035.405000", "182035.408000", "182055.364000", "182055.367000", "182055.370000", "182055.372000", "182055.375000", "182055.377000", "182055.380000", "182055.382000", "182055.385000", "182055.387000", "182055.390000", "182055.393000", "182055.395000", "182055.397000", "182055.400000", "182055.403000", "182055.405000", "182055.407000", "182055.410000", "182055.412000", "182055.415000", "182135.406000", "182135.408000", "182135.411000", "182135.413000", "182135.416000", "182135.418000", "182135.421000", "182135.423000", "182135.426000", "182135.428000", "182135.431000", "182135.433000", "182135.436000", "182135.438000", "182135.441000", "182135.443000", "182135.446000", "182135.448000", "182135.451000", "182135.453000", "182135.456000", "182135.458000", "182135.461000", "182135.463000", "182135.465000", "182135.468000", "182135.470000", "182135.473000", "182135.476000", "182215.554000", "182215.557000", "182215.559000", "182215.562000", "182215.564000", "182215.567000", "182215.570000", "182215.572000", "182215.574000", "182215.577000", "182215.579000", "182215.582000", "182215.584000", "182215.587000", "182215.589000", "182215.592000", "182215.594000", "182215.597000", "182215.599000", "182215.602000", "182215.604000", "182215.607000", "182215.609000", "182215.612000", "182215.614000", "182215.617000", "182255.433000", "182255.436000", "182255.438000", "182255.441000", "182255.444000", "182255.446000", "182255.449000", "182255.451000", "182255.453000", "182255.456000", "182255.458000", "182255.461000", "182255.464000", "182255.466000", "182255.469000", "182255.471000", "182255.474000", "182255.476000", "182255.479000", "182255.481000", "182255.484000", "182255.486000", "182255.489000", "182255.491000", "182255.494000", "182255.496000", "182255.499000", "182315.785000", "182315.788000", "182315.797000", "182315.800000", "182315.803000", "182315.805000", "182315.808000", "182315.810000", "182315.813000", "182315.815000", "182315.818000", "182315.821000", "182315.823000", "182315.826000", "182355.405000", "182355.408000", "182355.411000", "182355.413000", "182355.415000", "182355.418000", "182355.421000", "182355.423000", "182355.425000", "182355.428000", "182355.431000", "182355.433000", "182355.436000", "182355.438000", "182355.441000", "182355.443000", "182355.446000", "182355.448000", "182355.451000", "182355.453000", "182355.456000", "182355.458000", "182355.461000", "182355.463000", "182355.466000", "182355.468000", "182355.471000", "182435.390000", "182435.392000", "182435.395000", "182435.397000", "182435.400000", "182435.403000", "182435.405000", "182435.408000", "182435.410000", "182435.413000", "182435.415000", "182435.418000", "182435.420000", "182435.423000", "182435.425000", "182435.428000", "182435.430000", "182435.433000", "182435.435000", "182435.438000", "182435.440000", "182435.443000", "182435.445000", "182435.448000", "182435.450000", "182435.453000", "182515.387000", "182515.390000", "182515.392000", "182515.395000", "182515.398000", "182515.400000", "182515.402000", "182515.405000", "182515.408000", "182515.410000", "182515.413000", "182515.415000", "182515.418000", "182515.420000", "182515.423000", "182515.425000", "182515.428000", "182515.430000", "182515.433000", "182515.435000", "182515.439000", "182515.441000", "182515.444000", "182515.446000", "182515.449000", "182515.451000", "182515.454000", "182555.383000", "182555.386000", "182555.389000", "182555.391000", "182555.394000", "182555.396000", "182555.399000", "182555.401000", "182555.404000", "182555.406000", "182555.409000", "182555.411000", "182555.414000", "182555.416000", "182555.419000", "182555.421000", "182555.424000", "182555.426000", "182555.429000", "182555.431000", "182555.434000", "182555.436000", "182555.439000", "182555.441000", "182555.444000", "182555.446000", "182555.449000", "182635.409000", "182635.411000", "182635.414000", "182635.416000", "182635.419000", "182635.421000", "182635.424000", "182635.426000", "182635.429000", "182635.431000", "182635.434000", "182635.436000", "182635.439000", "182635.441000", "182635.444000", "182635.446000", "182635.448000", "182635.451000", "182635.453000", "182635.456000", "182635.459000", "182635.461000", "182635.464000", "182635.466000", "182635.469000", "182635.471000", "182635.474000", "182715.388000", "182715.391000", "182715.393000", "182715.396000", "182715.398000", "182715.401000", "182715.403000", "182715.406000", "182715.408000", "182715.411000", "182715.413000", "182715.416000", "182715.418000", "182715.421000", "182715.423000", "182715.426000", "182715.428000", "182715.431000", "182715.433000", "182715.436000", "182715.438000", "182715.441000", "182715.443000", "182715.446000", "182715.448000", "182715.451000", "182715.453000", "182755.386000", "182755.388000", "182755.391000", "182755.393000", "182755.396000", "182755.398000", "182755.401000", "182755.403000", "182755.406000", "182755.408000", "182755.411000", "182755.413000", "182755.416000", "182755.418000", "182755.421000", "182755.423000", "182755.426000", "182755.428000", "182755.431000", "182755.433000", "182755.436000", "182755.438000", "182755.441000", "182755.443000", "182755.446000", "182755.448000", "182755.451000", "182835.411000", "182835.414000", "182835.416000", "182835.419000", "182835.421000", "182835.424000", "182835.426000", "182835.429000", "182835.431000", "182835.434000", "182835.436000", "182835.439000", "182835.441000", "182835.444000", "182835.446000", "182835.448000", "182835.451000", "182835.453000", "182835.456000", "182835.458000", "182835.461000", "182835.463000", "182835.466000", "182835.468000", "182835.471000", "182835.473000", "182835.476000", "182913.799000", "182913.802000", "182913.805000", "182913.807000", "182913.810000", "182913.812000", "182913.815000", "182913.817000", "182913.820000", "182913.822000", "182913.825000", "182913.827000", "182913.830000", "182913.832000", "182913.835000", "182913.837000", "182913.839000", "182913.842000", "182913.845000", "182913.847000", "182913.850000", "182913.852000", "182913.855000", "182913.857000", "182913.859000"],
