{
  "AcquisitionMatrixPE": 104,
  "AcquisitionNumber": 1,
  "AcquisitionTime": "17:52:17.245000",
  "BandwidthPerPixelPhaseEncode": 17.17,
  "BaseResolution": 104,
  "BodyPartExamined": "BRAIN",
  "CoilCombinationMethod": "Sum of Squares",
  "ConsistencyInfo": "N4_VE11C_LATEST_20160120",
  "ConversionSoftware": "dcm2niix",
  "ConversionSoftwareVersion": "v1.0.20211006",
  "DerivedVendorReportedEchoSpacing": 0.000560011,
  "DeviceSerialNumber": "167006",
  "DwellTime": 2.1e-06,
  "EchoTime": 0.037,
  "EchoTime1": 0.037,
  "EchoTime2": 0.001,
  "EchoTrainLength": 104,
  "EffectiveEchoSpacing": 0.000560011,
  "FlipAngle": 52,
  "HeudiconvVersion": "0.10.0",
  "ImageComments": "Unaliased MB4/PE3/LB",
  "ImageOrientationPatientDICOM": [0.995731, 0.08317, 0.0400382, -0.0661363, 0.945412, -0.319095],
  "ImageOrientationText": "Tra>Cor(-18.4)>Sag(3.7)",
  "ImageType": [
    "ORIGINAL",
    "PRIMARY",
    "P",
    "MB",
    "ND",
    "MOSAIC",
    "PHASE"
],
  "ImagingFrequency": 123.259,
  "InPlanePhaseEncodingDirectionDICOM": "COL",
  "InstitutionAddress": "Chemin Queen-Mary 4565,Montreal,District,CA,H3W 1W5",
  "InstitutionName": "IUGM",
  "InstitutionalDepartmentName": "Department",
  "MRAcquisitionType": "2D",
  "MagneticFieldStrength": 3,
  "Manufacturer": "Siemens",
  "ManufacturersModelName": "Prisma_fit",
  "MatrixCoilMode": "SENSE",
  "Modality": "MR",
  "MultibandAccelerationFactor": 4,
  "PartialFourier": 1,
  "PatientPosition": "HFS",
  "PercentPhaseFOV": 100,
  "PercentSampling": 100,
  "PhaseEncodingDirection": "j",
  "PhaseEncodingSteps": 104,
  "PhaseResolution": 1,
  "PixelBandwidth": 2290,
  "ProcedureStepDescription": "games^mario",
  "ProtocolName": "func_task-mario_run-02",
  "PulseSequenceDetails": "%CustomerSeq%\\cmrr_mbep2d_bold",
  "ReceiveCoilActiveElements": "HC1-7;NC1,2",
  "ReceiveCoilName": "HeadNeck_64",
  "ReconMatrixPE": 104,
  "RepetitionTime": 1.49,
  "SAR": 0.0400793,
  "ScanOptions": "FS",
  "ScanningSequence": "EP",
  "SequenceName": "epfid2d1_104",
  "SequenceVariant": "SK\\SS",
  "SeriesDescription": "func_task-mario_run-02",
  "SeriesNumber": 14,
  "ShimSetting": [632, -7185, -8823, 648, 73, 12, 13, -18],
  "SliceThickness": 2,
  "SliceTiming": [0, 0.7825, 0.0975, 0.8825, 0.195, 0.98, 0.2925, 1.0775, 0.3925, 1.175, 0.49, 1.2725, 0.5875, 1.3725, 0.685, 0, 0.7825, 0.0975, 0.8825, 0.195, 0.98, 0.2925, 1.0775, 0.3925, 1.175, 0.49, 1.2725, 0.5875, 1.3725, 0.685, 0, 0.7825, 0.0975, 0.8825, 0.195, 0.98, 0.2925, 1.0775, 0.3925, 1.175, 0.49, 1.2725, 0.5875, 1.3725, 0.685, 0, 0.7825, 0.0975, 0.8825, 0.195, 0.98, 0.2925, 1.0775, 0.3925, 1.175, 0.49, 1.2725, 0.5875, 1.3725, 0.685],
  "SoftwareVersions": "syngo MR E11",
  "SpacingBetweenSlices": 2,
  "StationName": "MRC35049",
  "TaskName": "mario",
  "TotalReadoutTime": 0.0576811,
  "TxRefAmp": 252.723,
  "WipMemBlock": "a64fe41d-abc4-4541-9b43-a4a61af633fa||Sequence: R016 ve11c/master r/e634e98; Dec 19 2017 11:00:25 by eja",
  "dcmmeta_affine": [
    [-1.9914615154266357, -0.13227269053459167, 0.12878336012363434, 109.70771789550781],
    [-0.16634003818035126, 1.8908246755599976, -0.6301690340042114, -53.26681137084961],
    [0.08007630705833435, 0.6381896138191223, 1.8937532901763916, -63.432403564453125],
    [0.0, 0.0, 0.0, 1.0]
],
  "dcmmeta_reorient_transform": [
    [0.0, -1.0, 0.0, 103.0],
    [1.0, 0.0, 0.0, 0.0],
    [0.0, 0.0, 1.0, 0.0],
    [0.0, 0.0, 0.0, 1.0]
],
  "dcmmeta_shape": [104, 104, 60, 451],
  "dcmmeta_slice_dim": 2,
  "dcmmeta_version": 0.6,
  "global": {
    "const": {
      "AcquisitionMatrix": [104, 0, 0, 104],
      "AngioFlag": "N",
      "BitsAllocated": 16,
      "BitsStored": 16,
      "BodyPartExamined": "BRAIN",
      "Columns": 832,
      "EchoNumbers": 1,
      "EchoTime": 37.0,
      "EchoTrainLength": 104,
      "FlipAngle": 52.0,
      "HighBit": 15,
      "ImageOrientationPatient": [0.9957307339612, 0.08317001764104, 0.04003815193888, -0.0661363489817, 0.94541234178721, -0.3190947936582],
      "ImagePositionPatient": [-772.82834515595, -890.29608700915, 205.45435984299],
      "ImageType": [
        "ORIGINAL",
        "PRIMARY",
        "P",
        "MB",
        "ND",
        "MOSAIC"
],
      "ImagedNucleus": "1H",
      "ImagingFrequency": 123.258863,
      "InPlanePhaseEncodingDirection": "COL",
      "LargestImagePixelValue": 4095,
      "MRAcquisitionType": "2D",
      "MagneticFieldStrength": 3.0,
      "Manufacturer": "SIEMENS",
      "ManufacturerModelName": "Prisma_fit",
      "Modality": "MR",
      "NumberOfAverages": 1.0,
      "NumberOfPhaseEncodingSteps": 104,
      "PercentPhaseFieldOfView": 100.0,
      "PercentSampling": 100.0,
      "PerformedProcedureStepStartTime": "162844.692000",
      "PhotometricInterpretation": "MONOCHROME2",
      "PixelBandwidth": 2290.0,
      "PixelRepresentation": 0,
      "PixelSpacing": [2.0, 2.0],
      "ProtocolName": "func_task-mario_run-02",
      "RepetitionTime": 1490.0,
      "RescaleIntercept": -4096.0,
      "RescaleSlope": 2.0,
      "RescaleType": "US",
      "Rows": 832,
      "SAR": 0.04007934351375,
      "SamplesPerPixel": 1,
      "ScanOptions": "FS",
      "ScanningSequence": "EP",
      "SequenceName": "epfid2d1_104",
      "SequenceVariant": [
        "SK",
        "SS"
],
      "SeriesDescription": "func_task-mario_run-02",
      "SeriesNumber": 14,
      "SeriesTime": "175323.133000",
      "SliceLocation": -36.214850644869,
      "SliceThickness": 2.0,
      "SmallestImagePixelValue": 0,
      "SoftwareVersions": "syngo MR E11",
      "SpacingBetweenSlices": 1.9999999728821,
      "SpecificCharacterSet": "ISO_IR 100",
      "StudyID": "1",
      "StudyTime": "162844.555000",
      "TransmitCoilName": "Body",
      "VariableFlipAngleFlag": "N",
      "WindowCenterWidthExplanation": "Algo1",
      "dBdt": 0.0},
    "slices": {}
  },
  "time": {
    "samples": {
      "AcquisitionNumber": [1, 2, 3, 4, 5, 6, 7, 8, 9, 10, 11, 12, 13, 14, 15, 16, 17, 18, 19, 20, 21, 22, 23, 24, 25, 26, 27, 28, 29, 30, 31, 32, 33, 34, 35, 36, 37, 38, 39, 40, 41, 42, 43, 44, 45, 46, 47, 48, 49, 50, 51, 52, 53, 54, 55, 56, 57, 58, 59, 60, 61, 62, 63, 64, 65, 66, 67, 68, 69, 70, 71, 72, 73, 74, 75, 76, 77, 78, 79, 80, 81, 82, 83, 84, 85, 86, 87, 88, 89, 90, 91, 92, 93, 94, 95, 96, 97, 98, 99, 100, 101, 102, 103, 104, 105, 106, 107, 108, 109, 110, 111, 112, 113, 114, 115, 116, 117, 118, 119, 120, 121, 122, 123, 124, 125, 126, 127, 128, 129, 130, 131, 132, 133, 134, 135, 136, 137, 138, 139, 140, 141, 142, 143, 144, 145, 146, 147, 148, 149, 150, 151, 152, 153, 154, 155, 156, 157, 158, 159, 160, 161, 162, 163, 164, 165, 166, 167, 168, 169, 170, 171, 172, 173, 174, 175, 176, 177, 178, 179, 180, 181, 182, 183, 184, 185, 186, 187, 188, 189, 190, 191, 192, 193, 194, 195, 196, 197, 198, 199, 200, 201, 202, 203, 204, 205, 206, 207, 208, 209, 210, 211, 212, 213, 214, 215, 216, 217, 218, 219, 220, 221, 222, 223, 224, 225, 226, 227, 228, 229, 230, 231, 232, 233, 234, 235, 236, 237, 238, 239, 240, 241, 242, 243, 244, 245, 246, 247, 248, 249, 250, 251, 252, 253, 254, 255, 256, 257, 258, 259, 260, 261, 262, 263, 264, 265, 266, 267, 268, 269, 270, 271, 272, 273, 274, 275, 276, 277, 278, 279, 280, 281, 282, 283, 284, 285, 286, 287, 288, 289, 290, 291, 292, 293, 294, 295, 296, 297, 298, 299, 300, 301, 302, 303, 304, 305, 306, 307, 308, 309, 310, 311, 312, 313, 314, 315, 316, 317, 318, 319, 320, 321, 322, 323, 324, 325, 326, 327, 328, 329, 330, 331, 332, 333, 334, 335, 336, 337, 338, 339, 340, 341, 342, 343, 344, 345, 346, 347, 348, 349, 350, 351, 352, 353, 354, 355, 356, 357, 358, 359, 360, 361, 362, 363, 364, 365, 366, 367, 368, 369, 370, 371, 372, 373, 374, 375, 376, 377, 378, 379, 380, 381, 382, 383, 384, 385, 386, 387, 388, 389, 390, 391, 392, 393, 394, 395, 396, 397, 398, 399, 400, 401, 402, 403, 404, 405, 406, 407, 408, 409, 410, 411, 412, 413, 414, 415, 416, 417, 418, 419, 420, 421, 422, 423, 424, 425, 426, 427, 428, 429, 430, 431, 432, 433, 434, 435, 436, 437, 438, 439, 440, 441, 442, 443, 444, 445, 446, 447, 448, 449, 450, 451],
      "AcquisitionTime": ["175217.245000", "175218.735000", "175220.225000", "175221.715000", "175223.205000", "175224.695000", "175226.185000", "175227.675000", "175229.165000", "175230.655000", "175232.145000", "175233.635000", "175235.125000", "175236.615000", "175238.105000", "175239.595000", "175241.085000", "175242.575000", "175244.065000", "175245.555000", "175247.045000", "175248.535000", "175250.025000", "175251.515000", "175253.005000", "175254.495000", "175255.985000", "175257.475000", "175258.965000", "175300.455000", "175301.945000", "175303.435000", "175304.925000", "175306.415000", "175307.905000", "175309.395000", "175310.885000", "175312.375000", "175313.865000", "175315.355000", "175316.845000", "175318.335000", "175319.825000", "175321.315000", "175322.805000", "175324.295000", "175325.785000", "175327.275000", "175328.765000", "175330.255000", "175331.745000", "175333.235000", "175334.725000", "175336.215000", "175337.705000", "175339.195000", "175340.685000", "175342.175000", "175343.665000", "175345.155000", "175346.645000", "175348.135000", "175349.625000", "175351.115000", "175352.605000", "175354.095000", "175355.585000", "175357.075000", "175358.565000", "175400.055000", "175401.545000", "175403.035000", "175404.525000", "175406.015000", "175407.505000", "175408.995000", "175410.485000", "175411.975000", "175413.465000", "175414.955000", "175416.445000", "175417.935000", "175419.425000", "175420.915000", "175422.405000", "175423.895000", "175425.385000", "175426.875000", "175428.365000", "175429.855000", "175431.345000", "175432.835000", "175434.325000", "175435.815000", "175437.305000", "175438.795000", "175440.285000", "175441.775000", "175443.265000", "175444.755000", "175446.245000", "175447.735000", "175449.225000", "175450.715000", "175452.205000", "175453.695000", "175455.185000", "175456.675000", "175458.165000", "175459.655000", "175501.145000", "175502.635000", "175504.125000", "175505.615000", "175507.105000", "175508.595000", "175510.085000", "175511.575000", "175513.065000", "175514.555000", "175516.045000", "175517.535000", "175519.025000", "175520.515000", "175522.005000", "175523.495000", "175524.985000", "175526.475000", "175527.965000", "175529.455000", "175530.945000", "175532.435000", "175533.925000", "175535.415000", "175536.905000", "175538.395000", "175539.885000", "175541.375000", "175542.865000", "175544.355000", "175545.845000", "175547.335000", "175548.825000", "175550.315000", "175551.805000", "175553.295000", "175554.785000", "175556.275000", "175557.765000", "175559.255000", "175600.745000", "175602.235000", "175603.725000", "175605.215000", "175606.705000", "175608.195000", "175609.685000", "175611.175000", "175612.665000", "175614.155000", "175615.645000", "175617.135000", "175618.625000", "175620.115000", "175621.605000", "175623.095000", "175624.585000", "175626.075000", "175627.565000", "175629.055000", "175630.545000", "175632.035000", "175633.525000", "175635.015000", "175636.505000", "175637.995000", "175639.485000", "175640.975000", "175642.465000", "175643.955000", "175645.445000", "175646.935000", "175648.425000", "175649.915000", "175651.405000", "175652.895000", "175654.385000", "175655.875000", "175657.365000", "175658.855000", "175700.345000", "175701.835000", "175703.325000", "175704.815000", "175706.305000", "175707.795000", "175709.285000", "175710.775000", "175712.265000", "175713.755000", "175715.245000", "175716.735000", "175718.225000", "175719.715000", "175721.205000", "175722.695000", "175724.185000", "175725.675000", "175727.165000", "175728.655000", "175730.145000", "175731.635000", "175733.125000", "175734.615000", "175736.105000", "175737.595000", "175739.085000", "175740.575000", "175742.065000", "175743.555000", "175745.045000", "175746.535000", "175748.025000", "175749.515000", "175751.005000", "175752.495000", "175753.985000", "175755.475000", "175756.965000", "175758.455000", "175759.945000", "175801.435000", "175802.925000", "175804.415000", "175805.905000", "175807.395000", "175808.885000", "175810.375000", "175811.865000", "175813.355000", "175814.845000", "175816.335000", "175817.825000", "175819.315000", "175820.805000", "175822.295000", "175823.785000", "175825.275000", "175826.765000", "175828.255000", "175829.745000", "175831.235000", "175832.725000", "175834.215000", "175835.705000", "175837.195000", "175838.685000", "175840.175000", "175841.665000", "175843.155000", "175844.645000", "175846.135000", "175847.625000", "175849.115000", "175850.605000", "175852.095000", "175853.585000", "175855.075000", "175856.565000", "175858.055000", "175859.545000", "175901.035000", "175902.525000", "175904.015000", "175905.505000", "175906.995000", "175908.485000", "175909.975000", "175911.465000", "175912.955000", "175914.445000", "175915.935000", "175917.425000", "175918.915000", "175920.405000", "175921.895000", "175923.385000", "175924.875000", "175926.365000", "175927.855000", "175929.345000", "175930.835000", "175932.325000", "175933.815000", "175935.305000", "175936.795000", "175938.285000", "175939.775000", "175941.265000", "175942.755000", "175944.245000", "175945.735000", "175947.225000", "175948.715000", "175950.205000", "175951.695000", "175953.185000", "175954.675000", "175956.165000", "175957.655000", "175959.145000", "180000.635000", "180002.125000", "180003.615000", "180005.105000", "180006.595000", "180008.085000", "180009.575000", "180011.065000", "180012.555000", "180014.045000", "180015.535000", "180017.025000", "180018.515000", "180020.005000", "180021.495000", "180022.985000", "180024.475000", "180025.965000", "180027.455000", "180028.945000", "180030.435000", "180031.925000", "180033.415000", "180034.905000", "180036.395000", "180037.885000", "180039.375000", "180040.865000", "180042.355000", "180043.845000", "180045.335000", "180046.825000", "180048.315000", "180049.805000", "180051.295000", "180052.785000", "180054.275000", "180055.765000", "180057.255000", "180058.745000", "180100.235000", "180101.725000", "180103.215000", "180104.705000", "180106.195000", "180107.685000", "180109.175000", "180110.665000", "180112.155000", "180113.645000", "180115.135000", "180116.625000", "180118.115000", "180119.605000", "180121.095000", "180122.585000", "180124.075000", "180125.565000", "180127.055000", "180128.545000", "180130.035000", "180131.525000", "180133.015000", "180134.505000", "180135.995000", "180137.485000", "180138.975000", "180140.465000", "180141.955000", "180143.445000", "180144.935000", "180146.425000", "180147.915000", "180149.405000", "180150.895000", "180152.385000", "180153.875000", "180155.365000", "180156.855000", "180158.345000", "180159.835000", "180201.325000", "180202.815000", "180204.305000", "180205.795000", "180207.285000", "180208.775000", "180210.265000", "180211.755000", "180213.245000", "180214.735000", "180216.225000", "180217.715000", "180219.205000", "180220.695000", "180222.185000", "180223.675000", "180225.165000", "180226.655000", "180228.145000", "180229.635000", "180231.125000", "180232.615000", "180234.105000", "180235.595000", "180237.085000", "180238.575000", "180240.065000", "180241.555000", "180243.045000", "180244.535000", "180246.025000", "180247.515000", "180249.005000", "180250.495000", "180251.985000", "180253.475000", "180254.965000", "180256.455000", "180257.945000", "180259.435000", "180300.925000", "180302.415000", "180303.905000", "180305.395000", "180306.885000", "180308.375000", "180309.865000", "180311.355000", "180312.845000", "180314.335000", "180315.825000", "180317.315000", "180318.805000", "180320.295000", "180321.785000", "180323.275000", "180324.765000", "180326.255000", "180327.745000"],
      "ContentTime": ["175323.135000", "175323.138000", "175323.141000", "175323.143000", "175323.146000", "175323.148000", "175323.151000", "175323.154000", "175323.156000", "175323.159000", "175323.162000", "175323.164000", "175343.103000", "175343.106000", "175343.115000", "175343.117000", "175343.120000", "175343.122000", "175343.125000", "175343.127000", "175343.130000", "175343.132000", "175343.135000", "175343.137000", "175343.140000", "175343.142000", "175343.145000", "175343.147000", "175343.150000", "175343.152000", "175343.155000", "175343.157000", "175403.125000", "175403.128000", "175403.130000", "175403.133000", "175403.135000", "175403.142000", "175403.145000", "175403.147000", "175403.150000", "175403.152000", "175403.155000", "175403.157000", "175403.160000", "175403.163000", "175403.166000", "175403.168000", "175403.171000", "175403.173000", "175403.176000", "175403.178000", "175423.114000", "175423.117000", "175423.119000", "175423.122000", "175423.124000", "175423.127000", "175423.129000", "175423.132000", "175423.134000", "175423.137000", "175423.139000", "175423.142000", "175423.144000", "175423.147000", "175423.149000", "175423.152000", "175423.154000", "175423.157000", "175423.159000", "175423.162000", "175423.165000", "175443.113000", "175443.116000", "175443.118000", "175443.121000", "175443.123000", "175443.126000", "175443.128000", "175443.131000", "175443.133000", "175443.136000", "175443.138000", "175443.141000", "175443.144000", "175443.146000", "175443.149000", "175443.151000", "175443.154000", "175443.156000", "175443.159000", "175443.161000", "175523.144000", "175523.147000", "175523.149000", "175523.152000", "175523.154000", "175523.157000", "175523.159000", "175523.162000", "175523.165000", "175523.167000", "175523.169000", "175523.172000", "175523.175000", "175523.177000", "175523.180000", "175523.182000", "175523.185000", "175523.187000", "175523.190000", "175523.192000", "175523.195000", "175523.197000", "175523.200000", "175523.203000", "175523.205000", "175523.208000", "175523.210000", "175523.213000", "175523.215000", "175523.218000", "175523.220000", "175603.122000", "175603.125000", "175603.128000", "175603.130000", "175603.133000", "175603.135000", "175603.138000", "175603.140000", "175603.143000", "175603.145000", "175603.148000", "175603.151000", "175603.153000", "175603.155000", "175603.158000", "175603.161000", "175603.163000", "175603.166000", "175603.168000", "175603.171000", "175603.173000", "175603.176000", "175603.178000", "175603.181000", "175603.184000", "175603.186000", "175603.189000", "175643.124000", "175643.127000", "175643.129000", "175643.132000", "175643.134000", "175643.137000", "175643.139000", "175643.142000", "175643.144000", "175643.147000", "175643.149000", "175643.152000", "175643.154000", "175643.157000", "175643.159000", "175643.162000", "175643.165000", "175643.167000", "175643.169000", "175643.172000", "175643.175000", "175643.177000", "175643.180000", "175643.182000", "175643.185000", "175643.187000", "175643.190000", "175723.137000", "175723.140000", "175723.146000", "175723.148000", "175723.151000", "175723.153000", "175723.156000", "175723.158000", "175723.161000", "175723.163000", "175723.166000", "175723.168000", "175723.171000", "175723.173000", "175723.176000", "175723.179000", "175723.181000", "175723.184000", "175723.186000", "175723.189000", "175723.191000", "175723.194000", "175723.196000", "175723.199000", "175723.201000", "175723.213000", "175723.216000", "175803.458000", "175803.461000", "175803.464000", "175803.466000", "175803.469000", "175803.472000", "175803.474000", "175803.476000", "175803.479000", "175803.482000", "175803.484000", "175803.487000", "175803.489000", "175803.492000", "175803.495000", "175803.497000", "175803.500000", "175803.502000", "175803.505000", "175803.507000", "175803.510000", "175803.512000", "175803.515000", "175803.517000", "175803.520000", "175803.522000", "175843.135000", "175843.138000", "175843.140000", "175843.143000", "175843.146000", "175843.148000", "175843.151000", "175843.153000", "175843.156000", "175843.158000", "175843.161000", "175843.163000", "175843.166000", "175843.168000", "175843.171000", "175843.173000", "175843.176000", "175843.178000", "175843.181000", "175843.183000", "175843.186000", "175843.189000", "175843.191000", "175843.194000", "175843.196000", "175843.199000", "175843.201000", "175923.138000", "175923.141000", "175923.144000", "175923.146000", "175923.148000", "175923.151000", "175923.153000", "175923.156000", "175923.158000", "175923.161000", "175923.163000", "175923.166000", "175923.168000", "175923.171000", "175923.173000", "175923.176000", "175923.178000", "175923.181000", "175923.183000", "175923.186000", "175923.188000", "175923.191000", "175923.193000", "175923.196000", "175923.198000", "175923.201000", "175923.204000", "180003.135000", "180003.137000", "180003.140000", "180003.142000", "180003.145000", "180003.147000", "180003.150000", "180003.152000", "180003.155000", "180003.157000", "180003.160000", "180003.162000", "180003.165000", "180003.167000", "180003.169000", "180003.172000", "180003.174000", "180003.177000", "180003.179000", "180003.182000", "180003.188000", "180003.191000", "180003.193000", "180003.196000", "180003.198000", "180003.201000", "180003.203000", "180043.131000", "180043.134000", "180043.137000", "180043.139000", "180043.142000", "180043.144000", "180043.147000", "180043.149000", "180043.151000", "180043.154000", "180043.156000", "180043.159000", "180043.162000", "180043.164000", "180043.166000", "180043.169000", "180043.171000", "180043.174000", "180043.177000", "180043.179000", "180043.182000", "180043.184000", "180043.187000", "180043.189000", "180043.192000", "180043.194000", "180043.197000", "180123.129000", "180123.131000", "180123.134000", "180123.137000", "180123.139000", "180123.142000", "180123.144000", "180123.147000", "180123.149000", "180123.152000", "180123.154000", "180123.157000", "180123.160000", "180123.162000", "180123.165000", "180123.167000", "180123.170000", "180123.172000", "180123.175000", "180123.177000", "180123.180000", "180123.182000", "180123.185000", "180123.187000", "180123.190000", "180123.193000", "180123.195000", "180203.154000", "180203.157000", "180203.159000", "180203.169000", "180203.172000", "180203.174000", "180203.176000", "180203.179000", "180203.182000", "180203.184000", "180203.187000", "180203.189000", "180203.192000", "180203.194000", "180203.197000", "180203.199000", "180203.202000", "180203.204000", "180203.207000", "180203.209000", "180203.212000", "180203.214000", "180203.217000", "180203.219000", "180203.222000", "180203.224000", "180243.139000", "180243.142000", "180243.144000", "180243.147000", "180243.149000", "180243.152000", "180243.155000", "180243.157000", "180243.160000", "180243.162000", "180243.165000", "180243.168000", "180243.171000", "180243.173000", "180243.176000", "180243.178000", "180243.181000", "180243.183000", "180243.186000", "180243.188000", "180243.191000", "180243.194000", "180243.196000", "180243.199000", "180243.201000", "180243.204000", "180243.206000", "180323.136000", "180323.139000", "180323.141000", "180323.144000", "180323.146000", "180323.149000", "180323.151000", "180323.154000", "180323.156000", "180323.159000", "180323.161000", "180323.164000", "180323.166000", "180323.169000", "180323.171000", "180323.174000", "180323.176000", "180323.179000", "180323.181000", "180323.184000", "180323.186000", "180323.189000", "180323.191000", "180323.194000", "180323.196000", "180323.199000", "180323.201000", "180330.066000", "180330.069000", "180330.071000", "180330.074000", "180330.077000"],
