{
  "AcquisitionMatrixPE": 104,
  "AcquisitionNumber": 1,
  "AcquisitionTime": "18:05:3.072500",
  "BandwidthPerPixelPhaseEncode": 17.17,
  "BaseResolution": 104,
  "BodyPartExamined": "BRAIN",
  "CoilCombinationMethod": "Sum of Squares",
  "ConsistencyInfo": "N4_VE11C_LATEST_20160120",
  "ConversionSoftware": "dcm2niix",
  "ConversionSoftwareVersion": "v1.0.20211006",
  "DerivedVendorReportedEchoSpacing": 0.000560011,
  "DeviceSerialNumber": "167006",
  "DwellTime": 2.1e-06,
  "EchoTime": 0.037,
  "EchoTrainLength": 104,
  "EffectiveEchoSpacing": 0.000560011,
  "FlipAngle": 52,
  "HeudiconvVersion": "0.10.0",
  "ImageComments": "Unaliased MB4/PE3/LB",
  "ImageOrientationPatientDICOM": [0.995731, 0.08317, 0.0400382, -0.0661363, 0.945412, -0.319095],
  "ImageOrientationText": "Tra>Cor(-18.4)>Sag(3.7)",
  "ImageType": [
    "ORIGINAL",
    "PRIMARY",
    "M",
    "MB",
    "ND",
    "MOSAIC"
],
  "ImagingFrequency": 123.259,
  "InPlanePhaseEncodingDirectionDICOM": "COL",
  "InstitutionAddress": "Chemin Queen-Mary 4565,Montreal,District,CA,H3W 1W5",
  "InstitutionName": "IUGM",
  "InstitutionalDepartmentName": "Department",
  "MRAcquisitionType": "2D",
  "MagneticFieldStrength": 3,
  "Manufacturer": "Siemens",
  "ManufacturersModelName": "Prisma_fit",
  "MatrixCoilMode": "SENSE",
  "Modality": "MR",
  "MultibandAccelerationFactor": 4,
  "PartialFourier": 1,
  "PatientPosition": "HFS",
  "PercentPhaseFOV": 100,
  "PercentSampling": 100,
  "PhaseEncodingDirection": "j",
  "PhaseEncodingSteps": 104,
  "PhaseResolution": 1,
  "PixelBandwidth": 2290,
  "ProcedureStepDescription": "games^mario",
  "ProtocolName": "func_task-mario_run-03",
  "PulseSequenceDetails": "%CustomerSeq%\\cmrr_mbep2d_bold",
  "ReceiveCoilActiveElements": "HC1-7;NC1,2",
  "ReceiveCoilName": "HeadNeck_64",
  "ReconMatrixPE": 104,
  "RepetitionTime": 1.49,
  "SAR": 0.0400793,
  "ScanOptions": "FS",
  "ScanningSequence": "EP",
  "SequenceName": "epfid2d1_104",
  "SequenceVariant": "SK\\SS",
  "SeriesDescription": "func_task-mario_run-03",
  "SeriesNumber": 16,
  "ShimSetting": [632, -7185, -8823, 648, 73, 12, 13, -18],
  "SliceThickness": 2,
  "SliceTiming": [0, 0.785, 0.0975, 0.8825, 0.1975, 0.98, 0.295, 1.0775, 0.3925, 1.1775, 0.49, 1.275, 0.5875, 1.3725, 0.6875, 0, 0.785, 0.0975, 0.8825, 0.1975, 0.98, 0.295, 1.0775, 0.3925, 1.1775, 0.49, 1.275, 0.5875, 1.3725, 0.6875, 0, 0.785, 0.0975, 0.8825, 0.1975, 0.98, 0.295, 1.0775, 0.3925, 1.1775, 0.49, 1.275, 0.5875, 1.3725, 0.6875, 0, 0.785, 0.0975, 0.8825, 0.1975, 0.98, 0.295, 1.0775, 0.3925, 1.1775, 0.49, 1.275, 0.5875, 1.3725, 0.6875],
  "SoftwareVersions": "syngo MR E11",
  "SpacingBetweenSlices": 2,
  "StationName": "MRC35049",
  "TaskName": "mario",
  "TotalReadoutTime": 0.0576811,
  "TxRefAmp": 252.723,
  "WipMemBlock": "79ec8e79-7fe9-4d6b-8a29-33b9f57c597e||Sequence: R016 ve11c/master r/e634e98; Dec 19 2017 11:00:25 by eja",
  "dcmmeta_affine": [
    [-1.9914615154266357, -0.13227269053459167, 0.12878336012363434, 109.70771789550781],
    [-0.16634003818035126, 1.8908246755599976, -0.6301690340042114, -53.26681137084961],
    [0.08007630705833435, 0.6381896138191223, 1.8937532901763916, -63.432403564453125],
    [0.0, 0.0, 0.0, 1.0]
],
  "dcmmeta_reorient_transform": [
    [0.0, -1.0, 0.0, 103.0],
    [1.0, 0.0, 0.0, 0.0],
    [0.0, 0.0, 1.0, 0.0],
    [0.0, 0.0, 0.0, 1.0]
],
  "dcmmeta_shape": [104, 104, 60, 446],
  "dcmmeta_slice_dim": 2,
  "dcmmeta_version": 0.6,
  "global": {
    "const": {
      "AcquisitionMatrix": [104, 0, 0, 104],
      "AngioFlag": "N",
      "BitsAllocated": 16,
      "BitsStored": 16,
      "BodyPartExamined": "BRAIN",
      "Columns": 832,
      "EchoNumbers": 1,
      "EchoTime": 37.0,
      "EchoTrainLength": 104,
      "FlipAngle": 52.0,
      "HighBit": 15,
      "ImageOrientationPatient": [0.9957307339612, 0.08317001764104, 0.04003815193888, -0.0661363489817, 0.94541234178721, -0.3190947936582],
      "ImagePositionPatient": [-772.82834515595, -890.29608700915, 205.45435984299],
      "ImageType": [
        "ORIGINAL",
        "PRIMARY",
        "M",
        "MB",
        "ND",
        "MOSAIC"
],
      "ImagedNucleus": "1H",
      "ImagingFrequency": 123.25887,
      "InPlanePhaseEncodingDirection": "COL",
      "MRAcquisitionType": "2D",
      "MagneticFieldStrength": 3.0,
      "Manufacturer": "SIEMENS",
      "ManufacturerModelName": "Prisma_fit",
      "Modality": "MR",
      "NumberOfAverages": 1.0,
      "NumberOfPhaseEncodingSteps": 104,
      "PercentPhaseFieldOfView": 100.0,
      "PercentSampling": 100.0,
      "PerformedProcedureStepStartTime": "162844.692000",
      "PhotometricInterpretation": "MONOCHROME2",
      "PixelBandwidth": 2290.0,
      "PixelRepresentation": 0,
      "PixelSpacing": [2.0, 2.0],
      "ProtocolName": "func_task-mario_run-03",
      "RepetitionTime": 1490.0,
      "Rows": 832,
      "SAR": 0.04007934351375,
      "SamplesPerPixel": 1,
      "ScanOptions": "FS",
      "ScanningSequence": "EP",
      "SequenceName": "epfid2d1_104",
      "SequenceVariant": [
        "SK",
        "SS"
],
      "SeriesDescription": "func_task-mario_run-03",
      "SeriesNumber": 16,
      "SeriesTime": "180624.597000",
      "SliceLocation": -36.214850644869,
      "SliceThickness": 2.0,
      "SmallestImagePixelValue": 0,
      "SoftwareVersions": "syngo MR E11",
      "SpacingBetweenSlices": 1.9999999728821,
      "SpecificCharacterSet": "ISO_IR 100",
      "StudyID": "1",
      "StudyTime": "162844.555000",
      "TransmitCoilName": "Body",
      "VariableFlipAngleFlag": "N",
      "WindowCenterWidthExplanation": "Algo1",
      "dBdt": 0.0},
    "slices": {}
  },
  "time": {
    "samples": {
      "AcquisitionNumber": [1, 2, 3, 4, 5, 6, 7, 8, 9, 10, 11, 12, 13, 14, 15, 16, 17, 18, 19, 20, 21, 22, 23, 24, 25, 26, 27, 28, 29, 30, 31, 32, 33, 34, 35, 36, 37, 38, 39, 40, 41, 42, 43, 44, 45, 46, 47, 48, 49, 50, 51, 52, 53, 54, 55, 56, 57, 58, 59, 60, 61, 62, 63, 64, 65, 66, 67, 68, 69, 70, 71, 72, 73, 74, 75, 76, 77, 78, 79, 80, 81, 82, 83, 84, 85, 86, 87, 88, 89, 90, 91, 92, 93, 94, 95, 96, 97, 98, 99, 100, 101, 102, 103, 104, 105, 106, 107, 108, 109, 110, 111, 112, 113, 114, 115, 116, 117, 118, 119, 120, 121, 122, 123, 124, 125, 126, 127, 128, 129, 130, 131, 132, 133, 134, 135, 136, 137, 138, 139, 140, 141, 142, 143, 144, 145, 146, 147, 148, 149, 150, 151, 152, 153, 154, 155, 156, 157, 158, 159, 160, 161, 162, 163, 164, 165, 166, 167, 168, 169, 170, 171, 172, 173, 174, 175, 176, 177, 178, 179, 180, 181, 182, 183, 184, 185, 186, 187, 188, 189, 190, 191, 192, 193, 194, 195, 196, 197, 198, 199, 200, 201, 202, 203, 204, 205, 206, 207, 208, 209, 210, 211, 212, 213, 214, 215, 216, 217, 218, 219, 220, 221, 222, 223, 224, 225, 226, 227, 228, 229, 230, 231, 232, 233, 234, 235, 236, 237, 238, 239, 240, 241, 242, 243, 244, 245, 246, 247, 248, 249, 250, 251, 252, 253, 254, 255, 256, 257, 258, 259, 260, 261, 262, 263, 264, 265, 266, 267, 268, 269, 270, 271, 272, 273, 274, 275, 276, 277, 278, 279, 280, 281, 282, 283, 284, 285, 286, 287, 288, 289, 290, 291, 292, 293, 294, 295, 296, 297, 298, 299, 300, 301, 302, 303, 304, 305, 306, 307, 308, 309, 310, 311, 312, 313, 314, 315, 316, 317, 318, 319, 320, 321, 322, 323, 324, 325, 326, 327, 328, 329, 330, 331, 332, 333, 334, 335, 336, 337, 338, 339, 340, 341, 342, 343, 344, 345, 346, 347, 348, 349, 350, 351, 352, 353, 354, 355, 356, 357, 358, 359, 360, 361, 362, 363, 364, 365, 366, 367, 368, 369, 370, 371, 372, 373, 374, 375, 376, 377, 378, 379, 380, 381, 382, 383, 384, 385, 386, 387, 388, 389, 390, 391, 392, 393, 394, 395, 396, 397, 398, 399, 400, 401, 402, 403, 404, 405, 406, 407, 408, 409, 410, 411, 412, 413, 414, 415, 416, 417, 418, 419, 420, 421, 422, 423, 424, 425, 426, 427, 428, 429, 430, 431, 432, 433, 434, 435, 436, 437, 438, 439, 440, 441, 442, 443, 444, 445, 446],
      "AcquisitionTime": ["180503.072500", "180504.562500", "180506.052500", "180507.542500", "180509.032500", "180510.522500", "180512.012500", "180513.502500", "180514.992500", "180516.482500", "180517.972500", "180519.462500", "180520.952500", "180522.442500", "180523.932500", "180525.422500", "180526.912500", "180528.402500", "180529.892500", "180531.382500", "180532.872500", "180534.362500", "180535.852500", "180537.342500", "180538.832500", "180540.322500", "180541.812500", "180543.302500", "180544.792500", "180546.282500", "180547.772500", "180549.262500", "180550.752500", "180552.242500", "180553.732500", "180555.222500", "180556.712500", "180558.202500", "180559.692500", "180601.182500", "180602.672500", "180604.162500", "180605.652500", "180607.142500", "180608.632500", "180610.122500", "180611.612500", "180613.102500", "180614.592500", "180616.082500", "180617.572500", "180619.062500", "180620.552500", "180622.042500", "180623.532500", "180625.022500", "180626.512500", "180628.002500", "180629.492500", "180630.982500", "180632.472500", "180633.962500", "180635.452500", "180636.942500", "180638.432500", "180639.922500", "180641.412500", "180642.902500", "180644.392500", "180645.882500", "180647.372500", "180648.862500", "180650.352500", "180651.842500", "180653.332500", "180654.822500", "180656.312500", "180657.802500", "180659.292500", "180700.782500", "180702.272500", "180703.762500", "180705.252500", "180706.742500", "180708.232500", "180709.722500", "180711.212500", "180712.702500", "180714.192500", "180715.682500", "180717.172500", "180718.662500", "180720.152500", "180721.642500", "180723.132500", "180724.622500", "180726.112500", "180727.602500", "180729.092500", "180730.582500", "180732.072500", "180733.562500", "180735.052500", "180736.542500", "180738.032500", "180739.522500", "180741.012500", "180742.502500", "180743.992500", "180745.482500", "180746.972500", "180748.462500", "180749.952500", "180751.442500", "180752.932500", "180754.422500", "180755.912500", "180757.402500", "180758.892500", "180800.382500", "180801.872500", "180803.362500", "180804.852500", "180806.342500", "180807.832500", "180809.322500", "180810.812500", "180812.302500", "180813.792500", "180815.282500", "180816.772500", "180818.262500", "180819.752500", "180821.242500", "180822.732500", "180824.222500", "180825.712500", "180827.202500", "180828.692500", "180830.182500", "180831.672500", "180833.162500", "180834.652500", "180836.142500", "180837.632500", "180839.122500", "180840.612500", "180842.102500", "180843.592500", "180845.082500", "180846.572500", "180848.062500", "180849.552500", "180851.042500", "180852.532500", "180854.022500", "180855.512500", "180857.002500", "180858.492500", "180859.982500", "180901.472500", "180902.962500", "180904.452500", "180905.942500", "180907.432500", "180908.922500", "180910.412500", "180911.902500", "180913.392500", "180914.882500", "180916.372500", "180917.862500", "180919.352500", "180920.842500", "180922.332500", "180923.822500", "180925.312500", "180926.802500", "180928.292500", "180929.782500", "180931.272500", "180932.762500", "180934.252500", "180935.742500", "180937.232500", "180938.722500", "180940.212500", "180941.702500", "180943.192500", "180944.682500", "180946.172500", "180947.662500", "180949.152500", "180950.642500", "180952.132500", "180953.622500", "180955.112500", "180956.602500", "180958.092500", "180959.582500", "181001.072500", "181002.562500", "181004.052500", "181005.542500", "181007.032500", "181008.522500", "181010.012500", "181011.502500", "181012.992500", "181014.482500", "181015.972500", "181017.462500", "181018.952500", "181020.442500", "181021.932500", "181023.422500", "181024.912500", "181026.402500", "181027.892500", "181029.382500", "181030.872500", "181032.362500", "181033.852500", "181035.342500", "181036.832500", "181038.322500", "181039.812500", "181041.302500", "181042.792500", "181044.282500", "181045.772500", "181047.262500", "181048.752500", "181050.242500", "181051.732500", "181053.222500", "181054.712500", "181056.202500", "181057.692500", "181059.182500", "181100.672500", "181102.162500", "181103.652500", "181105.142500", "181106.632500", "181108.122500", "181109.612500", "181111.102500", "181112.592500", "181114.082500", "181115.572500", "181117.062500", "181118.552500", "181120.042500", "181121.532500", "181123.022500", "181124.512500", "181126.002500", "181127.492500", "181128.982500", "181130.472500", "181131.962500", "181133.452500", "181134.942500", "181136.432500", "181137.922500", "181139.412500", "181140.902500", "181142.392500", "181143.882500", "181145.372500", "181146.862500", "181148.352500", "181149.842500", "181151.332500", "181152.822500", "181154.312500", "181155.802500", "181157.292500", "181158.782500", "181200.272500", "181201.762500", "181203.252500", "181204.742500", "181206.232500", "181207.722500", "181209.212500", "181210.702500", "181212.192500", "181213.682500", "181215.172500", "181216.662500", "181218.152500", "181219.642500", "181221.132500", "181222.622500", "181224.112500", "181225.602500", "181227.092500", "181228.582500", "181230.072500", "181231.562500", "181233.052500", "181234.542500", "181236.032500", "181237.522500", "181239.012500", "181240.502500", "181241.992500", "181243.482500", "181244.972500", "181246.462500", "181247.952500", "181249.442500", "181250.932500", "181252.422500", "181253.912500", "181255.402500", "181256.892500", "181258.382500", "181259.872500", "181301.362500", "181302.852500", "181304.342500", "181305.832500", "181307.322500", "181308.812500", "181310.302500", "181311.792500", "181313.282500", "181314.772500", "181316.262500", "181317.752500", "181319.242500", "181320.732500", "181322.222500", "181323.712500", "181325.202500", "181326.692500", "181328.182500", "181329.672500", "181331.162500", "181332.652500", "181334.142500", "181335.632500", "181337.122500", "181338.612500", "181340.102500", "181341.592500", "181343.082500", "181344.572500", "181346.062500", "181347.552500", "181349.042500", "181350.532500", "181352.022500", "181353.512500", "181355.002500", "181356.492500", "181357.982500", "181359.472500", "181400.962500", "181402.452500", "181403.942500", "181405.432500", "181406.922500", "181408.412500", "181409.902500", "181411.392500", "181412.882500", "181414.372500", "181415.862500", "181417.352500", "181418.842500", "181420.332500", "181421.822500", "181423.312500", "181424.802500", "181426.292500", "181427.782500", "181429.272500", "181430.762500", "181432.252500", "181433.742500", "181435.232500", "181436.722500", "181438.212500", "181439.702500", "181441.192500", "181442.682500", "181444.172500", "181445.662500", "181447.152500", "181448.642500", "181450.132500", "181451.622500", "181453.112500", "181454.602500", "181456.092500", "181457.582500", "181459.072500", "181500.562500", "181502.052500", "181503.542500", "181505.032500", "181506.522500", "181508.012500", "181509.502500", "181510.992500", "181512.482500", "181513.972500", "181515.462500", "181516.952500", "181518.442500", "181519.932500", "181521.422500", "181522.912500", "181524.402500", "181525.892500", "181527.382500", "181528.872500", "181530.362500", "181531.852500", "181533.342500", "181534.832500", "181536.322500", "181537.812500", "181539.302500", "181540.792500", "181542.282500", "181543.772500", "181545.262500", "181546.752500", "181548.242500", "181549.732500", "181551.222500", "181552.712500", "181554.202500", "181555.692500", "181557.182500", "181558.672500", "181600.162500", "181601.652500", "181603.142500", "181604.632500", "181606.122500"],
      "ContentTime": ["180624.601000", "180624.605000", "180624.609000", "180624.612000", "180624.615000", "180624.618000", "180624.631000", "180624.635000", "180624.638000", "180624.641000", "180624.645000", "180624.648000", "180624.651000", "180624.655000", "180624.658000", "180624.661000", "180624.665000", "180624.668000", "180624.671000", "180624.674000", "180624.678000", "180624.685000", "180624.688000", "180624.691000", "180624.695000", "180624.698000", "180644.563000", "180644.567000", "180644.570000", "180644.573000", "180644.576000", "180644.580000", "180644.583000", "180644.586000", "180644.589000", "180644.593000", "180644.596000", "180644.599000", "180644.602000", "180644.606000", "180644.609000", "180644.612000", "180644.615000", "180644.619000", "180644.622000", "180644.625000", "180644.628000", "180704.563000", "180704.567000", "180704.570000", "180704.573000", "180704.577000", "180704.580000", "180704.583000", "180704.587000", "180704.599000", "180704.603000", "180704.606000", "180704.609000", "180704.613000", "180704.616000", "180704.619000", "180704.623000", "180704.626000", "180704.629000", "180704.632000", "180704.636000", "180724.563000", "180724.567000", "180724.570000", "180724.574000", "180724.577000", "180724.580000", "180724.583000", "180724.587000", "180724.590000", "180724.593000", "180724.596000", "180724.600000", "180724.603000", "180724.606000", "180724.610000", "180724.613000", "180724.616000", "180724.619000", "180724.623000", "180724.626000", "180744.562000", "180744.566000", "180744.569000", "180744.573000", "180744.576000", "180744.579000", "180744.582000", "180744.586000", "180744.589000", "180744.592000", "180744.595000", "180744.599000", "180744.602000", "180744.619000", "180744.622000", "180744.625000", "180744.629000", "180744.632000", "180744.635000", "180744.639000", "180744.642000", "180824.563000", "180824.567000", "180824.570000", "180824.574000", "180824.577000", "180824.580000", "180824.584000", "180824.587000", "180824.590000", "180824.594000", "180824.597000", "180824.600000", "180824.603000", "180824.607000", "180824.610000", "180824.614000", "180824.617000", "180824.620000", "180824.624000", "180824.627000", "180824.637000", "180824.641000", "180824.644000", "180824.647000", "180824.650000", "180824.654000", "180904.563000", "180904.567000", "180904.570000", "180904.574000", "180904.577000", "180904.580000", "180904.584000", "180904.587000", "180904.590000", "180904.594000", "180904.597000", "180904.600000", "180904.603000", "180904.607000", "180904.610000", "180904.613000", "180904.617000", "180904.620000", "180904.623000", "180904.627000", "180904.630000", "180904.633000", "180904.637000", "180904.640000", "180904.643000", "180904.646000", "180904.650000", "180944.563000", "180944.567000", "180944.570000", "180944.573000", "180944.577000", "180944.581000", "180944.584000", "180944.587000", "180944.591000", "180944.594000", "180944.597000", "180944.601000", "180944.604000", "180944.607000", "180944.611000", "180944.614000", "180944.617000", "180944.621000", "180944.624000", "180944.627000", "180944.630000", "180944.634000", "180944.637000", "180944.640000", "180944.644000", "180944.647000", "180944.650000", "181024.563000", "181024.567000", "181024.570000", "181024.574000", "181024.577000", "181024.603000", "181024.606000", "181024.609000", "181024.613000", "181024.616000", "181024.619000", "181024.623000", "181024.626000", "181024.629000", "181024.633000", "181024.636000", "181024.639000", "181024.643000", "181024.646000", "181024.649000", "181024.652000", "181024.656000", "181024.659000", "181024.662000", "181024.666000", "181024.669000", "181024.672000", "181104.563000", "181104.567000", "181104.570000", "181104.573000", "181104.577000", "181104.580000", "181104.583000", "181104.587000", "181104.590000", "181104.593000", "181104.596000", "181104.600000", "181104.603000", "181104.606000", "181104.610000", "181104.613000", "181104.616000", "181104.619000", "181104.623000", "181104.626000", "181104.630000", "181104.633000", "181104.636000", "181104.640000", "181104.643000", "181104.646000", "181104.649000", "181144.563000", "181144.567000", "181144.570000", "181144.574000", "181144.577000", "181144.581000", "181144.584000", "181144.587000", "181144.590000", "181144.594000", "181144.597000", "181144.600000", "181144.604000", "181144.607000", "181144.610000", "181144.614000", "181144.617000", "181144.620000", "181144.623000", "181144.627000", "181144.630000", "181144.633000", "181144.637000", "181144.640000", "181144.643000", "181144.646000", "181144.650000", "181224.562000", "181224.566000", "181224.570000", "181224.573000", "181224.576000", "181224.580000", "181224.583000", "181224.587000", "181224.590000", "181224.593000", "181224.597000", "181224.600000", "181224.603000", "181224.607000", "181224.610000", "181224.613000", "181224.616000", "181224.620000", "181224.623000", "181224.626000", "181224.630000", "181224.633000", "181224.636000", "181224.639000", "181224.643000", "181224.646000", "181304.563000", "181304.567000", "181304.570000", "181304.573000", "181304.577000", "181304.580000", "181304.583000", "181304.587000", "181304.590000", "181304.593000", "181304.596000", "181304.600000", "181304.603000", "181304.606000", "181304.610000", "181304.613000", "181304.616000", "181304.620000", "181304.623000", "181304.626000", "181304.629000", "181304.633000", "181304.636000", "181304.639000", "181304.642000", "181304.646000", "181304.649000", "181324.563000", "181324.567000", "181324.570000", "181324.574000", "181324.577000", "181324.580000", "181324.583000", "181324.587000", "181324.590000", "181324.593000", "181324.597000", "181324.600000", "181324.603000", "181324.606000", "181404.563000", "181404.567000", "181404.570000", "181404.574000", "181404.577000", "181404.580000", "181404.584000", "181404.587000", "181404.590000", "181404.593000", "181404.597000", "181404.600000", "181404.603000", "181404.607000", "181404.610000", "181404.613000", "181404.617000", "181404.620000", "181404.623000", "181404.626000", "181404.630000", "181404.633000", "181404.636000", "181404.639000", "181404.643000", "181404.646000", "181404.649000", "181444.562000", "181444.566000", "181444.569000", "181444.573000", "181444.576000", "181444.579000", "181444.582000", "181444.586000", "181444.590000", "181444.594000", "181444.597000", "181444.600000", "181444.604000", "181444.607000", "181444.610000", "181444.614000", "181444.617000", "181444.620000", "181444.625000", "181444.630000", "181444.634000", "181444.637000", "181444.640000", "181444.644000", "181444.647000", "181444.650000", "181524.563000", "181524.567000", "181524.570000", "181524.573000", "181524.577000", "181524.580000", "181524.583000", "181524.586000", "181524.590000", "181524.593000", "181524.596000", "181524.599000", "181524.603000", "181524.606000", "181524.609000", "181524.613000", "181524.616000", "181524.619000", "181524.622000", "181524.626000", "181524.629000", "181524.632000", "181524.636000", "181524.639000", "181524.642000", "181524.645000", "181524.649000", "181604.563000", "181604.567000", "181604.570000", "181604.573000", "181604.577000", "181604.580000", "181604.583000", "181604.587000", "181604.590000", "181604.593000", "181604.596000", "181604.600000", "181604.603000", "181604.606000", "181604.610000", "181604.613000", "181604.616000", "181604.619000", "181604.623000", "181604.626000", "181604.629000", "181604.633000", "181604.636000", "181604.639000", "181604.642000", "181604.646000", "181604.649000", "181609.385000", "181609.389000", "181609.392000"],
