{
  "AcquisitionMatrixPE": 104,
  "AcquisitionNumber": 1,
  "AcquisitionTime": "17:39:56.977500",
  "BandwidthPerPixelPhaseEncode": 17.17,
  "BaseResolution": 104,
  "BodyPartExamined": "BRAIN",
  "CoilCombinationMethod": "Sum of Squares",
  "ConsistencyInfo": "N4_VE11C_LATEST_20160120",
  "ConversionSoftware": "dcm2niix",
  "ConversionSoftwareVersion": "v1.0.20211006",
  "DerivedVendorReportedEchoSpacing": 0.000560011,
  "DeviceSerialNumber": "167006",
  "DwellTime": 2.1e-06,
  "EchoTime": 0.037,
  "EchoTrainLength": 104,
  "EffectiveEchoSpacing": 0.000560011,
  "FlipAngle": 52,
  "HeudiconvVersion": "0.10.0",
  "ImageComments": "Unaliased MB4/PE3/LB",
  "ImageOrientationPatientDICOM": [0.995731, 0.08317, 0.0400382, -0.0661363, 0.945412, -0.319095],
  "ImageOrientationText": "Tra>Cor(-18.4)>Sag(3.7)",
  "ImageType": [
    "ORIGINAL",
    "PRIMARY",
    "M",
    "MB",
    "ND",
    "MOSAIC"
],
  "ImagingFrequency": 123.259,
  "InPlanePhaseEncodingDirectionDICOM": "COL",
  "InstitutionAddress": "Chemin Queen-Mary 4565,Montreal,District,CA,H3W 1W5",
  "InstitutionName": "IUGM",
  "InstitutionalDepartmentName": "Department",
  "MRAcquisitionType": "2D",
  "MagneticFieldStrength": 3,
  "Manufacturer": "Siemens",
  "ManufacturersModelName": "Prisma_fit",
  "MatrixCoilMode": "SENSE",
  "Modality": "MR",
  "MultibandAccelerationFactor": 4,
  "PartialFourier": 1,
  "PatientPosition": "HFS",
  "PercentPhaseFOV": 100,
  "PercentSampling": 100,
  "PhaseEncodingDirection": "j",
  "PhaseEncodingSteps": 104,
  "PhaseResolution": 1,
  "PixelBandwidth": 2290,
  "ProcedureStepDescription": "games^mario",
  "ProtocolName": "func_task-mario_run-01",
  "PulseSequenceDetails": "%CustomerSeq%\\cmrr_mbep2d_bold",
  "ReceiveCoilActiveElements": "HC1-7;NC1,2",
  "ReceiveCoilName": "HeadNeck_64",
  "ReconMatrixPE": 104,
  "RepetitionTime": 1.49,
  "SAR": 0.0400793,
  "ScanOptions": "FS",
  "ScanningSequence": "EP",
  "SequenceName": "epfid2d1_104",
  "SequenceVariant": "SK\\SS",
  "SeriesDescription": "func_task-mario_run-01",
  "SeriesNumber": 10,
  "ShimSetting": [632, -7185, -8823, 648, 73, 12, 13, -18],
  "SliceThickness": 2,
  "SliceTiming": [0, 0.7825, 0.0975, 0.8825, 0.195, 0.98, 0.2925, 1.0775, 0.3925, 1.175, 0.49, 1.2725, 0.5875, 1.3725, 0.685, 0, 0.7825, 0.0975, 0.8825, 0.195, 0.98, 0.2925, 1.0775, 0.3925, 1.175, 0.49, 1.2725, 0.5875, 1.3725, 0.685, 0, 0.7825, 0.0975, 0.8825, 0.195, 0.98, 0.2925, 1.0775, 0.3925, 1.175, 0.49, 1.2725, 0.5875, 1.3725, 0.685, 0, 0.7825, 0.0975, 0.8825, 0.195, 0.98, 0.2925, 1.0775, 0.3925, 1.175, 0.49, 1.2725, 0.5875, 1.3725, 0.685],
  "SoftwareVersions": "syngo MR E11",
  "SpacingBetweenSlices": 2,
  "StationName": "MRC35049",
  "TaskName": "mario",
  "TotalReadoutTime": 0.0576811,
  "TxRefAmp": 252.723,
  "WipMemBlock": "3e0d0dad-68b4-447a-9574-a13251765254||Sequence: R016 ve11c/master r/e634e98; Dec 19 2017 11:00:25 by eja",
  "dcmmeta_affine": [
    [-1.9914615154266357, -0.13227269053459167, 0.12878336012363434, 109.70771789550781],
    [-0.16634003818035126, 1.8908246755599976, -0.6301690340042114, -53.26681137084961],
    [0.08007630705833435, 0.6381896138191223, 1.8937532901763916, -63.432403564453125],
    [0.0, 0.0, 0.0, 1.0]
],
  "dcmmeta_reorient_transform": [
    [0.0, -1.0, 0.0, 103.0],
    [1.0, 0.0, 0.0, 0.0],
    [0.0, 0.0, 1.0, 0.0],
    [0.0, 0.0, 0.0, 1.0]
],
  "dcmmeta_shape": [104, 104, 60, 436],
  "dcmmeta_slice_dim": 2,
  "dcmmeta_version": 0.6,
  "global": {
    "const": {
      "AcquisitionMatrix": [104, 0, 0, 104],
      "AngioFlag": "N",
      "BitsAllocated": 16,
      "BitsStored": 16,
      "BodyPartExamined": "BRAIN",
      "Columns": 832,
      "EchoNumbers": 1,
      "EchoTime": 37.0,
      "EchoTrainLength": 104,
      "FlipAngle": 52.0,
      "HighBit": 15,
      "ImageOrientationPatient": [0.9957307339612, 0.08317001764104, 0.04003815193888, -0.0661363489817, 0.94541234178721, -0.3190947936582],
      "ImagePositionPatient": [-772.82834515595, -890.29608700915, 205.45435984299],
      "ImageType": [
        "ORIGINAL",
        "PRIMARY",
        "M",
        "MB",
        "ND",
        "MOSAIC"
],
      "ImagedNucleus": "1H",
      "ImagingFrequency": 123.258854,
      "InPlanePhaseEncodingDirection": "COL",
      "MRAcquisitionType": "2D",
      "MagneticFieldStrength": 3.0,
      "Manufacturer": "SIEMENS",
      "ManufacturerModelName": "Prisma_fit",
      "Modality": "MR",
      "NumberOfAverages": 1.0,
      "NumberOfPhaseEncodingSteps": 104,
      "PercentPhaseFieldOfView": 100.0,
      "PercentSampling": 100.0,
      "PerformedProcedureStepStartTime": "162844.692000",
      "PhotometricInterpretation": "MONOCHROME2",
      "PixelBandwidth": 2290.0,
      "PixelRepresentation": 0,
      "PixelSpacing": [2.0, 2.0],
      "ProtocolName": "func_task-mario_run-01",
      "RepetitionTime": 1490.0,
      "Rows": 832,
      "SAR": 0.04007934351375,
      "SamplesPerPixel": 1,
      "ScanOptions": "FS",
      "ScanningSequence": "EP",
      "SequenceName": "epfid2d1_104",
      "SequenceVariant": [
        "SK",
        "SS"
],
      "SeriesDescription": "func_task-mario_run-01",
      "SeriesNumber": 10,
      "SeriesTime": "174115.281000",
      "SliceLocation": -36.214850644869,
      "SliceThickness": 2.0,
      "SmallestImagePixelValue": 0,
      "SoftwareVersions": "syngo MR E11",
      "SpacingBetweenSlices": 1.9999999728821,
      "SpecificCharacterSet": "ISO_IR 100",
      "StudyID": "1",
      "StudyTime": "162844.555000",
      "TransmitCoilName": "Body",
      "VariableFlipAngleFlag": "N",
      "WindowCenterWidthExplanation": "Algo1",
      "dBdt": 0.0},
    "slices": {}
  },
  "time": {
    "samples": {
      "AcquisitionNumber": [1, 2, 3, 4, 5, 6, 7, 8, 9, 10, 11, 12, 13, 14, 15, 16, 17, 18, 19, 20, 21, 22, 23, 24, 25, 26, 27, 28, 29, 30, 31, 32, 33, 34, 35, 36, 37, 38, 39, 40, 41, 42, 43, 44, 45, 46, 47, 48, 49, 50, 51, 52, 53, 54, 55, 56, 57, 58, 59, 60, 61, 62, 63, 64, 65, 66, 67, 68, 69, 70, 71, 72, 73, 74, 75, 76, 77, 78, 79, 80, 81, 82, 83, 84, 85, 86, 87, 88, 89, 90, 91, 92, 93, 94, 95, 96, 97, 98, 99, 100, 101, 102, 103, 104, 105, 106, 107, 108, 109, 110, 111, 112, 113, 114, 115, 116, 117, 118, 119, 120, 121, 122, 123, 124, 125, 126, 127, 128, 129, 130, 131, 132, 133, 134, 135, 136, 137, 138, 139, 140, 141, 142, 143, 144, 145, 146, 147, 148, 149, 150, 151, 152, 153, 154, 155, 156, 157, 158, 159, 160, 161, 162, 163, 164, 165, 166, 167, 168, 169, 170, 171, 172, 173, 174, 175, 176, 177, 178, 179, 180, 181, 182, 183, 184, 185, 186, 187, 188, 189, 190, 191, 192, 193, 194, 195, 196, 197, 198, 199, 200, 201, 202, 203, 204, 205, 206, 207, 208, 209, 210, 211, 212, 213, 214, 215, 216, 217, 218, 219, 220, 221, 222, 223, 224, 225, 226, 227, 228, 229, 230, 231, 232, 233, 234, 235, 236, 237, 238, 239, 240, 241, 242, 243, 244, 245, 246, 247, 248, 249, 250, 251, 252, 253, 254, 255, 256, 257, 258, 259, 260, 261, 262, 263, 264, 265, 266, 267, 268, 269, 270, 271, 272, 273, 274, 275, 276, 277, 278, 279, 280, 281, 282, 283, 284, 285, 286, 287, 288, 289, 290, 291, 292, 293, 294, 295, 296, 297, 298, 299, 300, 301, 302, 303, 304, 305, 306, 307, 308, 309, 310, 311, 312, 313, 314, 315, 316, 317, 318, 319, 320, 321, 322, 323, 324, 325, 326, 327, 328, 329, 330, 331, 332, 333, 334, 335, 336, 337, 338, 339, 340, 341, 342, 343, 344, 345, 346, 347, 348, 349, 350, 351, 352, 353, 354, 355, 356, 357, 358, 359, 360, 361, 362, 363, 364, 365, 366, 367, 368, 369, 370, 371, 372, 373, 374, 375, 376, 377, 378, 379, 380, 381, 382, 383, 384, 385, 386, 387, 388, 389, 390, 391, 392, 393, 394, 395, 396, 397, 398, 399, 400, 401, 402, 403, 404, 405, 406, 407, 408, 409, 410, 411, 412, 413, 414, 415, 416, 417, 418, 419, 420, 421, 422, 423, 424, 425, 426, 427, 428, 429, 430, 431, 432, 433, 434, 435, 436],
      "AcquisitionTime": ["173956.977500", "173958.467500", "173959.957500", "174001.447500", "174002.937500", "174004.427500", "174005.917500", "174007.407500", "174008.897500", "174010.387500", "174011.877500", "174013.367500", "174014.857500", "174016.347500", "174017.837500", "174019.327500", "174020.817500", "174022.307500", "174023.797500", "174025.287500", "174026.777500", "174028.267500", "174029.757500", "174031.247500", "174032.737500", "174034.227500", "174035.717500", "174037.207500", "174038.697500", "174040.187500", "174041.677500", "174043.167500", "174044.657500", "174046.147500", "174047.637500", "174049.127500", "174050.617500", "174052.107500", "174053.597500", "174055.087500", "174056.577500", "174058.067500", "174059.557500", "174101.047500", "174102.537500", "174104.027500", "174105.517500", "174107.007500", "174108.497500", "174109.987500", "174111.477500", "174112.967500", "174114.457500", "174115.947500", "174117.437500", "174118.927500", "174120.417500", "174121.907500", "174123.397500", "174124.887500", "174126.377500", "174127.867500", "174129.357500", "174130.847500", "174132.337500", "174133.827500", "174135.317500", "174136.807500", "174138.297500", "174139.787500", "174141.277500", "174142.767500", "174144.257500", "174145.747500", "174147.237500", "174148.727500", "174150.217500", "174151.707500", "174153.197500", "174154.687500", "174156.177500", "174157.667500", "174159.157500", "174200.647500", "174202.137500", "174203.627500", "174205.117500", "174206.607500", "174208.097500", "174209.587500", "174211.077500", "174212.567500", "174214.057500", "174215.547500", "174217.037500", "174218.527500", "174220.017500", "174221.507500", "174222.997500", "174224.487500", "174225.977500", "174227.467500", "174228.957500", "174230.447500", "174231.937500", "174233.427500", "174234.917500", "174236.407500", "174237.897500", "174239.387500", "174240.877500", "174242.367500", "174243.857500", "174245.347500", "174246.837500", "174248.327500", "174249.817500", "174251.307500", "174252.797500", "174254.287500", "174255.777500", "174257.267500", "174258.757500", "174300.247500", "174301.737500", "174303.227500", "174304.717500", "174306.207500", "174307.697500", "174309.187500", "174310.677500", "174312.167500", "174313.657500", "174315.147500", "174316.637500", "174318.127500", "174319.617500", "174321.107500", "174322.597500", "174324.087500", "174325.577500", "174327.067500", "174328.557500", "174330.047500", "174331.537500", "174333.027500", "174334.517500", "174336.007500", "174337.497500", "174338.987500", "174340.477500", "174341.967500", "174343.457500", "174344.947500", "174346.437500", "174347.927500", "174349.417500", "174350.907500", "174352.397500", "174353.887500", "174355.377500", "174356.867500", "174358.357500", "174359.847500", "174401.337500", "174402.827500", "174404.317500", "174405.807500", "174407.297500", "174408.787500", "174410.277500", "174411.767500", "174413.257500", "174414.747500", "174416.237500", "174417.727500", "174419.217500", "174420.707500", "174422.197500", "174423.687500", "174425.177500", "174426.667500", "174428.157500", "174429.647500", "174431.137500", "174432.627500", "174434.117500", "174435.607500", "174437.097500", "174438.587500", "174440.077500", "174441.567500", "174443.057500", "174444.547500", "174446.037500", "174447.527500", "174449.017500", "174450.507500", "174451.997500", "174453.487500", "174454.977500", "174456.467500", "174457.957500", "174459.447500", "174500.937500", "174502.427500", "174503.917500", "174505.407500", "174506.897500", "174508.387500", "174509.877500", "174511.367500", "174512.857500", "174514.347500", "174515.837500", "174517.327500", "174518.817500", "174520.307500", "174521.797500", "174523.287500", "174524.777500", "174526.267500", "174527.757500", "174529.247500", "174530.737500", "174532.227500", "174533.717500", "174535.207500", "174536.697500", "174538.187500", "174539.677500", "174541.167500", "174542.657500", "174544.147500", "174545.637500", "174547.127500", "174548.617500", "174550.107500", "174551.597500", "174553.087500", "174554.577500", "174556.067500", "174557.557500", "174559.047500", "174600.537500", "174602.027500", "174603.517500", "174605.007500", "174606.497500", "174607.987500", "174609.477500", "174610.967500", "174612.457500", "174613.947500", "174615.437500", "174616.927500", "174618.417500", "174619.907500", "174621.397500", "174622.887500", "174624.377500", "174625.867500", "174627.357500", "174628.847500", "174630.337500", "174631.827500", "174633.317500", "174634.807500", "174636.297500", "174637.787500", "174639.277500", "174640.767500", "174642.257500", "174643.747500", "174645.237500", "174646.727500", "174648.217500", "174649.707500", "174651.197500", "174652.687500", "174654.177500", "174655.667500", "174657.157500", "174658.647500", "174700.137500", "174701.627500", "174703.117500", "174704.607500", "174706.097500", "174707.587500", "174709.077500", "174710.567500", "174712.057500", "174713.547500", "174715.037500", "174716.527500", "174718.017500", "174719.507500", "174720.997500", "174722.487500", "174723.977500", "174725.467500", "174726.957500", "174728.447500", "174729.937500", "174731.427500", "174732.917500", "174734.407500", "174735.897500", "174737.387500", "174738.877500", "174740.367500", "174741.857500", "174743.347500", "174744.837500", "174746.327500", "174747.817500", "174749.307500", "174750.797500", "174752.287500", "174753.777500", "174755.267500", "174756.757500", "174758.247500", "174759.737500", "174801.227500", "174802.717500", "174804.207500", "174805.697500", "174807.187500", "174808.677500", "174810.167500", "174811.657500", "174813.147500", "174814.637500", "174816.127500", "174817.617500", "174819.107500", "174820.597500", "174822.087500", "174823.577500", "174825.067500", "174826.557500", "174828.047500", "174829.537500", "174831.027500", "174832.517500", "174834.007500", "174835.497500", "174836.987500", "174838.477500", "174839.967500", "174841.457500", "174842.947500", "174844.437500", "174845.927500", "174847.417500", "174848.907500", "174850.397500", "174851.887500", "174853.377500", "174854.867500", "174856.357500", "174857.847500", "174859.337500", "174900.827500", "174902.317500", "174903.807500", "174905.297500", "174906.787500", "174908.277500", "174909.767500", "174911.257500", "174912.747500", "174914.237500", "174915.727500", "174917.217500", "174918.707500", "174920.197500", "174921.687500", "174923.177500", "174924.667500", "174926.157500", "174927.647500", "174929.137500", "174930.627500", "174932.117500", "174933.607500", "174935.097500", "174936.587500", "174938.077500", "174939.567500", "174941.057500", "174942.547500", "174944.037500", "174945.527500", "174947.017500", "174948.507500", "174949.997500", "174951.487500", "174952.977500", "174954.467500", "174955.957500", "174957.447500", "174958.937500", "175000.427500", "175001.917500", "175003.407500", "175004.897500", "175006.387500", "175007.877500", "175009.367500", "175010.857500", "175012.347500", "175013.837500", "175015.327500", "175016.817500", "175018.307500", "175019.797500", "175021.287500", "175022.777500", "175024.267500", "175025.757500", "175027.247500", "175028.737500", "175030.227500", "175031.717500", "175033.207500", "175034.697500", "175036.187500", "175037.677500", "175039.167500", "175040.657500", "175042.147500", "175043.637500", "175045.127500"],
      "ContentTime": ["174115.284000", "174115.287000", "174115.291000", "174115.294000", "174115.298000", "174115.301000", "174115.304000", "174115.316000", "174115.319000", "174115.322000", "174115.325000", "174115.329000", "174115.332000", "174115.335000", "174115.339000", "174115.342000", "174115.345000", "174115.349000", "174115.352000", "174115.356000", "174115.359000", "174115.362000", "174115.366000", "174135.253000", "174135.257000", "174135.260000", "174135.263000", "174135.266000", "174135.270000", "174135.273000", "174135.276000", "174135.280000", "174135.283000", "174135.286000", "174135.289000", "174135.293000", "174135.296000", "174135.299000", "174135.302000", "174135.306000", "174135.309000", "174135.312000", "174135.315000", "174135.319000", "174155.253000", "174155.257000", "174155.260000", "174155.263000", "174155.266000", "174155.269000", "174155.273000", "174155.276000", "174155.279000", "174155.282000", "174155.286000", "174155.289000", "174155.292000", "174155.295000", "174155.299000", "174155.302000", "174155.305000", "174155.308000", "174155.312000", "174155.315000", "174215.253000", "174215.263000", "174215.267000", "174215.270000", "174215.273000", "174215.277000", "174215.280000", "174215.283000", "174215.287000", "174215.290000", "174215.293000", "174215.297000", "174215.300000", "174215.303000", "174215.307000", "174215.310000", "174215.313000", "174215.317000", "174215.320000", "174215.323000", "174235.253000", "174235.257000", "174235.260000", "174235.264000", "174235.267000", "174235.270000", "174235.273000", "174235.277000", "174235.280000", "174235.283000", "174235.287000", "174235.290000", "174235.293000", "174235.296000", "174235.300000", "174235.303000", "174235.306000", "174235.310000", "174235.313000", "174235.316000", "174235.319000", "174315.253000", "174315.257000", "174315.260000", "174315.263000", "174315.267000", "174315.270000", "174315.273000", "174315.277000", "174315.280000", "174315.283000", "174315.286000", "174315.290000", "174315.293000", "174315.296000", "174315.300000", "174315.303000", "174315.306000", "174315.310000", "174315.313000", "174315.316000", "174315.319000", "174315.322000", "174315.326000", "174315.329000", "174315.332000", "174315.336000", "174315.339000", "174355.253000", "174355.257000", "174355.260000", "174355.263000", "174355.267000", "174355.270000", "174355.273000", "174355.277000", "174355.285000", "174355.289000", "174355.292000", "174355.295000", "174355.299000", "174355.302000", "174355.305000", "174355.309000", "174355.312000", "174355.315000", "174355.319000", "174355.322000", "174355.325000", "174355.329000", "174355.332000", "174355.335000", "174355.338000", "174355.342000", "174355.345000", "174435.253000", "174435.257000", "174435.260000", "174435.263000", "174435.267000", "174435.270000", "174435.273000", "174435.277000", "174435.280000", "174435.283000", "174435.287000", "174435.290000", "174435.293000", "174435.297000", "174435.300000", "174435.303000", "174435.307000", "174435.310000", "174435.313000", "174435.317000", "174435.320000", "174435.323000", "174435.326000", "174435.330000", "174435.333000", "174435.336000", "174435.340000", "174515.253000", "174515.257000", "174515.260000", "174515.263000", "174515.267000", "174515.270000", "174515.273000", "174515.277000", "174515.280000", "174515.284000", "174515.287000", "174515.291000", "174515.294000", "174515.298000", "174515.301000", "174515.305000", "174515.308000", "174515.312000", "174515.315000", "174515.318000", "174515.322000", "174515.325000", "174515.328000", "174515.332000", "174515.335000", "174515.338000", "174555.254000", "174555.258000", "174555.261000", "174555.265000", "174555.268000", "174555.271000", "174555.274000", "174555.278000", "174555.281000", "174555.284000", "174555.288000", "174555.291000", "174555.294000", "174555.297000", "174555.301000", "174555.304000", "174555.308000", "174555.311000", "174555.314000", "174555.318000", "174555.321000", "174555.324000", "174555.327000", "174555.346000", "174555.349000", "174555.352000", "174555.356000", "174635.253000", "174635.257000", "174635.260000", "174635.264000", "174635.267000", "174635.270000", "174635.274000", "174635.277000", "174635.280000", "174635.284000", "174635.287000", "174635.290000", "174635.293000", "174635.297000", "174635.300000", "174635.304000", "174635.307000", "174635.310000", "174635.314000", "174635.317000", "174635.320000", "174635.324000", "174635.327000", "174635.330000", "174635.333000", "174635.337000", "174635.340000", "174715.253000", "174715.257000", "174715.260000", "174715.264000", "174715.267000", "174715.270000", "174715.273000", "174715.277000", "174715.280000", "174715.283000", "174715.287000", "174715.290000", "174715.293000", "174715.297000", "174715.300000", "174715.304000", "174715.307000", "174715.310000", "174715.313000", "174715.317000", "174715.320000", "174715.323000", "174715.327000", "174715.330000", "174715.333000", "174715.337000", "174715.340000", "174755.253000", "174755.257000", "174755.260000", "174755.264000", "174755.267000", "174755.270000", "174755.274000", "174755.277000", "174755.280000", "174755.284000", "174755.287000", "174755.290000", "174755.293000", "174755.297000", "174755.300000", "174755.303000", "174755.307000", "174755.310000", "174755.313000", "174755.317000", "174755.320000", "174755.324000", "174755.327000", "174755.330000", "174755.333000", "174755.337000", "174755.340000", "174835.253000", "174835.257000", "174835.260000", "174835.263000", "174835.267000", "174835.270000", "174835.273000", "174835.289000", "174835.292000", "174835.295000", "174835.298000", "174835.302000", "174835.305000", "174835.308000", "174835.312000", "174835.315000", "174835.318000", "174835.322000", "174835.325000", "174835.328000", "174835.332000", "174835.335000", "174835.338000", "174835.342000", "174835.345000", "174835.348000", "174835.351000", "174915.253000", "174915.271000", "174915.274000", "174915.277000", "174915.281000", "174915.284000", "174915.288000", "174915.291000", "174915.294000", "174915.298000", "174915.301000", "174915.304000", "174915.308000", "174915.311000", "174915.314000", "174915.318000", "174915.321000", "174915.324000", "174915.327000", "174915.331000", "174915.334000", "174915.337000", "174915.340000", "174915.344000", "174915.347000", "174915.350000", "174915.354000", "174955.253000", "174955.257000", "174955.260000", "174955.264000", "174955.267000", "174955.270000", "174955.274000", "174955.278000", "174955.282000", "174955.286000", "174955.290000", "174955.293000", "174955.296000", "174955.300000", "174955.303000", "174955.306000", "174955.310000", "174955.313000", "174955.316000", "174955.320000", "174955.323000", "174955.326000", "174955.330000", "174955.333000", "174955.336000", "174955.340000", "175035.254000", "175035.258000", "175035.261000", "175035.264000", "175035.268000", "175035.271000", "175035.274000", "175035.277000", "175035.281000", "175035.284000", "175035.287000", "175035.291000", "175035.294000", "175035.297000", "175035.300000", "175035.304000", "175035.307000", "175035.310000", "175035.314000", "175035.317000", "175035.320000", "175035.324000", "175035.335000", "175035.338000", "175035.341000", "175035.344000", "175035.348000", "175047.626000", "175047.630000", "175047.633000", "175047.636000", "175047.639000", "175047.643000", "175047.646000", "175047.650000", "175047.653000"],
