{
  "AcquisitionMatrixPE": 104,
  "AcquisitionNumber": 1,
  "AcquisitionTime": "18:21:54.635000",
  "BandwidthPerPixelPhaseEncode": 17.17,
  "BaseResolution": 104,
  "BodyPartExamined": "BRAIN",
  "CoilString": "HC1-7;NC1_2",
  "ConsistencyInfo": "N4_VE11C_LATEST_20160120",
  "ConversionSoftware": "dcm2niix",
  "ConversionSoftwareVersion": "v1.0.20190902",
  "DerivedVendorReportedEchoSpacing": 0.000560011,
  "DeviceSerialNumber": "167006",
  "DwellTime": 2.1e-06,
  "EchoTime": 0.037,
  "EchoTrainLength": 104,
  "EffectiveEchoSpacing": 0.000560011,
  "FlipAngle": 52,
  "HeudiconvVersion": "0.10.0",
  "ImageComments": "Unaliased_MB4_PE3_LB",
  "ImageOrientationPatientDICOM": [0.999679, 0.0063667, 0.0245266, -0.00174478, 0.982918, -0.184034],
  "ImageType": [
    "ORIGINAL",
    "PRIMARY",
    "P",
    "MB",
    "ND",
    "MOSAIC"
],
  "ImagingFrequency": 123.259,
  "InPlanePhaseEncodingDirectionDICOM": "COL",
  "InstitutionAddress": "Chemin_Queen-Mary_4565_Montreal_District_CA_H3W_1W5",
  "InstitutionName": "IUGM",
  "InstitutionalDepartmentName": "Department",
  "MRAcquisitionType": "2D",
  "MagneticFieldStrength": 3,
  "Manufacturer": "Siemens",
  "ManufacturersModelName": "Prisma_fit",
  "Modality": "MR",
  "MultibandAccelerationFactor": 4,
  "PartialFourier": 1,
  "PatientPosition": "HFS",
  "PercentPhaseFOV": 100,
  "PhaseEncodingDirection": "j",
  "PhaseEncodingSteps": 104,
  "PhaseResolution": 1,
  "PixelBandwidth": 2290,
  "ProcedureStepDescription": "games_mario",
  "ProtocolName": "func_task-mario_run-02",
  "PulseSequenceDetails": "%CustomerSeq%_cmrr_mbep2d_bold",
  "ReceiveCoilActiveElements": "HC1-7;NC1,2",
  "ReceiveCoilName": "HeadNeck_64",
  "ReconMatrixPE": 104,
  "RepetitionTime": 1.49,
  "SAR": 0.0352119,
  "ScanOptions": "FS",
  "ScanningSequence": "EP",
  "SequenceName": "epfid2d1_104",
  "SequenceVariant": "SK_SS",
  "SeriesDescription": "func_task-mario_run-02",
  "SeriesNumber": 14,
  "ShimSetting": [639, -7227, -8729, 714, 42, -60, 128, -23],
  "SliceThickness": 2,
  "SliceTiming": [0, 0.785, 0.0975, 0.8825, 0.1975, 0.98, 0.295, 1.0775, 0.3925, 1.1775, 0.49, 1.275, 0.5875, 1.3725, 0.6875, 0, 0.785, 0.0975, 0.8825, 0.1975, 0.98, 0.295, 1.0775, 0.3925, 1.1775, 0.49, 1.275, 0.5875, 1.3725, 0.6875, 0, 0.785, 0.0975, 0.8825, 0.1975, 0.98, 0.295, 1.0775, 0.3925, 1.1775, 0.49, 1.275, 0.5875, 1.3725, 0.6875, 0, 0.785, 0.0975, 0.8825, 0.1975, 0.98, 0.295, 1.0775, 0.3925, 1.1775, 0.49, 1.275, 0.5875, 1.3725, 0.6875],
  "SoftwareVersions": "syngo_MR_E11",
  "SpacingBetweenSlices": 2,
  "StationName": "MRC35049",
  "TaskName": "mario",
  "TotalReadoutTime": 0.0576811,
  "TxRefAmp": 217.785,
  "WipMemBlock": "7f4ffcd2-3e3a-47e7-ace1-55c540514c0f||Sequence: R016 ve11c/master r/e634e98; Dec 19 2017 11:00:25 by eja",
  "dcmmeta_affine": [
    [-1.99935781955719, -0.003489559981971979, 0.05055875703692436, 107.96371459960938],
    [-0.012733401730656624, 1.965836763381958, -0.3678634762763977, -77.36266326904297],
    [0.049053288996219635, 0.3680672347545624, 1.965227723121643, -43.22793197631836],
    [0.0, 0.0, 0.0, 1.0]
],
  "dcmmeta_reorient_transform": [
    [0.0, -1.0, 0.0, 103.0],
    [1.0, 0.0, 0.0, 0.0],
    [0.0, 0.0, 1.0, 0.0],
    [0.0, 0.0, 0.0, 1.0]
],
  "dcmmeta_shape": [104, 104, 60, 455],
  "dcmmeta_slice_dim": 2,
  "dcmmeta_version": 0.6,
  "global": {
    "const": {
      "AcquisitionMatrix": [104, 0, 0, 104],
      "AngioFlag": "N",
      "BitsAllocated": 16,
      "BitsStored": 16,
      "BodyPartExamined": "BRAIN",
      "Columns": 832,
      "EchoNumbers": 1,
      "EchoTime": 37.0,
      "EchoTrainLength": 104,
      "FlipAngle": 52.0,
      "HighBit": 15,
      "ImageOrientationPatient": [0.9996789028446, 0.00636670067438, 0.02452664530549, -0.0017447800437, 0.98291839981506, -0.1840336247744],
      "ImagePositionPatient": [-834.10032917407, -845.31808133853, 110.8040776243],
      "ImageType": [
        "ORIGINAL",
        "PRIMARY",
        "P",
        "MB",
        "ND",
        "MOSAIC"
],
      "ImagedNucleus": "1H",
      "ImagingFrequency": 123.258894,
      "InPlanePhaseEncodingDirection": "COL",
      "LargestImagePixelValue": 4095,
      "MRAcquisitionType": "2D",
      "MagneticFieldStrength": 3.0,
      "Manufacturer": "SIEMENS",
      "ManufacturerModelName": "Prisma_fit",
      "Modality": "MR",
      "NumberOfAverages": 1.0,
      "NumberOfPhaseEncodingSteps": 104,
      "PercentPhaseFieldOfView": 100.0,
      "PercentSampling": 100.0,
      "PerformedProcedureStepStartTime": "175041.310000",
      "PhotometricInterpretation": "MONOCHROME2",
      "PixelBandwidth": 2290.0,
      "PixelRepresentation": 0,
      "PixelSpacing": [2.0, 2.0],
      "ProtocolName": "func_task-mario_run-02",
      "RepetitionTime": 1490.0,
      "RescaleIntercept": -4096.0,
      "RescaleSlope": 2.0,
      "RescaleType": "US",
      "Rows": 832,
      "SAR": 0.03521188138518,
      "SamplesPerPixel": 1,
      "ScanOptions": "FS",
      "ScanningSequence": "EP",
      "SequenceName": "epfid2d1_104",
      "SequenceVariant": [
        "SK",
        "SS"
],
      "SeriesDescription": "func_task-mario_run-02",
      "SeriesNumber": 14,
      "SeriesTime": "182310.283000",
      "SliceLocation": -25.517660400856,
      "SliceThickness": 2.0,
      "SmallestImagePixelValue": 0,
      "SoftwareVersions": "syngo MR E11",
      "SpacingBetweenSlices": 1.9999999808241,
      "SpecificCharacterSet": "ISO_IR 100",
      "StudyID": "1",
      "StudyTime": "175041.232000",
      "TransmitCoilName": "Body",
      "VariableFlipAngleFlag": "N",
      "WindowCenterWidthExplanation": "Algo1",
      "dBdt": 0.0},
    "slices": {}
  },
  "time": {
    "samples": {
      "AcquisitionNumber": [1, 2, 3, 4, 5, 6, 7, 8, 9, 10, 11, 12, 13, 14, 15, 16, 17, 18, 19, 20, 21, 22, 23, 24, 25, 26, 27, 28, 29, 30, 31, 32, 33, 34, 35, 36, 37, 38, 39, 40, 41, 42, 43, 44, 45, 46, 47, 48, 49, 50, 51, 52, 53, 54, 55, 56, 57, 58, 59, 60, 61, 62, 63, 64, 65, 66, 67, 68, 69, 70, 71, 72, 73, 74, 75, 76, 77, 78, 79, 80, 81, 82, 83, 84, 85, 86, 87, 88, 89, 90, 91, 92, 93, 94, 95, 96, 97, 98, 99, 100, 101, 102, 103, 104, 105, 106, 107, 108, 109, 110, 111, 112, 113, 114, 115, 116, 117, 118, 119, 120, 121, 122, 123, 124, 125, 126, 127, 128, 129, 130, 131, 132, 133, 134, 135, 136, 137, 138, 139, 140, 141, 142, 143, 144, 145, 146, 147, 148, 149, 150, 151, 152, 153, 154, 155, 156, 157, 158, 159, 160, 161, 162, 163, 164, 165, 166, 167, 168, 169, 170, 171, 172, 173, 174, 175, 176, 177, 178, 179, 180, 181, 182, 183, 184, 185, 186, 187, 188, 189, 190, 191, 192, 193, 194, 195, 196, 197, 198, 199, 200, 201, 202, 203, 204, 205, 206, 207, 208, 209, 210, 211, 212, 213, 214, 215, 216, 217, 218, 219, 220, 221, 222, 223, 224, 225, 226, 227, 228, 229, 230, 231, 232, 233, 234, 235, 236, 237, 238, 239, 240, 241, 242, 243, 244, 245, 246, 247, 248, 249, 250, 251, 252, 253, 254, 255, 256, 257, 258, 259, 260, 261, 262, 263, 264, 265, 266, 267, 268, 269, 270, 271, 272, 273, 274, 275, 276, 277, 278, 279, 280, 281, 282, 283, 284, 285, 286, 287, 288, 289, 290, 291, 292, 293, 294, 295, 296, 297, 298, 299, 300, 301, 302, 303, 304, 305, 306, 307, 308, 309, 310, 311, 312, 313, 314, 315, 316, 317, 318, 319, 320, 321, 322, 323, 324, 325, 326, 327, 328, 329, 330, 331, 332, 333, 334, 335, 336, 337, 338, 339, 340, 341, 342, 343, 344, 345, 346, 347, 348, 349, 350, 351, 352, 353, 354, 355, 356, 357, 358, 359, 360, 361, 362, 363, 364, 365, 366, 367, 368, 369, 370, 371, 372, 373, 374, 375, 376, 377, 378, 379, 380, 381, 382, 383, 384, 385, 386, 387, 388, 389, 390, 391, 392, 393, 394, 395, 396, 397, 398, 399, 400, 401, 402, 403, 404, 405, 406, 407, 408, 409, 410, 411, 412, 413, 414, 415, 416, 417, 418, 419, 420, 421, 422, 423, 424, 425, 426, 427, 428, 429, 430, 431, 432, 433, 434, 435, 436, 437, 438, 439, 440, 441, 442, 443, 444, 445, 446, 447, 448, 449, 450, 451, 452, 453, 454, 455],
      "AcquisitionTime": ["182154.635000", "182156.125000", "182157.615000", "182159.105000", "182200.595000", "182202.085000", "182203.575000", "182205.065000", "182206.555000", "182208.045000", "182209.535000", "182211.025000", "182212.515000", "182214.005000", "182215.495000", "182216.985000", "182218.475000", "182219.965000", "182221.455000", "182222.945000", "182224.435000", "182225.925000", "182227.415000", "182228.905000", "182230.395000", "182231.885000", "182233.375000", "182234.865000", "182236.355000", "182237.845000", "182239.335000", "182240.825000", "182242.315000", "182243.805000", "182245.295000", "182246.785000", "182248.275000", "182249.765000", "182251.255000", "182252.745000", "182254.235000", "182255.725000", "182257.215000", "182258.705000", "182300.195000", "182301.685000", "182303.175000", "182304.665000", "182306.155000", "182307.645000", "182309.135000", "182310.625000", "182312.115000", "182313.605000", "182315.095000", "182316.585000", "182318.075000", "182319.565000", "182321.055000", "182322.545000", "182324.035000", "182325.525000", "182327.015000", "182328.505000", "182329.995000", "182331.485000", "182332.975000", "182334.465000", "182335.955000", "182337.445000", "182338.935000", "182340.425000", "182341.915000", "182343.405000", "182344.895000", "182346.385000", "182347.875000", "182349.365000", "182350.855000", "182352.345000", "182353.835000", "182355.325000", "182356.815000", "182358.305000", "182359.795000", "182401.285000", "182402.775000", "182404.265000", "182405.755000", "182407.245000", "182408.735000", "182410.225000", "182411.715000", "182413.205000", "182414.695000", "182416.185000", "182417.675000", "182419.165000", "182420.655000", "182422.145000", "182423.635000", "182425.125000", "182426.615000", "182428.105000", "182429.595000", "182431.085000", "182432.575000", "182434.065000", "182435.555000", "182437.045000", "182438.535000", "182440.025000", "182441.515000", "182443.005000", "182444.495000", "182445.985000", "182447.475000", "182448.965000", "182450.455000", "182451.945000", "182453.435000", "182454.925000", "182456.415000", "182457.905000", "182459.395000", "182500.885000", "182502.375000", "182503.865000", "182505.355000", "182506.845000", "182508.335000", "182509.825000", "182511.315000", "182512.805000", "182514.295000", "182515.785000", "182517.275000", "182518.765000", "182520.255000", "182521.745000", "182523.235000", "182524.725000", "182526.215000", "182527.705000", "182529.195000", "182530.685000", "182532.175000", "182533.665000", "182535.155000", "182536.645000", "182538.135000", "182539.625000", "182541.115000", "182542.605000", "182544.095000", "182545.585000", "182547.075000", "182548.565000", "182550.055000", "182551.545000", "182553.035000", "182554.525000", "182556.015000", "182557.505000", "182558.995000", "182600.485000", "182601.975000", "182603.465000", "182604.955000", "182606.445000", "182607.935000", "182609.425000", "182610.915000", "182612.405000", "182613.895000", "182615.385000", "182616.875000", "182618.365000", "182619.855000", "182621.345000", "182622.835000", "182624.325000", "182625.815000", "182627.305000", "182628.795000", "182630.285000", "182631.775000", "182633.265000", "182634.755000", "182636.245000", "182637.735000", "182639.225000", "182640.715000", "182642.205000", "182643.695000", "182645.185000", "182646.675000", "182648.165000", "182649.655000", "182651.145000", "182652.635000", "182654.125000", "182655.615000", "182657.105000", "182658.595000", "182700.085000", "182701.575000", "182703.065000", "182704.555000", "182706.045000", "182707.535000", "182709.025000", "182710.515000", "182712.005000", "182713.495000", "182714.985000", "182716.475000", "182717.965000", "182719.455000", "182720.945000", "182722.435000", "182723.925000", "182725.415000", "182726.905000", "182728.395000", "182729.885000", "182731.375000", "182732.865000", "182734.355000", "182735.845000", "182737.335000", "182738.825000", "182740.315000", "182741.805000", "182743.295000", "182744.785000", "182746.275000", "182747.765000", "182749.255000", "182750.745000", "182752.235000", "182753.725000", "182755.215000", "182756.705000", "182758.195000", "182759.685000", "182801.175000", "182802.665000", "182804.155000", "182805.645000", "182807.135000", "182808.625000", "182810.115000", "182811.605000", "182813.095000", "182814.585000", "182816.075000", "182817.565000", "182819.055000", "182820.545000", "182822.035000", "182823.525000", "182825.015000", "182826.505000", "182827.995000", "182829.485000", "182830.975000", "182832.465000", "182833.955000", "182835.445000", "182836.935000", "182838.425000", "182839.915000", "182841.405000", "182842.895000", "182844.385000", "182845.875000", "182847.365000", "182848.855000", "182850.345000", "182851.835000", "182853.325000", "182854.815000", "182856.305000", "182857.795000", "182859.285000", "182900.775000", "182902.265000", "182903.755000", "182905.245000", "182906.735000", "182908.225000", "182909.715000", "182911.205000", "182912.695000", "182914.185000", "182915.675000", "182917.165000", "182918.655000", "182920.145000", "182921.635000", "182923.125000", "182924.615000", "182926.105000", "182927.595000", "182929.085000", "182930.575000", "182932.065000", "182933.555000", "182935.045000", "182936.535000", "182938.025000", "182939.515000", "182941.005000", "182942.495000", "182943.985000", "182945.475000", "182946.965000", "182948.455000", "182949.945000", "182951.435000", "182952.925000", "182954.415000", "182955.905000", "182957.395000", "182958.885000", "183000.375000", "183001.865000", "183003.355000", "183004.845000", "183006.335000", "183007.825000", "183009.315000", "183010.805000", "183012.295000", "183013.785000", "183015.275000", "183016.765000", "183018.255000", "183019.745000", "183021.235000", "183022.725000", "183024.215000", "183025.705000", "183027.195000", "183028.685000", "183030.175000", "183031.665000", "183033.155000", "183034.645000", "183036.135000", "183037.625000", "183039.115000", "183040.605000", "183042.095000", "183043.585000", "183045.075000", "183046.565000", "183048.055000", "183049.545000", "183051.035000", "183052.525000", "183054.015000", "183055.505000", "183056.995000", "183058.485000", "183059.975000", "183101.465000", "183102.955000", "183104.445000", "183105.935000", "183107.425000", "183108.915000", "183110.405000", "183111.895000", "183113.385000", "183114.875000", "183116.365000", "183117.855000", "183119.345000", "183120.835000", "183122.325000", "183123.815000", "183125.305000", "183126.795000", "183128.285000", "183129.775000", "183131.265000", "183132.755000", "183134.245000", "183135.735000", "183137.225000", "183138.715000", "183140.205000", "183141.695000", "183143.185000", "183144.675000", "183146.165000", "183147.655000", "183149.145000", "183150.635000", "183152.125000", "183153.615000", "183155.105000", "183156.595000", "183158.085000", "183159.575000", "183201.065000", "183202.555000", "183204.045000", "183205.535000", "183207.025000", "183208.515000", "183210.005000", "183211.495000", "183212.985000", "183214.475000", "183215.965000", "183217.455000", "183218.945000", "183220.435000", "183221.925000", "183223.415000", "183224.905000", "183226.395000", "183227.885000", "183229.375000", "183230.865000", "183232.355000", "183233.845000", "183235.335000", "183236.825000", "183238.315000", "183239.805000", "183241.295000", "183242.785000", "183244.275000", "183245.765000", "183247.255000", "183248.745000", "183250.235000", "183251.725000", "183253.215000", "183254.705000", "183256.195000", "183257.685000", "183259.175000", "183300.665000", "183302.155000", "183303.645000", "183305.135000", "183306.625000", "183308.115000", "183309.605000", "183311.095000"],
      "ContentTime": ["182310.285000", "182310.288000", "182310.291000", "182310.293000", "182310.296000", "182310.298000", "182310.300000", "182310.303000", "182310.305000", "182310.308000", "182310.310000", "182310.313000", "182310.315000", "182310.318000", "182310.320000", "182310.328000", "182310.331000", "182310.333000", "182310.336000", "182310.338000", "182310.349000", "182330.225000", "182330.228000", "182330.231000", "182330.233000", "182330.235000", "182330.242000", "182330.245000", "182330.247000", "182330.249000", "182330.252000", "182330.254000", "182330.257000", "182330.259000", "182330.262000", "182330.264000", "182330.267000", "182330.269000", "182330.272000", "182330.274000", "182330.277000", "182350.247000", "182350.250000", "182350.252000", "182350.255000", "182350.257000", "182350.260000", "182350.262000", "182350.265000", "182350.267000", "182350.270000", "182350.272000", "182350.275000", "182350.277000", "182350.279000", "182350.282000", "182350.284000", "182350.287000", "182350.289000", "182350.292000", "182350.294000", "182410.240000", "182410.243000", "182410.245000", "182410.248000", "182410.250000", "182410.253000", "182410.255000", "182410.258000", "182410.260000", "182410.263000", "182410.265000", "182410.268000", "182410.270000", "182410.273000", "182410.275000", "182410.278000", "182410.280000", "182410.282000", "182410.285000", "182410.287000", "182430.252000", "182430.254000", "182430.257000", "182430.259000", "182430.271000", "182430.273000", "182430.276000", "182430.278000", "182430.281000", "182430.283000", "182430.286000", "182430.288000", "182430.290000", "182430.293000", "182430.295000", "182430.298000", "182430.300000", "182430.303000", "182430.305000", "182430.307000", "182510.271000", "182510.274000", "182510.276000", "182510.279000", "182510.281000", "182510.284000", "182510.286000", "182510.289000", "182510.291000", "182510.293000", "182510.296000", "182510.298000", "182510.301000", "182510.303000", "182510.306000", "182510.308000", "182510.311000", "182510.313000", "182510.316000", "182510.318000", "182510.321000", "182510.323000", "182510.325000", "182510.328000", "182510.330000", "182510.333000", "182510.335000", "182510.338000", "182510.340000", "182550.284000", "182550.287000", "182550.289000", "182550.292000", "182550.294000", "182550.297000", "182550.299000", "182550.301000", "182550.304000", "182550.306000", "182550.309000", "182550.311000", "182550.314000", "182550.316000", "182550.319000", "182550.321000", "182550.324000", "182550.332000", "182550.334000", "182550.336000", "182550.339000", "182550.342000", "182550.344000", "182550.346000", "182550.349000", "182550.352000", "182550.354000", "182630.251000", "182630.254000", "182630.257000", "182630.259000", "182630.262000", "182630.264000", "182630.267000", "182630.269000", "182630.271000", "182630.274000", "182630.276000", "182630.279000", "182630.281000", "182630.284000", "182630.286000", "182630.289000", "182630.291000", "182630.294000", "182630.296000", "182630.299000", "182630.301000", "182630.304000", "182630.306000", "182630.309000", "182630.311000", "182630.314000", "182630.316000", "182710.665000", "182710.668000", "182710.670000", "182710.673000", "182710.675000", "182710.678000", "182710.680000", "182710.683000", "182710.685000", "182710.688000", "182710.690000", "182710.693000", "182710.695000", "182710.698000", "182710.700000", "182710.702000", "182710.705000", "182710.707000", "182710.710000", "182710.712000", "182710.715000", "182710.717000", "182710.720000", "182710.722000", "182710.725000", "182710.727000", "182710.730000", "182750.261000", "182750.264000", "182750.266000", "182750.269000", "182750.271000", "182750.274000", "182750.276000", "182750.279000", "182750.281000", "182750.284000", "182750.286000", "182750.289000", "182750.291000", "182750.294000", "182750.296000", "182750.299000", "182750.301000", "182750.304000", "182750.306000", "182750.309000", "182750.311000", "182750.313000", "182750.316000", "182750.318000", "182750.321000", "182750.323000", "182750.326000", "182830.280000", "182830.282000", "182830.285000", "182830.287000", "182830.290000", "182830.292000", "182830.295000", "182830.297000", "182830.300000", "182830.302000", "182830.305000", "182830.307000", "182830.309000", "182830.312000", "182830.314000", "182830.317000", "182830.319000", "182830.322000", "182830.324000", "182830.327000", "182830.329000", "182830.332000", "182830.334000", "182830.337000", "182830.339000", "182830.342000", "182910.254000", "182910.257000", "182910.260000", "182910.262000", "182910.265000", "182910.267000", "182910.269000", "182910.272000", "182910.274000", "182910.277000", "182910.279000", "182910.282000", "182910.284000", "182910.287000", "182910.289000", "182910.292000", "182910.294000", "182910.297000", "182910.299000", "182910.302000", "182910.304000", "182910.307000", "182910.309000", "182910.312000", "182910.314000", "182910.317000", "182910.319000", "182950.256000", "182950.259000", "182950.261000", "182950.264000", "182950.266000", "182950.269000", "182950.271000", "182950.274000", "182950.276000", "182950.279000", "182950.281000", "182950.284000", "182950.286000", "182950.289000", "182950.291000", "182950.294000", "182950.296000", "182950.299000", "182950.301000", "182950.304000", "182950.306000", "182950.308000", "182950.311000", "182950.313000", "182950.316000", "182950.318000", "182950.321000", "183030.265000", "183030.267000", "183030.270000", "183030.272000", "183030.275000", "183030.277000", "183030.280000", "183030.282000", "183030.285000", "183030.287000", "183030.290000", "183030.292000", "183030.295000", "183030.297000", "183030.300000", "183030.302000", "183030.305000", "183030.307000", "183030.310000", "183030.312000", "183030.315000", "183030.317000", "183030.320000", "183030.322000", "183030.325000", "183030.327000", "183030.330000", "183110.266000", "183110.269000", "183110.272000", "183110.274000", "183110.277000", "183110.279000", "183110.282000", "183110.284000", "183110.287000", "183110.289000", "183110.291000", "183110.294000", "183110.296000", "183110.299000", "183110.301000", "183110.304000", "183110.306000", "183110.309000", "183110.311000", "183110.314000", "183110.316000", "183110.319000", "183110.321000", "183110.324000", "183110.326000", "183110.329000", "183110.331000", "183150.258000", "183150.261000", "183150.263000", "183150.266000", "183150.268000", "183150.271000", "183150.273000", "183150.276000", "183150.278000", "183150.281000", "183150.283000", "183150.286000", "183150.288000", "183150.291000", "183150.293000", "183150.296000", "183150.298000", "183150.301000", "183150.303000", "183150.306000", "183150.308000", "183150.310000", "183150.313000", "183150.315000", "183150.318000", "183150.320000", "183150.323000", "183230.266000", "183230.269000", "183230.271000", "183230.274000", "183230.276000", "183230.279000", "183230.281000", "183230.284000", "183230.286000", "183230.289000", "183230.291000", "183230.294000", "183230.296000", "183230.299000", "183230.302000", "183230.304000", "183230.307000", "183230.309000", "183230.312000", "183230.314000", "183230.317000", "183230.319000", "183230.322000", "183230.324000", "183230.327000", "183230.329000", "183230.332000", "183310.287000", "183310.289000", "183310.292000", "183310.295000", "183310.297000", "183310.300000", "183310.302000", "183310.305000", "183310.307000", "183310.310000", "183310.312000", "183310.315000", "183310.317000", "183310.320000", "183310.322000", "183310.325000", "183310.327000", "183310.330000", "183310.332000", "183310.334000", "183310.337000", "183310.339000", "183310.342000", "183310.344000", "183310.347000", "183310.349000", "183314.376000", "183314.378000", "183314.381000"],
