{
  "AcquisitionMatrixPE": 104,
  "AcquisitionNumber": 1,
  "AcquisitionTime": "18:36:13.370000",
  "BandwidthPerPixelPhaseEncode": 17.17,
  "BaseResolution": 104,
  "BodyPartExamined": "BRAIN",
  "CoilString": "HC1-7;NC1_2",
  "ConsistencyInfo": "N4_VE11C_LATEST_20160120",
  "ConversionSoftware": "dcm2niix",
  "ConversionSoftwareVersion": "v1.0.20190902",
  "DerivedVendorReportedEchoSpacing": 0.000560011,
  "DeviceSerialNumber": "167006",
  "DwellTime": 2.1e-06,
  "EchoTime": 0.037,
  "EchoTrainLength": 104,
  "EffectiveEchoSpacing": 0.000560011,
  "FlipAngle": 52,
  "HeudiconvVersion": "0.10.0",
  "ImageComments": "Unaliased_MB4_PE3_LB",
  "ImageOrientationPatientDICOM": [0.999679, 0.0063667, 0.0245266, -0.00174478, 0.982918, -0.184034],
  "ImageType": [
    "ORIGINAL",
    "PRIMARY",
    "P",
    "MB",
    "ND",
    "MOSAIC"
],
  "ImagingFrequency": 123.259,
  "InPlanePhaseEncodingDirectionDICOM": "COL",
  "InstitutionAddress": "Chemin_Queen-Mary_4565_Montreal_District_CA_H3W_1W5",
  "InstitutionName": "IUGM",
  "InstitutionalDepartmentName": "Department",
  "MRAcquisitionType": "2D",
  "MagneticFieldStrength": 3,
  "Manufacturer": "Siemens",
  "ManufacturersModelName": "Prisma_fit",
  "Modality": "MR",
  "MultibandAccelerationFactor": 4,
  "PartialFourier": 1,
  "PatientPosition": "HFS",
  "PercentPhaseFOV": 100,
  "PhaseEncodingDirection": "j",
  "PhaseEncodingSteps": 104,
  "PhaseResolution": 1,
  "PixelBandwidth": 2290,
  "ProcedureStepDescription": "games_mario",
  "ProtocolName": "func_task-mario_run-03",
  "PulseSequenceDetails": "%CustomerSeq%_cmrr_mbep2d_bold",
  "ReceiveCoilActiveElements": "HC1-7;NC1,2",
  "ReceiveCoilName": "HeadNeck_64",
  "ReconMatrixPE": 104,
  "RepetitionTime": 1.49,
  "SAR": 0.0352119,
  "ScanOptions": "FS",
  "ScanningSequence": "EP",
  "SequenceName": "epfid2d1_104",
  "SequenceVariant": "SK_SS",
  "SeriesDescription": "func_task-mario_run-03",
  "SeriesNumber": 17,
  "ShimSetting": [639, -7227, -8729, 714, 42, -60, 128, -23],
  "SliceThickness": 2,
  "SliceTiming": [0, 0.785, 0.1, 0.8825, 0.1975, 0.98, 0.295, 1.08, 0.3925, 1.1775, 0.49, 1.275, 0.59, 1.3725, 0.6875, 0, 0.785, 0.1, 0.8825, 0.1975, 0.98, 0.295, 1.08, 0.3925, 1.1775, 0.49, 1.275, 0.59, 1.3725, 0.6875, 0, 0.785, 0.1, 0.8825, 0.1975, 0.98, 0.295, 1.08, 0.3925, 1.1775, 0.49, 1.275, 0.59, 1.3725, 0.6875, 0, 0.785, 0.1, 0.8825, 0.1975, 0.98, 0.295, 1.08, 0.3925, 1.1775, 0.49, 1.275, 0.59, 1.3725, 0.6875],
  "SoftwareVersions": "syngo_MR_E11",
  "SpacingBetweenSlices": 2,
  "StationName": "MRC35049",
  "TaskName": "mario",
  "TotalReadoutTime": 0.0576811,
  "TxRefAmp": 217.785,
  "WipMemBlock": "6ee81e59-838a-405e-8264-2cf34209b12f||Sequence: R016 ve11c/master r/e634e98; Dec 19 2017 11:00:25 by eja",
  "dcmmeta_affine": [
    [-1.99935781955719, -0.003489559981971979, 0.05055875703692436, 107.96371459960938],
    [-0.012733401730656624, 1.965836763381958, -0.3678634762763977, -77.36266326904297],
    [0.049053288996219635, 0.3680672347545624, 1.965227723121643, -43.22793197631836],
    [0.0, 0.0, 0.0, 1.0]
],
  "dcmmeta_reorient_transform": [
    [0.0, -1.0, 0.0, 103.0],
    [1.0, 0.0, 0.0, 0.0],
    [0.0, 0.0, 1.0, 0.0],
    [0.0, 0.0, 0.0, 1.0]
],
  "dcmmeta_shape": [104, 104, 60, 470],
  "dcmmeta_slice_dim": 2,
  "dcmmeta_version": 0.6,
  "global": {
    "const": {
      "AcquisitionMatrix": [104, 0, 0, 104],
      "AngioFlag": "N",
      "BitsAllocated": 16,
      "BitsStored": 16,
      "BodyPartExamined": "BRAIN",
      "Columns": 832,
      "EchoNumbers": 1,
      "EchoTime": 37.0,
      "EchoTrainLength": 104,
      "FlipAngle": 52.0,
      "HighBit": 15,
      "ImageOrientationPatient": [0.9996789028446, 0.00636670067438, 0.02452664530549, -0.0017447800437, 0.98291839981506, -0.1840336247744],
      "ImagePositionPatient": [-834.10032917407, -845.31808133853, 110.8040776243],
      "ImageType": [
        "ORIGINAL",
        "PRIMARY",
        "P",
        "MB",
        "ND",
        "MOSAIC"
],
      "ImagedNucleus": "1H",
      "ImagingFrequency": 123.258902,
      "InPlanePhaseEncodingDirection": "COL",
      "LargestImagePixelValue": 4095,
      "MRAcquisitionType": "2D",
      "MagneticFieldStrength": 3.0,
      "Manufacturer": "SIEMENS",
      "ManufacturerModelName": "Prisma_fit",
      "Modality": "MR",
      "NumberOfAverages": 1.0,
      "NumberOfPhaseEncodingSteps": 104,
      "PercentPhaseFieldOfView": 100.0,
      "PercentSampling": 100.0,
      "PerformedProcedureStepStartTime": "175041.310000",
      "PhotometricInterpretation": "MONOCHROME2",
      "PixelBandwidth": 2290.0,
      "PixelRepresentation": 0,
      "PixelSpacing": [2.0, 2.0],
      "ProtocolName": "func_task-mario_run-03",
      "RepetitionTime": 1490.0,
      "RescaleIntercept": -4096.0,
      "RescaleSlope": 2.0,
      "RescaleType": "US",
      "Rows": 832,
      "SAR": 0.03521188138518,
      "SamplesPerPixel": 1,
      "ScanOptions": "FS",
      "ScanningSequence": "EP",
      "SequenceName": "epfid2d1_104",
      "SequenceVariant": [
        "SK",
        "SS"
],
      "SeriesDescription": "func_task-mario_run-03",
      "SeriesNumber": 17,
      "SeriesTime": "183718.476000",
      "SliceLocation": -25.517660400856,
      "SliceThickness": 2.0,
      "SmallestImagePixelValue": 0,
      "SoftwareVersions": "syngo MR E11",
      "SpacingBetweenSlices": 1.9999999808241,
      "SpecificCharacterSet": "ISO_IR 100",
      "StudyID": "1",
      "StudyTime": "175041.232000",
      "TransmitCoilName": "Body",
      "VariableFlipAngleFlag": "N",
      "WindowCenterWidthExplanation": "Algo1",
      "dBdt": 0.0},
    "slices": {}
  },
  "time": {
    "samples": {
      "AcquisitionNumber": [1, 2, 3, 4, 5, 6, 7, 8, 9, 10, 11, 12, 13, 14, 15, 16, 17, 18, 19, 20, 21, 22, 23, 24, 25, 26, 27, 28, 29, 30, 31, 32, 33, 34, 35, 36, 37, 38, 39, 40, 41, 42, 43, 44, 45, 46, 47, 48, 49, 50, 51, 52, 53, 54, 55, 56, 57, 58, 59, 60, 61, 62, 63, 64, 65, 66, 67, 68, 69, 70, 71, 72, 73, 74, 75, 76, 77, 78, 79, 80, 81, 82, 83, 84, 85, 86, 87, 88, 89, 90, 91, 92, 93, 94, 95, 96, 97, 98, 99, 100, 101, 102, 103, 104, 105, 106, 107, 108, 109, 110, 111, 112, 113, 114, 115, 116, 117, 118, 119, 120, 121, 122, 123, 124, 125, 126, 127, 128, 129, 130, 131, 132, 133, 134, 135, 136, 137, 138, 139, 140, 141, 142, 143, 144, 145, 146, 147, 148, 149, 150, 151, 152, 153, 154, 155, 156, 157, 158, 159, 160, 161, 162, 163, 164, 165, 166, 167, 168, 169, 170, 171, 172, 173, 174, 175, 176, 177, 178, 179, 180, 181, 182, 183, 184, 185, 186, 187, 188, 189, 190, 191, 192, 193, 194, 195, 196, 197, 198, 199, 200, 201, 202, 203, 204, 205, 206, 207, 208, 209, 210, 211, 212, 213, 214, 215, 216, 217, 218, 219, 220, 221, 222, 223, 224, 225, 226, 227, 228, 229, 230, 231, 232, 233, 234, 235, 236, 237, 238, 239, 240, 241, 242, 243, 244, 245, 246, 247, 248, 249, 250, 251, 252, 253, 254, 255, 256, 257, 258, 259, 260, 261, 262, 263, 264, 265, 266, 267, 268, 269, 270, 271, 272, 273, 274, 275, 276, 277, 278, 279, 280, 281, 282, 283, 284, 285, 286, 287, 288, 289, 290, 291, 292, 293, 294, 295, 296, 297, 298, 299, 300, 301, 302, 303, 304, 305, 306, 307, 308, 309, 310, 311, 312, 313, 314, 315, 316, 317, 318, 319, 320, 321, 322, 323, 324, 325, 326, 327, 328, 329, 330, 331, 332, 333, 334, 335, 336, 337, 338, 339, 340, 341, 342, 343, 344, 345, 346, 347, 348, 349, 350, 351, 352, 353, 354, 355, 356, 357, 358, 359, 360, 361, 362, 363, 364, 365, 366, 367, 368, 369, 370, 371, 372, 373, 374, 375, 376, 377, 378, 379, 380, 381, 382, 383, 384, 385, 386, 387, 388, 389, 390, 391, 392, 393, 394, 395, 396, 397, 398, 399, 400, 401, 402, 403, 404, 405, 406, 407, 408, 409, 410, 411, 412, 413, 414, 415, 416, 417, 418, 419, 420, 421, 422, 423, 424, 425, 426, 427, 428, 429, 430, 431, 432, 433, 434, 435, 436, 437, 438, 439, 440, 441, 442, 443, 444, 445, 446, 447, 448, 449, 450, 451, 452, 453, 454, 455, 456, 457, 458, 459, 460, 461, 462, 463, 464, 465, 466, 467, 468, 469, 470],
      "AcquisitionTime": ["183613.370000", "183614.860000", "183616.350000", "183617.840000", "183619.330000", "183620.820000", "183622.310000", "183623.800000", "183625.290000", "183626.780000", "183628.270000", "183629.760000", "183631.250000", "183632.740000", "183634.230000", "183635.720000", "183637.210000", "183638.700000", "183640.190000", "183641.680000", "183643.170000", "183644.660000", "183646.150000", "183647.640000", "183649.130000", "183650.620000", "183652.110000", "183653.600000", "183655.090000", "183656.580000", "183658.070000", "183659.560000", "183701.050000", "183702.540000", "183704.030000", "183705.520000", "183707.010000", "183708.500000", "183709.990000", "183711.480000", "183712.970000", "183714.460000", "183715.950000", "183717.440000", "183718.930000", "183720.420000", "183721.910000", "183723.400000", "183724.890000", "183726.380000", "183727.870000", "183729.360000", "183730.850000", "183732.340000", "183733.830000", "183735.320000", "183736.810000", "183738.300000", "183739.790000", "183741.280000", "183742.770000", "183744.260000", "183745.750000", "183747.240000", "183748.730000", "183750.220000", "183751.710000", "183753.200000", "183754.690000", "183756.180000", "183757.670000", "183759.160000", "183800.650000", "183802.140000", "183803.630000", "183805.120000", "183806.610000", "183808.100000", "183809.590000", "183811.080000", "183812.570000", "183814.060000", "183815.550000", "183817.040000", "183818.530000", "183820.020000", "183821.510000", "183823.000000", "183824.490000", "183825.980000", "183827.470000", "183828.960000", "183830.450000", "183831.940000", "183833.430000", "183834.920000", "183836.410000", "183837.900000", "183839.390000", "183840.880000", "183842.370000", "183843.860000", "183845.350000", "183846.840000", "183848.330000", "183849.820000", "183851.310000", "183852.800000", "183854.290000", "183855.780000", "183857.270000", "183858.760000", "183900.250000", "183901.740000", "183903.230000", "183904.720000", "183906.210000", "183907.700000", "183909.190000", "183910.680000", "183912.170000", "183913.660000", "183915.150000", "183916.640000", "183918.130000", "183919.620000", "183921.110000", "183922.600000", "183924.090000", "183925.580000", "183927.070000", "183928.560000", "183930.050000", "183931.540000", "183933.030000", "183934.520000", "183936.010000", "183937.500000", "183938.990000", "183940.480000", "183941.970000", "183943.460000", "183944.950000", "183946.440000", "183947.930000", "183949.420000", "183950.910000", "183952.400000", "183953.890000", "183955.380000", "183956.870000", "183958.360000", "183959.850000", "184001.340000", "184002.830000", "184004.320000", "184005.810000", "184007.300000", "184008.790000", "184010.280000", "184011.770000", "184013.260000", "184014.750000", "184016.240000", "184017.730000", "184019.220000", "184020.710000", "184022.200000", "184023.690000", "184025.180000", "184026.670000", "184028.160000", "184029.650000", "184031.140000", "184032.630000", "184034.120000", "184035.610000", "184037.100000", "184038.590000", "184040.080000", "184041.570000", "184043.060000", "184044.550000", "184046.040000", "184047.530000", "184049.020000", "184050.510000", "184052.000000", "184053.490000", "184054.980000", "184056.470000", "184057.960000", "184059.450000", "184100.940000", "184102.430000", "184103.920000", "184105.410000", "184106.900000", "184108.390000", "184109.880000", "184111.370000", "184112.860000", "184114.350000", "184115.840000", "184117.330000", "184118.820000", "184120.310000", "184121.800000", "184123.290000", "184124.780000", "184126.270000", "184127.760000", "184129.250000", "184130.740000", "184132.230000", "184133.720000", "184135.210000", "184136.700000", "184138.190000", "184139.680000", "184141.170000", "184142.660000", "184144.150000", "184145.640000", "184147.130000", "184148.620000", "184150.110000", "184151.600000", "184153.090000", "184154.580000", "184156.070000", "184157.560000", "184159.050000", "184200.540000", "184202.030000", "184203.520000", "184205.010000", "184206.500000", "184207.990000", "184209.480000", "184210.970000", "184212.460000", "184213.950000", "184215.440000", "184216.930000", "184218.420000", "184219.910000", "184221.400000", "184222.890000", "184224.380000", "184225.870000", "184227.360000", "184228.850000", "184230.340000", "184231.830000", "184233.320000", "184234.810000", "184236.300000", "184237.790000", "184239.280000", "184240.770000", "184242.260000", "184243.750000", "184245.240000", "184246.730000", "184248.220000", "184249.710000", "184251.200000", "184252.690000", "184254.180000", "184255.670000", "184257.160000", "184258.650000", "184300.140000", "184301.630000", "184303.120000", "184304.610000", "184306.100000", "184307.590000", "184309.080000", "184310.570000", "184312.060000", "184313.550000", "184315.040000", "184316.530000", "184318.020000", "184319.510000", "184321.000000", "184322.490000", "184323.980000", "184325.470000", "184326.960000", "184328.450000", "184329.940000", "184331.430000", "184332.920000", "184334.410000", "184335.900000", "184337.390000", "184338.880000", "184340.370000", "184341.860000", "184343.350000", "184344.840000", "184346.330000", "184347.820000", "184349.310000", "184350.800000", "184352.290000", "184353.780000", "184355.270000", "184356.760000", "184358.250000", "184359.740000", "184401.230000", "184402.720000", "184404.210000", "184405.700000", "184407.190000", "184408.680000", "184410.170000", "184411.660000", "184413.150000", "184414.640000", "184416.130000", "184417.620000", "184419.110000", "184420.600000", "184422.090000", "184423.580000", "184425.070000", "184426.560000", "184428.050000", "184429.540000", "184431.030000", "184432.520000", "184434.010000", "184435.500000", "184436.990000", "184438.480000", "184439.970000", "184441.460000", "184442.950000", "184444.440000", "184445.930000", "184447.420000", "184448.910000", "184450.400000", "184451.890000", "184453.380000", "184454.870000", "184456.360000", "184457.850000", "184459.340000", "184500.830000", "184502.320000", "184503.810000", "184505.300000", "184506.790000", "184508.280000", "184509.770000", "184511.260000", "184512.750000", "184514.240000", "184515.730000", "184517.220000", "184518.710000", "184520.200000", "184521.690000", "184523.180000", "184524.670000", "184526.160000", "184527.650000", "184529.140000", "184530.630000", "184532.120000", "184533.610000", "184535.100000", "184536.590000", "184538.080000", "184539.570000", "184541.060000", "184542.550000", "184544.040000", "184545.530000", "184547.020000", "184548.510000", "184550.000000", "184551.490000", "184552.980000", "184554.470000", "184555.960000", "184557.450000", "184558.940000", "184600.430000", "184601.920000", "184603.410000", "184604.900000", "184606.390000", "184607.880000", "184609.370000", "184610.860000", "184612.350000", "184613.840000", "184615.330000", "184616.820000", "184618.310000", "184619.800000", "184621.290000", "184622.780000", "184624.270000", "184625.760000", "184627.250000", "184628.740000", "184630.230000", "184631.720000", "184633.210000", "184634.700000", "184636.190000", "184637.680000", "184639.170000", "184640.660000", "184642.150000", "184643.640000", "184645.130000", "184646.620000", "184648.110000", "184649.600000", "184651.090000", "184652.580000", "184654.070000", "184655.560000", "184657.050000", "184658.540000", "184700.030000", "184701.520000", "184703.010000", "184704.500000", "184705.990000", "184707.480000", "184708.970000", "184710.460000", "184711.950000", "184713.440000", "184714.930000", "184716.420000", "184717.910000", "184719.400000", "184720.890000", "184722.380000", "184723.870000", "184725.360000", "184726.850000", "184728.340000", "184729.830000", "184731.320000", "184732.810000", "184734.300000", "184735.790000", "184737.280000", "184738.770000", "184740.260000", "184741.750000", "184743.240000", "184744.730000", "184746.220000", "184747.710000", "184749.200000", "184750.690000", "184752.180000"],
      "ContentTime": ["183718.478000", "183718.481000", "183718.484000", "183718.486000", "183718.489000", "183718.491000", "183718.493000", "183718.496000", "183718.498000", "183718.501000", "183738.499000", "183738.502000", "183738.504000", "183738.507000", "183738.509000", "183738.512000", "183738.514000", "183738.516000", "183738.519000", "183738.521000", "183738.524000", "183738.526000", "183738.529000", "183738.531000", "183738.534000", "183738.536000", "183738.539000", "183738.548000", "183738.551000", "183738.553000", "183758.504000", "183758.506000", "183758.509000", "183758.511000", "183758.514000", "183758.516000", "183758.518000", "183758.521000", "183758.523000", "183758.526000", "183758.528000", "183758.531000", "183758.533000", "183758.536000", "183758.538000", "183758.541000", "183758.543000", "183758.546000", "183758.548000", "183758.551000", "183818.491000", "183818.494000", "183818.496000", "183818.498000", "183818.501000", "183818.503000", "183818.506000", "183818.508000", "183818.511000", "183818.513000", "183818.516000", "183818.518000", "183818.520000", "183818.523000", "183818.525000", "183818.528000", "183818.530000", "183818.533000", "183818.535000", "183818.537000", "183838.507000", "183838.510000", "183838.512000", "183838.515000", "183838.517000", "183838.520000", "183838.522000", "183838.525000", "183838.527000", "183838.530000", "183838.532000", "183838.535000", "183838.537000", "183838.540000", "183838.542000", "183838.545000", "183838.547000", "183838.550000", "183838.552000", "183838.555000", "183858.495000", "183858.497000", "183858.500000", "183858.502000", "183858.505000", "183858.507000", "183858.510000", "183858.513000", "183858.515000", "183858.517000", "183858.520000", "183858.523000", "183858.525000", "183858.527000", "183858.530000", "183858.533000", "183858.535000", "183858.537000", "183858.540000", "183858.543000", "183938.526000", "183938.529000", "183938.536000", "183938.538000", "183938.541000", "183938.543000", "183938.546000", "183938.549000", "183938.551000", "183938.553000", "183938.556000", "183938.558000", "183938.561000", "183938.563000", "183938.566000", "183938.569000", "183938.571000", "183938.574000", "183938.576000", "183938.579000", "183938.581000", "183938.584000", "183938.586000", "183938.589000", "183938.591000", "183938.594000", "183938.596000", "184018.517000", "184018.519000", "184018.522000", "184018.524000", "184018.527000", "184018.529000", "184018.532000", "184018.534000", "184018.537000", "184018.539000", "184018.542000", "184018.544000", "184018.547000", "184018.549000", "184018.552000", "184018.554000", "184018.557000", "184018.560000", "184018.563000", "184018.565000", "184018.569000", "184018.572000", "184018.575000", "184018.577000", "184018.580000", "184018.582000", "184058.541000", "184058.544000", "184058.546000", "184058.549000", "184058.551000", "184058.554000", "184058.556000", "184058.559000", "184058.561000", "184058.564000", "184058.566000", "184058.569000", "184058.571000", "184058.574000", "184058.576000", "184058.579000", "184058.581000", "184058.584000", "184058.586000", "184058.589000", "184058.591000", "184058.594000", "184058.596000", "184058.599000", "184058.601000", "184058.604000", "184058.606000", "184138.525000", "184138.528000", "184138.531000", "184138.533000", "184138.536000", "184138.538000", "184138.541000", "184138.543000", "184138.546000", "184138.548000", "184138.551000", "184138.553000", "184138.556000", "184138.558000", "184138.561000", "184138.563000", "184138.566000", "184138.569000", "184138.571000", "184138.574000", "184138.576000", "184138.579000", "184138.581000", "184138.584000", "184138.586000", "184138.589000", "184138.591000", "184218.516000", "184218.518000", "184218.521000", "184218.523000", "184218.526000", "184218.528000", "184218.531000", "184218.533000", "184218.536000", "184218.538000", "184218.541000", "184218.543000", "184218.546000", "184218.548000", "184218.551000", "184218.553000", "184218.556000", "184218.558000", "184218.561000", "184218.563000", "184218.566000", "184218.568000", "184218.571000", "184218.574000", "184218.576000", "184218.578000", "184218.581000", "184258.540000", "184258.543000", "184258.546000", "184258.548000", "184258.551000", "184258.553000", "184258.556000", "184258.558000", "184258.561000", "184258.563000", "184258.566000", "184258.568000", "184258.571000", "184258.574000", "184258.576000", "184258.579000", "184258.581000", "184258.584000", "184258.586000", "184258.589000", "184258.591000", "184258.594000", "184258.596000", "184258.599000", "184258.601000", "184258.604000", "184258.607000", "184338.520000", "184338.523000", "184338.526000", "184338.536000", "184338.539000", "184338.541000", "184338.544000", "184338.546000", "184338.549000", "184338.551000", "184338.554000", "184338.556000", "184338.559000", "184338.561000", "184338.564000", "184338.566000", "184338.569000", "184338.572000", "184338.574000", "184338.577000", "184338.579000", "184338.582000", "184338.584000", "184338.587000", "184338.589000", "184338.592000", "184338.594000", "184418.552000", "184418.555000", "184418.557000", "184418.560000", "184418.562000", "184418.571000", "184418.573000", "184418.576000", "184418.578000", "184418.581000", "184418.583000", "184418.586000", "184418.588000", "184418.591000", "184418.593000", "184418.596000", "184418.598000", "184418.601000", "184418.603000", "184418.606000", "184418.608000", "184418.611000", "184418.613000", "184418.616000", "184418.618000", "184418.621000", "184458.516000", "184458.518000", "184458.521000", "184458.524000", "184458.526000", "184458.529000", "184458.531000", "184458.534000", "184458.536000", "184458.539000", "184458.542000", "184458.544000", "184458.547000", "184458.549000", "184458.552000", "184458.554000", "184458.558000", "184458.560000", "184458.563000", "184458.565000", "184458.568000", "184458.571000", "184458.573000", "184458.576000", "184458.578000", "184458.581000", "184458.583000", "184538.523000", "184538.526000", "184538.529000", "184538.531000", "184538.533000", "184538.536000", "184538.539000", "184538.541000", "184538.543000", "184538.546000", "184538.548000", "184538.551000", "184538.553000", "184538.556000", "184538.558000", "184538.561000", "184538.563000", "184538.566000", "184538.568000", "184538.571000", "184538.573000", "184538.576000", "184538.578000", "184538.581000", "184538.583000", "184538.586000", "184538.588000", "184618.538000", "184618.541000", "184618.543000", "184618.546000", "184618.548000", "184618.551000", "184618.553000", "184618.555000", "184618.558000", "184618.560000", "184618.563000", "184618.565000", "184618.568000", "184618.570000", "184618.573000", "184618.575000", "184618.578000", "184618.581000", "184618.583000", "184618.586000", "184618.588000", "184618.591000", "184618.593000", "184618.596000", "184618.598000", "184618.601000", "184618.603000", "184658.524000", "184658.527000", "184658.529000", "184658.532000", "184658.535000", "184658.537000", "184658.540000", "184658.542000", "184658.545000", "184658.547000", "184658.550000", "184658.552000", "184658.555000", "184658.557000", "184658.560000", "184658.562000", "184658.565000", "184658.567000", "184658.570000", "184658.572000", "184658.575000", "184658.577000", "184658.580000", "184658.582000", "184658.585000", "184658.587000", "184658.590000", "184738.532000", "184738.535000", "184738.537000", "184738.540000", "184738.542000", "184738.545000", "184738.547000", "184738.550000", "184738.552000", "184738.555000", "184738.558000", "184738.560000", "184738.563000", "184738.565000", "184738.568000", "184738.570000", "184738.573000", "184738.575000", "184738.578000", "184738.580000", "184738.583000", "184738.586000", "184738.588000", "184738.590000", "184738.593000", "184738.596000", "184738.598000", "184754.904000", "184754.907000", "184754.909000", "184754.912000", "184754.914000", "184754.917000", "184754.919000", "184754.922000", "184754.924000", "184754.927000", "184754.929000"],
