{
  "AcquisitionMatrixPE": 104,
  "AcquisitionNumber": 1,
  "AcquisitionTime": "18:21:54.635000",
  "BandwidthPerPixelPhaseEncode": 17.17,
  "BaseResolution": 104,
  "BodyPartExamined": "BRAIN",
  "CoilString": "HC1-7;NC1_2",
  "ConsistencyInfo": "N4_VE11C_LATEST_20160120",
  "ConversionSoftware": "dcm2niix",
  "ConversionSoftwareVersion": "v1.0.20190902",
  "DerivedVendorReportedEchoSpacing": 0.000560011,
  "DeviceSerialNumber": "167006",
  "DwellTime": 2.1e-06,
  "EchoTime": 0.037,
  "EchoTrainLength": 104,
  "EffectiveEchoSpacing": 0.000560011,
  "FlipAngle": 52,
  "HeudiconvVersion": "0.10.0",
  "ImageComments": "Unaliased_MB4_PE3_LB",
  "ImageOrientationPatientDICOM": [0.999679, 0.0063667, 0.0245266, -0.00174478, 0.982918, -0.184034],
  "ImageType": [
    "ORIGINAL",
    "PRIMARY",
    "M",
    "MB",
    "ND",
    "MOSAIC"
],
  "ImagingFrequency": 123.259,
  "InPlanePhaseEncodingDirectionDICOM": "COL",
  "InstitutionAddress": "Chemin_Queen-Mary_4565_Montreal_District_CA_H3W_1W5",
  "InstitutionName": "IUGM",
  "InstitutionalDepartmentName": "Department",
  "MRAcquisitionType": "2D",
  "MagneticFieldStrength": 3,
  "Manufacturer": "Siemens",
  "ManufacturersModelName": "Prisma_fit",
  "Modality": "MR",
  "MultibandAccelerationFactor": 4,
  "PartialFourier": 1,
  "PatientPosition": "HFS",
  "PercentPhaseFOV": 100,
  "PhaseEncodingDirection": "j",
  "PhaseEncodingSteps": 104,
  "PhaseResolution": 1,
  "PixelBandwidth": 2290,
  "ProcedureStepDescription": "games_mario",
  "ProtocolName": "func_task-mario_run-02",
  "PulseSequenceDetails": "%CustomerSeq%_cmrr_mbep2d_bold",
  "ReceiveCoilActiveElements": "HC1-7;NC1,2",
  "ReceiveCoilName": "HeadNeck_64",
  "ReconMatrixPE": 104,
  "RepetitionTime": 1.49,
  "SAR": 0.0352119,
  "ScanOptions": "FS",
  "ScanningSequence": "EP",
  "SequenceName": "epfid2d1_104",
  "SequenceVariant": "SK_SS",
  "SeriesDescription": "func_task-mario_run-02",
  "SeriesNumber": 13,
  "ShimSetting": [639, -7227, -8729, 714, 42, -60, 128, -23],
  "SliceThickness": 2,
  "SliceTiming": [0, 0.785, 0.0975, 0.8825, 0.1975, 0.98, 0.295, 1.0775, 0.3925, 1.1775, 0.49, 1.275, 0.5875, 1.3725, 0.6875, 0, 0.785, 0.0975, 0.8825, 0.1975, 0.98, 0.295, 1.0775, 0.3925, 1.1775, 0.49, 1.275, 0.5875, 1.3725, 0.6875, 0, 0.785, 0.0975, 0.8825, 0.1975, 0.98, 0.295, 1.0775, 0.3925, 1.1775, 0.49, 1.275, 0.5875, 1.3725, 0.6875, 0, 0.785, 0.0975, 0.8825, 0.1975, 0.98, 0.295, 1.0775, 0.3925, 1.1775, 0.49, 1.275, 0.5875, 1.3725, 0.6875],
  "SoftwareVersions": "syngo_MR_E11",
  "SpacingBetweenSlices": 2,
  "StationName": "MRC35049",
  "TaskName": "mario",
  "TotalReadoutTime": 0.0576811,
  "TxRefAmp": 217.785,
  "WipMemBlock": "7f4ffcd2-3e3a-47e7-ace1-55c540514c0f||Sequence: R016 ve11c/master r/e634e98; Dec 19 2017 11:00:25 by eja",
  "dcmmeta_affine": [
    [-1.99935781955719, -0.003489559981971979, 0.05055875703692436, 107.96371459960938],
    [-0.012733401730656624, 1.965836763381958, -0.3678634762763977, -77.36266326904297],
    [0.049053288996219635, 0.3680672347545624, 1.965227723121643, -43.22793197631836],
    [0.0, 0.0, 0.0, 1.0]
],
  "dcmmeta_reorient_transform": [
    [0.0, -1.0, 0.0, 103.0],
    [1.0, 0.0, 0.0, 0.0],
    [0.0, 0.0, 1.0, 0.0],
    [0.0, 0.0, 0.0, 1.0]
],
  "dcmmeta_shape": [104, 104, 60, 455],
  "dcmmeta_slice_dim": 2,
  "dcmmeta_version": 0.6,
  "global": {
    "const": {
      "AcquisitionMatrix": [104, 0, 0, 104],
      "AngioFlag": "N",
      "BitsAllocated": 16,
      "BitsStored": 16,
      "BodyPartExamined": "BRAIN",
      "Columns": 832,
      "EchoNumbers": 1,
      "EchoTime": 37.0,
      "EchoTrainLength": 104,
      "FlipAngle": 52.0,
      "HighBit": 15,
      "ImageOrientationPatient": [0.9996789028446, 0.00636670067438, 0.02452664530549, -0.0017447800437, 0.98291839981506, -0.1840336247744],
      "ImagePositionPatient": [-834.10032917407, -845.31808133853, 110.8040776243],
      "ImageType": [
        "ORIGINAL",
        "PRIMARY",
        "M",
        "MB",
        "ND",
        "MOSAIC"
],
      "ImagedNucleus": "1H",
      "ImagingFrequency": 123.258894,
      "InPlanePhaseEncodingDirection": "COL",
      "MRAcquisitionType": "2D",
      "MagneticFieldStrength": 3.0,
      "Manufacturer": "SIEMENS",
      "ManufacturerModelName": "Prisma_fit",
      "Modality": "MR",
      "NumberOfAverages": 1.0,
      "NumberOfPhaseEncodingSteps": 104,
      "PercentPhaseFieldOfView": 100.0,
      "PercentSampling": 100.0,
      "PerformedProcedureStepStartTime": "175041.310000",
      "PhotometricInterpretation": "MONOCHROME2",
      "PixelBandwidth": 2290.0,
      "PixelRepresentation": 0,
      "PixelSpacing": [2.0, 2.0],
      "ProtocolName": "func_task-mario_run-02",
      "RepetitionTime": 1490.0,
      "Rows": 832,
      "SAR": 0.03521188138518,
      "SamplesPerPixel": 1,
      "ScanOptions": "FS",
      "ScanningSequence": "EP",
      "SequenceName": "epfid2d1_104",
      "SequenceVariant": [
        "SK",
        "SS"
],
      "SeriesDescription": "func_task-mario_run-02",
      "SeriesNumber": 13,
      "SeriesTime": "182310.155000",
      "SliceLocation": -25.517660400856,
      "SliceThickness": 2.0,
      "SmallestImagePixelValue": 0,
      "SoftwareVersions": "syngo MR E11",
      "SpacingBetweenSlices": 1.9999999808241,
      "SpecificCharacterSet": "ISO_IR 100",
      "StudyID": "1",
      "StudyTime": "175041.232000",
      "TransmitCoilName": "Body",
      "VariableFlipAngleFlag": "N",
      "WindowCenterWidthExplanation": "Algo1",
      "dBdt": 0.0},
    "slices": {}
  },
  "time": {
    "samples": {
      "AcquisitionNumber": [1, 2, 3, 4, 5, 6, 7, 8, 9, 10, 11, 12, 13, 14, 15, 16, 17, 18, 19, 20, 21, 22, 23, 24, 25, 26, 27, 28, 29, 30, 31, 32, 33, 34, 35, 36, 37, 38, 39, 40, 41, 42, 43, 44, 45, 46, 47, 48, 49, 50, 51, 52, 53, 54, 55, 56, 57, 58, 59, 60, 61, 62, 63, 64, 65, 66, 67, 68, 69, 70, 71, 72, 73, 74, 75, 76, 77, 78, 79, 80, 81, 82, 83, 84, 85, 86, 87, 88, 89, 90, 91, 92, 93, 94, 95, 96, 97, 98, 99, 100, 101, 102, 103, 104, 105, 106, 107, 108, 109, 110, 111, 112, 113, 114, 115, 116, 117, 118, 119, 120, 121, 122, 123, 124, 125, 126, 127, 128, 129, 130, 131, 132, 133, 134, 135, 136, 137, 138, 139, 140, 141, 142, 143, 144, 145, 146, 147, 148, 149, 150, 151, 152, 153, 154, 155, 156, 157, 158, 159, 160, 161, 162, 163, 164, 165, 166, 167, 168, 169, 170, 171, 172, 173, 174, 175, 176, 177, 178, 179, 180, 181, 182, 183, 184, 185, 186, 187, 188, 189, 190, 191, 192, 193, 194, 195, 196, 197, 198, 199, 200, 201, 202, 203, 204, 205, 206, 207, 208, 209, 210, 211, 212, 213, 214, 215, 216, 217, 218, 219, 220, 221, 222, 223, 224, 225, 226, 227, 228, 229, 230, 231, 232, 233, 234, 235, 236, 237, 238, 239, 240, 241, 242, 243, 244, 245, 246, 247, 248, 249, 250, 251, 252, 253, 254, 255, 256, 257, 258, 259, 260, 261, 262, 263, 264, 265, 266, 267, 268, 269, 270, 271, 272, 273, 274, 275, 276, 277, 278, 279, 280, 281, 282, 283, 284, 285, 286, 287, 288, 289, 290, 291, 292, 293, 294, 295, 296, 297, 298, 299, 300, 301, 302, 303, 304, 305, 306, 307, 308, 309, 310, 311, 312, 313, 314, 315, 316, 317, 318, 319, 320, 321, 322, 323, 324, 325, 326, 327, 328, 329, 330, 331, 332, 333, 334, 335, 336, 337, 338, 339, 340, 341, 342, 343, 344, 345, 346, 347, 348, 349, 350, 351, 352, 353, 354, 355, 356, 357, 358, 359, 360, 361, 362, 363, 364, 365, 366, 367, 368, 369, 370, 371, 372, 373, 374, 375, 376, 377, 378, 379, 380, 381, 382, 383, 384, 385, 386, 387, 388, 389, 390, 391, 392, 393, 394, 395, 396, 397, 398, 399, 400, 401, 402, 403, 404, 405, 406, 407, 408, 409, 410, 411, 412, 413, 414, 415, 416, 417, 418, 419, 420, 421, 422, 423, 424, 425, 426, 427, 428, 429, 430, 431, 432, 433, 434, 435, 436, 437, 438, 439, 440, 441, 442, 443, 444, 445, 446, 447, 448, 449, 450, 451, 452, 453, 454, 455],
      "AcquisitionTime": ["182154.635000", "182156.125000", "182157.615000", "182159.105000", "182200.595000", "182202.085000", "182203.575000", "182205.065000", "182206.555000", "182208.045000", "182209.535000", "182211.025000", "182212.515000", "182214.005000", "182215.495000", "182216.985000", "182218.475000", "182219.965000", "182221.455000", "182222.945000", "182224.435000", "182225.925000", "182227.415000", "182228.905000", "182230.395000", "182231.885000", "182233.375000", "182234.865000", "182236.355000", "182237.845000", "182239.335000", "182240.825000", "182242.315000", "182243.805000", "182245.295000", "182246.785000", "182248.275000", "182249.765000", "182251.255000", "182252.745000", "182254.235000", "182255.725000", "182257.215000", "182258.705000", "182300.195000", "182301.685000", "182303.175000", "182304.665000", "182306.155000", "182307.645000", "182309.135000", "182310.625000", "182312.115000", "182313.605000", "182315.095000", "182316.585000", "182318.075000", "182319.565000", "182321.055000", "182322.545000", "182324.035000", "182325.525000", "182327.015000", "182328.505000", "182329.995000", "182331.485000", "182332.975000", "182334.465000", "182335.955000", "182337.445000", "182338.935000", "182340.425000", "182341.915000", "182343.405000", "182344.895000", "182346.385000", "182347.875000", "182349.365000", "182350.855000", "182352.345000", "182353.835000", "182355.325000", "182356.815000", "182358.305000", "182359.795000", "182401.285000", "182402.775000", "182404.265000", "182405.755000", "182407.245000", "182408.735000", "182410.225000", "182411.715000", "182413.205000", "182414.695000", "182416.185000", "182417.675000", "182419.165000", "182420.655000", "182422.145000", "182423.635000", "182425.125000", "182426.615000", "182428.105000", "182429.595000", "182431.085000", "182432.575000", "182434.065000", "182435.555000", "182437.045000", "182438.535000", "182440.025000", "182441.515000", "182443.005000", "182444.495000", "182445.985000", "182447.475000", "182448.965000", "182450.455000", "182451.945000", "182453.435000", "182454.925000", "182456.415000", "182457.905000", "182459.395000", "182500.885000", "182502.375000", "182503.865000", "182505.355000", "182506.845000", "182508.335000", "182509.825000", "182511.315000", "182512.805000", "182514.295000", "182515.785000", "182517.275000", "182518.765000", "182520.255000", "182521.745000", "182523.235000", "182524.725000", "182526.215000", "182527.705000", "182529.195000", "182530.685000", "182532.175000", "182533.665000", "182535.155000", "182536.645000", "182538.135000", "182539.625000", "182541.115000", "182542.605000", "182544.095000", "182545.585000", "182547.075000", "182548.565000", "182550.055000", "182551.545000", "182553.035000", "182554.525000", "182556.015000", "182557.505000", "182558.995000", "182600.485000", "182601.975000", "182603.465000", "182604.955000", "182606.445000", "182607.935000", "182609.425000", "182610.915000", "182612.405000", "182613.895000", "182615.385000", "182616.875000", "182618.365000", "182619.855000", "182621.345000", "182622.835000", "182624.325000", "182625.815000", "182627.305000", "182628.795000", "182630.285000", "182631.775000", "182633.265000", "182634.755000", "182636.245000", "182637.735000", "182639.225000", "182640.715000", "182642.205000", "182643.695000", "182645.185000", "182646.675000", "182648.165000", "182649.655000", "182651.145000", "182652.635000", "182654.125000", "182655.615000", "182657.105000", "182658.595000", "182700.085000", "182701.575000", "182703.065000", "182704.555000", "182706.045000", "182707.535000", "182709.025000", "182710.515000", "182712.005000", "182713.495000", "182714.985000", "182716.475000", "182717.965000", "182719.455000", "182720.945000", "182722.435000", "182723.925000", "182725.415000", "182726.905000", "182728.395000", "182729.885000", "182731.375000", "182732.865000", "182734.355000", "182735.845000", "182737.335000", "182738.825000", "182740.315000", "182741.805000", "182743.295000", "182744.785000", "182746.275000", "182747.765000", "182749.255000", "182750.745000", "182752.235000", "182753.725000", "182755.215000", "182756.705000", "182758.195000", "182759.685000", "182801.175000", "182802.665000", "182804.155000", "182805.645000", "182807.135000", "182808.625000", "182810.115000", "182811.605000", "182813.095000", "182814.585000", "182816.075000", "182817.565000", "182819.055000", "182820.545000", "182822.035000", "182823.525000", "182825.015000", "182826.505000", "182827.995000", "182829.485000", "182830.975000", "182832.465000", "182833.955000", "182835.445000", "182836.935000", "182838.425000", "182839.915000", "182841.405000", "182842.895000", "182844.385000", "182845.875000", "182847.365000", "182848.855000", "182850.345000", "182851.835000", "182853.325000", "182854.815000", "182856.305000", "182857.795000", "182859.285000", "182900.775000", "182902.265000", "182903.755000", "182905.245000", "182906.735000", "182908.225000", "182909.715000", "182911.205000", "182912.695000", "182914.185000", "182915.675000", "182917.165000", "182918.655000", "182920.145000", "182921.635000", "182923.125000", "182924.615000", "182926.105000", "182927.595000", "182929.085000", "182930.575000", "182932.065000", "182933.555000", "182935.045000", "182936.535000", "182938.025000", "182939.515000", "182941.005000", "182942.495000", "182943.985000", "182945.475000", "182946.965000", "182948.455000", "182949.945000", "182951.435000", "182952.925000", "182954.415000", "182955.905000", "182957.395000", "182958.885000", "183000.375000", "183001.865000", "183003.355000", "183004.845000", "183006.335000", "183007.825000", "183009.315000", "183010.805000", "183012.295000", "183013.785000", "183015.275000", "183016.765000", "183018.255000", "183019.745000", "183021.235000", "183022.725000", "183024.215000", "183025.705000", "183027.195000", "183028.685000", "183030.175000", "183031.665000", "183033.155000", "183034.645000", "183036.135000", "183037.625000", "183039.115000", "183040.605000", "183042.095000", "183043.585000", "183045.075000", "183046.565000", "183048.055000", "183049.545000", "183051.035000", "183052.525000", "183054.015000", "183055.505000", "183056.995000", "183058.485000", "183059.975000", "183101.465000", "183102.955000", "183104.445000", "183105.935000", "183107.425000", "183108.915000", "183110.405000", "183111.895000", "183113.385000", "183114.875000", "183116.365000", "183117.855000", "183119.345000", "183120.835000", "183122.325000", "183123.815000", "183125.305000", "183126.795000", "183128.285000", "183129.775000", "183131.265000", "183132.755000", "183134.245000", "183135.735000", "183137.225000", "183138.715000", "183140.205000", "183141.695000", "183143.185000", "183144.675000", "183146.165000", "183147.655000", "183149.145000", "183150.635000", "183152.125000", "183153.615000", "183155.105000", "183156.595000", "183158.085000", "183159.575000", "183201.065000", "183202.555000", "183204.045000", "183205.535000", "183207.025000", "183208.515000", "183210.005000", "183211.495000", "183212.985000", "183214.475000", "183215.965000", "183217.455000", "183218.945000", "183220.435000", "183221.925000", "183223.415000", "183224.905000", "183226.395000", "183227.885000", "183229.375000", "183230.865000", "183232.355000", "183233.845000", "183235.335000", "183236.825000", "183238.315000", "183239.805000", "183241.295000", "183242.785000", "183244.275000", "183245.765000", "183247.255000", "183248.745000", "183250.235000", "183251.725000", "183253.215000", "183254.705000", "183256.195000", "183257.685000", "183259.175000", "183300.665000", "183302.155000", "183303.645000", "183305.135000", "183306.625000", "183308.115000", "183309.605000", "183311.095000"],
      "ContentTime": ["182310.158000", "182310.162000", "182310.165000", "182310.168000", "182310.172000", "182310.175000", "182310.178000", "182310.181000", "182310.185000", "182310.188000", "182310.191000", "182310.194000", "182310.197000", "182310.201000", "182310.204000", "182310.207000", "182310.210000", "182310.213000", "182310.217000", "182310.220000", "182310.223000", "182330.123000", "182330.127000", "182330.130000", "182330.133000", "182330.136000", "182330.139000", "182330.143000", "182330.146000", "182330.149000", "182330.152000", "182330.155000", "182330.159000", "182330.162000", "182330.165000", "182330.168000", "182330.172000", "182330.175000", "182330.178000", "182330.181000", "182330.184000", "182350.122000", "182350.126000", "182350.129000", "182350.132000", "182350.135000", "182350.139000", "182350.142000", "182350.145000", "182350.148000", "182350.151000", "182350.155000", "182350.158000", "182350.184000", "182350.187000", "182350.190000", "182350.194000", "182350.197000", "182350.200000", "182350.203000", "182350.206000", "182410.122000", "182410.126000", "182410.129000", "182410.132000", "182410.135000", "182410.139000", "182410.142000", "182410.145000", "182410.149000", "182410.153000", "182410.156000", "182410.159000", "182410.163000", "182410.166000", "182410.169000", "182410.174000", "182410.177000", "182410.180000", "182410.184000", "182410.187000", "182430.123000", "182430.128000", "182430.131000", "182430.134000", "182430.138000", "182430.141000", "182430.145000", "182430.149000", "182430.153000", "182430.156000", "182430.160000", "182430.163000", "182430.167000", "182430.170000", "182430.173000", "182430.178000", "182430.181000", "182430.184000", "182430.188000", "182430.191000", "182510.123000", "182510.127000", "182510.130000", "182510.133000", "182510.137000", "182510.140000", "182510.143000", "182510.146000", "182510.150000", "182510.153000", "182510.156000", "182510.159000", "182510.163000", "182510.166000", "182510.169000", "182510.172000", "182510.176000", "182510.179000", "182510.182000", "182510.185000", "182510.189000", "182510.192000", "182510.195000", "182510.198000", "182510.202000", "182510.205000", "182510.208000", "182510.211000", "182510.215000", "182550.123000", "182550.127000", "182550.130000", "182550.133000", "182550.137000", "182550.140000", "182550.143000", "182550.146000", "182550.150000", "182550.153000", "182550.157000", "182550.160000", "182550.163000", "182550.167000", "182550.170000", "182550.173000", "182550.176000", "182550.180000", "182550.183000", "182550.186000", "182550.190000", "182550.193000", "182550.196000", "182550.199000", "182550.203000", "182550.220000", "182550.223000", "182630.122000", "182630.126000", "182630.129000", "182630.132000", "182630.136000", "182630.139000", "182630.142000", "182630.145000", "182630.148000", "182630.152000", "182630.155000", "182630.158000", "182630.161000", "182630.165000", "182630.168000", "182630.171000", "182630.174000", "182630.178000", "182630.181000", "182630.184000", "182630.187000", "182630.191000", "182630.194000", "182630.197000", "182630.200000", "182630.204000", "182630.207000", "182710.123000", "182710.127000", "182710.130000", "182710.134000", "182710.137000", "182710.140000", "182710.143000", "182710.147000", "182710.150000", "182710.153000", "182710.156000", "182710.160000", "182710.163000", "182710.166000", "182710.170000", "182710.173000", "182710.176000", "182710.180000", "182710.183000", "182710.186000", "182710.189000", "182710.192000", "182710.196000", "182710.199000", "182710.202000", "182710.206000", "182710.209000", "182750.123000", "182750.127000", "182750.130000", "182750.133000", "182750.142000", "182750.145000", "182750.148000", "182750.151000", "182750.155000", "182750.158000", "182750.161000", "182750.164000", "182750.168000", "182750.171000", "182750.174000", "182750.178000", "182750.181000", "182750.184000", "182750.188000", "182750.191000", "182750.194000", "182750.197000", "182750.201000", "182750.204000", "182750.207000", "182750.210000", "182750.214000", "182830.122000", "182830.126000", "182830.129000", "182830.133000", "182830.136000", "182830.139000", "182830.143000", "182830.146000", "182830.150000", "182830.171000", "182830.174000", "182830.178000", "182830.181000", "182830.184000", "182830.187000", "182830.190000", "182830.194000", "182830.197000", "182830.200000", "182830.204000", "182830.207000", "182830.210000", "182830.213000", "182830.217000", "182830.220000", "182830.223000", "182910.123000", "182910.127000", "182910.130000", "182910.133000", "182910.137000", "182910.140000", "182910.143000", "182910.146000", "182910.150000", "182910.153000", "182910.156000", "182910.160000", "182910.163000", "182910.166000", "182910.169000", "182910.172000", "182910.176000", "182910.179000", "182910.182000", "182910.185000", "182910.189000", "182910.192000", "182910.195000", "182910.199000", "182910.202000", "182910.205000", "182910.208000", "182950.123000", "182950.127000", "182950.130000", "182950.133000", "182950.137000", "182950.140000", "182950.143000", "182950.146000", "182950.150000", "182950.153000", "182950.156000", "182950.159000", "182950.163000", "182950.166000", "182950.169000", "182950.172000", "182950.176000", "182950.179000", "182950.182000", "182950.185000", "182950.189000", "182950.192000", "182950.195000", "182950.198000", "182950.202000", "182950.205000", "182950.208000", "183030.123000", "183030.127000", "183030.130000", "183030.134000", "183030.137000", "183030.140000", "183030.143000", "183030.147000", "183030.150000", "183030.153000", "183030.157000", "183030.160000", "183030.163000", "183030.167000", "183030.170000", "183030.173000", "183030.177000", "183030.180000", "183030.183000", "183030.187000", "183030.190000", "183030.193000", "183030.196000", "183030.200000", "183030.203000", "183030.206000", "183030.210000", "183110.122000", "183110.133000", "183110.137000", "183110.140000", "183110.143000", "183110.147000", "183110.150000", "183110.153000", "183110.156000", "183110.160000", "183110.163000", "183110.166000", "183110.170000", "183110.173000", "183110.176000", "183110.179000", "183110.183000", "183110.186000", "183110.189000", "183110.193000", "183110.196000", "183110.199000", "183110.202000", "183110.206000", "183110.209000", "183110.212000", "183110.215000", "183150.123000", "183150.127000", "183150.130000", "183150.134000", "183150.138000", "183150.142000", "183150.145000", "183150.148000", "183150.152000", "183150.155000", "183150.158000", "183150.161000", "183150.165000", "183150.168000", "183150.171000", "183150.174000", "183150.178000", "183150.181000", "183150.184000", "183150.187000", "183150.191000", "183150.194000", "183150.197000", "183150.201000", "183150.204000", "183150.207000", "183150.210000", "183230.123000", "183230.127000", "183230.130000", "183230.133000", "183230.137000", "183230.148000", "183230.151000", "183230.154000", "183230.158000", "183230.161000", "183230.164000", "183230.167000", "183230.171000", "183230.174000", "183230.177000", "183230.181000", "183230.184000", "183230.187000", "183230.190000", "183230.194000", "183230.197000", "183230.200000", "183230.203000", "183230.207000", "183230.210000", "183230.213000", "183230.216000", "183310.122000", "183310.127000", "183310.130000", "183310.134000", "183310.137000", "183310.140000", "183310.144000", "183310.147000", "183310.166000", "183310.169000", "183310.172000", "183310.176000", "183310.179000", "183310.182000", "183310.186000", "183310.189000", "183310.192000", "183310.208000", "183310.211000", "183310.214000", "183310.218000", "183310.221000", "183310.224000", "183310.227000", "183310.230000", "183310.234000", "183314.347000", "183314.351000", "183314.354000"],
