{
  "AcquisitionMatrixPE": 104,
  "AcquisitionNumber": 1,
  "AcquisitionTime": "16:22:4.750000",
  "BandwidthPerPixelPhaseEncode": 17.17,
  "BaseResolution": 104,
  "BodyPartExamined": "BRAIN",
  "CoilString": "HC1-7;NC1_2",
  "ConsistencyInfo": "N4_VE11C_LATEST_20160120",
  "ConversionSoftware": "dcm2niix",
  "ConversionSoftwareVersion": "v1.0.20190902",
  "DerivedVendorReportedEchoSpacing": 0.000560011,
  "DeviceSerialNumber": "167006",
  "DwellTime": 2.1e-06,
  "EchoTime": 0.037,
  "EchoTrainLength": 104,
  "EffectiveEchoSpacing": 0.000560011,
  "FlipAngle": 52,
  "HeudiconvVersion": "0.10.0",
  "ImageComments": "Unaliased_MB4_PE3_LB",
  "ImageOrientationPatientDICOM": [0.999512, -0.0292424, 0.0109959, 0.0312364, 0.941773, -0.334796],
  "ImageType": [
    "ORIGINAL",
    "PRIMARY",
    "M",
    "MB",
    "ND",
    "MOSAIC"
],
  "ImagingFrequency": 123.259,
  "InPlanePhaseEncodingDirectionDICOM": "COL",
  "InstitutionAddress": "Chemin_Queen-Mary_4565_Montreal_District_CA_H3W_1W5",
  "InstitutionName": "IUGM",
  "InstitutionalDepartmentName": "Department",
  "MRAcquisitionType": "2D",
  "MagneticFieldStrength": 3,
  "Manufacturer": "Siemens",
  "ManufacturersModelName": "Prisma_fit",
  "Modality": "MR",
  "MultibandAccelerationFactor": 4,
  "PartialFourier": 1,
  "PatientPosition": "HFS",
  "PercentPhaseFOV": 100,
  "PhaseEncodingDirection": "j",
  "PhaseEncodingSteps": 104,
  "PhaseResolution": 1,
  "PixelBandwidth": 2290,
  "ProcedureStepDescription": "games_mario",
  "ProtocolName": "func_task-mario_run-03",
  "PulseSequenceDetails": "%CustomerSeq%_cmrr_mbep2d_bold",
  "ReceiveCoilActiveElements": "HC1-7;NC1,2",
  "ReceiveCoilName": "HeadNeck_64",
  "ReconMatrixPE": 104,
  "RepetitionTime": 1.49,
  "SAR": 0.0561662,
  "ScanOptions": "FS",
  "ScanningSequence": "EP",
  "SequenceName": "epfid2d1_104",
  "SequenceVariant": "SK_SS",
  "SeriesDescription": "func_task-mario_run-03",
  "SeriesNumber": 16,
  "ShimSetting": [632, -7246, -8831, 556, 4, -201, -132, -23],
  "SliceThickness": 2,
  "SliceTiming": [0, 0.7825, 0.0975, 0.88, 0.195, 0.98, 0.2925, 1.0775, 0.39, 1.175, 0.49, 1.2725, 0.5875, 1.37, 0.685, 0, 0.7825, 0.0975, 0.88, 0.195, 0.98, 0.2925, 1.0775, 0.39, 1.175, 0.49, 1.2725, 0.5875, 1.37, 0.685, 0, 0.7825, 0.0975, 0.88, 0.195, 0.98, 0.2925, 1.0775, 0.39, 1.175, 0.49, 1.2725, 0.5875, 1.37, 0.685, 0, 0.7825, 0.0975, 0.88, 0.195, 0.98, 0.2925, 1.0775, 0.39, 1.175, 0.49, 1.2725, 0.5875, 1.37, 0.685],
  "SoftwareVersions": "syngo_MR_E11",
  "SpacingBetweenSlices": 2,
  "StationName": "MRC35049",
  "TaskName": "mario",
  "TotalReadoutTime": 0.0576811,
  "TxRefAmp": 272.506,
  "WipMemBlock": "d478dc56-665f-4eaf-a3a7-2ffbb8b7effd||Sequence: R016 ve11c/master r/e634e98; Dec 19 2017 11:00:25 by eja",
  "dcmmeta_affine": [
    [-1.999023675918579, 0.062472712248563766, 0.0011308498214930296, 102.8347396850586],
    [0.058484841138124466, 1.8835455179214478, -0.6699520349502563, -67.98636627197266],
    [0.02199186384677887, 0.6695919632911682, 1.8844530582427979, -63.619850158691406],
    [0.0, 0.0, 0.0, 1.0]
],
  "dcmmeta_reorient_transform": [
    [0.0, -1.0, 0.0, 103.0],
    [1.0, 0.0, 0.0, 0.0],
    [0.0, 0.0, 1.0, 0.0],
    [0.0, 0.0, 0.0, 1.0]
],
  "dcmmeta_shape": [104, 104, 60, 444],
  "dcmmeta_slice_dim": 2,
  "dcmmeta_version": 0.6,
  "global": {
    "const": {
      "AcquisitionMatrix": [104, 0, 0, 104],
      "AngioFlag": "N",
      "BitsAllocated": 16,
      "BitsStored": 16,
      "BodyPartExamined": "BRAIN",
      "Columns": 832,
      "EchoNumbers": 1,
      "EchoTime": 37.0,
      "EchoTrainLength": 104,
      "FlipAngle": 52.0,
      "HighBit": 15,
      "ImageOrientationPatient": [0.99951186602263, -0.0292424205098, 0.01099593209737, 0.03123635661627, 0.94177276911332, -0.3347959697816],
      "ImagePositionPatient": [-859.65413621626, -790.34091547392, 241.0745477656],
      "ImageType": [
        "ORIGINAL",
        "PRIMARY",
        "M",
        "MB",
        "ND",
        "MOSAIC"
],
      "ImagedNucleus": "1H",
      "ImagingFrequency": 123.258882,
      "InPlanePhaseEncodingDirection": "COL",
      "MRAcquisitionType": "2D",
      "MagneticFieldStrength": 3.0,
      "Manufacturer": "SIEMENS",
      "ManufacturerModelName": "Prisma_fit",
      "Modality": "MR",
      "NumberOfAverages": 1.0,
      "NumberOfPhaseEncodingSteps": 104,
      "PercentPhaseFieldOfView": 100.0,
      "PercentSampling": 100.0,
      "PerformedProcedureStepStartTime": "152744.715000",
      "PhotometricInterpretation": "MONOCHROME2",
      "PixelBandwidth": 2290.0,
      "PixelRepresentation": 0,
      "PixelSpacing": [2.0, 2.0],
      "ProtocolName": "func_task-mario_run-03",
      "RepetitionTime": 1490.0,
      "Rows": 832,
      "SAR": 0.05616617900531,
      "SamplesPerPixel": 1,
      "ScanOptions": "FS",
      "ScanningSequence": "EP",
      "SequenceName": "epfid2d1_104",
      "SequenceVariant": [
        "SK",
        "SS"
],
      "SeriesDescription": "func_task-mario_run-03",
      "SeriesNumber": 16,
      "SeriesTime": "162318.963000",
      "SliceLocation": -37.112358727153,
      "SliceThickness": 2.0,
      "SmallestImagePixelValue": 0,
      "SoftwareVersions": "syngo MR E11",
      "SpacingBetweenSlices": 2.00000004839,
      "SpecificCharacterSet": "ISO_IR 100",
      "StudyID": "1",
      "StudyTime": "152744.640000",
      "TransmitCoilName": "Body",
      "VariableFlipAngleFlag": "N",
      "WindowCenterWidthExplanation": "Algo1",
      "dBdt": 0.0},
    "slices": {}
  },
  "time": {
    "samples": {
      "AcquisitionNumber": [1, 2, 3, 4, 5, 6, 7, 8, 9, 10, 11, 12, 13, 14, 15, 16, 17, 18, 19, 20, 21, 22, 23, 24, 25, 26, 27, 28, 29, 30, 31, 32, 33, 34, 35, 36, 37, 38, 39, 40, 41, 42, 43, 44, 45, 46, 47, 48, 49, 50, 51, 52, 53, 54, 55, 56, 57, 58, 59, 60, 61, 62, 63, 64, 65, 66, 67, 68, 69, 70, 71, 72, 73, 74, 75, 76, 77, 78, 79, 80, 81, 82, 83, 84, 85, 86, 87, 88, 89, 90, 91, 92, 93, 94, 95, 96, 97, 98, 99, 100, 101, 102, 103, 104, 105, 106, 107, 108, 109, 110, 111, 112, 113, 114, 115, 116, 117, 118, 119, 120, 121, 122, 123, 124, 125, 126, 127, 128, 129, 130, 131, 132, 133, 134, 135, 136, 137, 138, 139, 140, 141, 142, 143, 144, 145, 146, 147, 148, 149, 150, 151, 152, 153, 154, 155, 156, 157, 158, 159, 160, 161, 162, 163, 164, 165, 166, 167, 168, 169, 170, 171, 172, 173, 174, 175, 176, 177, 178, 179, 180, 181, 182, 183, 184, 185, 186, 187, 188, 189, 190, 191, 192, 193, 194, 195, 196, 197, 198, 199, 200, 201, 202, 203, 204, 205, 206, 207, 208, 209, 210, 211, 212, 213, 214, 215, 216, 217, 218, 219, 220, 221, 222, 223, 224, 225, 226, 227, 228, 229, 230, 231, 232, 233, 234, 235, 236, 237, 238, 239, 240, 241, 242, 243, 244, 245, 246, 247, 248, 249, 250, 251, 252, 253, 254, 255, 256, 257, 258, 259, 260, 261, 262, 263, 264, 265, 266, 267, 268, 269, 270, 271, 272, 273, 274, 275, 276, 277, 278, 279, 280, 281, 282, 283, 284, 285, 286, 287, 288, 289, 290, 291, 292, 293, 294, 295, 296, 297, 298, 299, 300, 301, 302, 303, 304, 305, 306, 307, 308, 309, 310, 311, 312, 313, 314, 315, 316, 317, 318, 319, 320, 321, 322, 323, 324, 325, 326, 327, 328, 329, 330, 331, 332, 333, 334, 335, 336, 337, 338, 339, 340, 341, 342, 343, 344, 345, 346, 347, 348, 349, 350, 351, 352, 353, 354, 355, 356, 357, 358, 359, 360, 361, 362, 363, 364, 365, 366, 367, 368, 369, 370, 371, 372, 373, 374, 375, 376, 377, 378, 379, 380, 381, 382, 383, 384, 385, 386, 387, 388, 389, 390, 391, 392, 393, 394, 395, 396, 397, 398, 399, 400, 401, 402, 403, 404, 405, 406, 407, 408, 409, 410, 411, 412, 413, 414, 415, 416, 417, 418, 419, 420, 421, 422, 423, 424, 425, 426, 427, 428, 429, 430, 431, 432, 433, 434, 435, 436, 437, 438, 439, 440, 441, 442, 443, 444],
      "AcquisitionTime": ["162204.750000", "162206.240000", "162207.730000", "162209.220000", "162210.710000", "162212.200000", "162213.690000", "162215.180000", "162216.670000", "162218.160000", "162219.650000", "162221.140000", "162222.630000", "162224.120000", "162225.610000", "162227.100000", "162228.590000", "162230.080000", "162231.570000", "162233.060000", "162234.550000", "162236.040000", "162237.530000", "162239.020000", "162240.510000", "162242.000000", "162243.490000", "162244.980000", "162246.470000", "162247.960000", "162249.450000", "162250.940000", "162252.430000", "162253.920000", "162255.410000", "162256.900000", "162258.390000", "162259.880000", "162301.370000", "162302.860000", "162304.350000", "162305.840000", "162307.330000", "162308.820000", "162310.310000", "162311.800000", "162313.290000", "162314.780000", "162316.270000", "162317.760000", "162319.250000", "162320.740000", "162322.230000", "162323.720000", "162325.210000", "162326.700000", "162328.190000", "162329.680000", "162331.170000", "162332.660000", "162334.150000", "162335.640000", "162337.130000", "162338.620000", "162340.110000", "162341.600000", "162343.090000", "162344.580000", "162346.070000", "162347.560000", "162349.050000", "162350.540000", "162352.030000", "162353.520000", "162355.010000", "162356.500000", "162357.990000", "162359.480000", "162400.970000", "162402.460000", "162403.950000", "162405.440000", "162406.930000", "162408.420000", "162409.910000", "162411.400000", "162412.890000", "162414.380000", "162415.870000", "162417.360000", "162418.850000", "162420.340000", "162421.830000", "162423.320000", "162424.810000", "162426.300000", "162427.790000", "162429.280000", "162430.770000", "162432.260000", "162433.750000", "162435.240000", "162436.730000", "162438.220000", "162439.710000", "162441.200000", "162442.690000", "162444.180000", "162445.670000", "162447.160000", "162448.650000", "162450.140000", "162451.630000", "162453.120000", "162454.610000", "162456.100000", "162457.590000", "162459.080000", "162500.570000", "162502.060000", "162503.550000", "162505.040000", "162506.530000", "162508.020000", "162509.510000", "162511.000000", "162512.490000", "162513.980000", "162515.470000", "162516.960000", "162518.450000", "162519.940000", "162521.430000", "162522.920000", "162524.410000", "162525.900000", "162527.390000", "162528.880000", "162530.370000", "162531.860000", "162533.350000", "162534.840000", "162536.330000", "162537.820000", "162539.310000", "162540.800000", "162542.290000", "162543.780000", "162545.270000", "162546.760000", "162548.250000", "162549.740000", "162551.230000", "162552.720000", "162554.210000", "162555.700000", "162557.190000", "162558.680000", "162600.170000", "162601.660000", "162603.150000", "162604.640000", "162606.130000", "162607.620000", "162609.110000", "162610.600000", "162612.090000", "162613.580000", "162615.070000", "162616.560000", "162618.050000", "162619.540000", "162621.030000", "162622.520000", "162624.010000", "162625.500000", "162626.990000", "162628.480000", "162629.970000", "162631.460000", "162632.950000", "162634.440000", "162635.930000", "162637.420000", "162638.910000", "162640.400000", "162641.890000", "162643.380000", "162644.870000", "162646.360000", "162647.850000", "162649.340000", "162650.830000", "162652.320000", "162653.810000", "162655.300000", "162656.790000", "162658.280000", "162659.770000", "162701.260000", "162702.750000", "162704.240000", "162705.730000", "162707.220000", "162708.710000", "162710.200000", "162711.690000", "162713.180000", "162714.670000", "162716.160000", "162717.650000", "162719.140000", "162720.630000", "162722.120000", "162723.610000", "162725.100000", "162726.590000", "162728.080000", "162729.570000", "162731.060000", "162732.550000", "162734.040000", "162735.530000", "162737.020000", "162738.510000", "162740.000000", "162741.490000", "162742.980000", "162744.470000", "162745.960000", "162747.450000", "162748.940000", "162750.430000", "162751.920000", "162753.410000", "162754.900000", "162756.390000", "162757.880000", "162759.370000", "162800.860000", "162802.350000", "162803.840000", "162805.330000", "162806.820000", "162808.310000", "162809.800000", "162811.290000", "162812.780000", "162814.270000", "162815.760000", "162817.250000", "162818.740000", "162820.230000", "162821.720000", "162823.210000", "162824.700000", "162826.190000", "162827.680000", "162829.170000", "162830.660000", "162832.150000", "162833.640000", "162835.130000", "162836.620000", "162838.110000", "162839.600000", "162841.090000", "162842.580000", "162844.070000", "162845.560000", "162847.050000", "162848.540000", "162850.030000", "162851.520000", "162853.010000", "162854.500000", "162855.990000", "162857.480000", "162858.970000", "162900.460000", "162901.950000", "162903.440000", "162904.930000", "162906.420000", "162907.910000", "162909.400000", "162910.890000", "162912.380000", "162913.870000", "162915.360000", "162916.850000", "162918.340000", "162919.830000", "162921.320000", "162922.810000", "162924.300000", "162925.790000", "162927.280000", "162928.770000", "162930.260000", "162931.750000", "162933.240000", "162934.730000", "162936.220000", "162937.710000", "162939.200000", "162940.690000", "162942.180000", "162943.670000", "162945.160000", "162946.650000", "162948.140000", "162949.630000", "162951.120000", "162952.610000", "162954.100000", "162955.590000", "162957.080000", "162958.570000", "163000.060000", "163001.550000", "163003.040000", "163004.530000", "163006.020000", "163007.510000", "163009.000000", "163010.490000", "163011.980000", "163013.470000", "163014.960000", "163016.450000", "163017.940000", "163019.430000", "163020.920000", "163022.410000", "163023.900000", "163025.390000", "163026.880000", "163028.370000", "163029.860000", "163031.350000", "163032.840000", "163034.330000", "163035.820000", "163037.310000", "163038.800000", "163040.290000", "163041.780000", "163043.270000", "163044.760000", "163046.250000", "163047.740000", "163049.230000", "163050.720000", "163052.210000", "163053.700000", "163055.190000", "163056.680000", "163058.170000", "163059.660000", "163101.150000", "163102.640000", "163104.130000", "163105.620000", "163107.110000", "163108.600000", "163110.090000", "163111.580000", "163113.070000", "163114.560000", "163116.050000", "163117.540000", "163119.030000", "163120.520000", "163122.010000", "163123.500000", "163124.990000", "163126.480000", "163127.970000", "163129.460000", "163130.950000", "163132.440000", "163133.930000", "163135.420000", "163136.910000", "163138.400000", "163139.890000", "163141.380000", "163142.870000", "163144.360000", "163145.850000", "163147.340000", "163148.830000", "163150.320000", "163151.810000", "163153.300000", "163154.790000", "163156.280000", "163157.770000", "163159.260000", "163200.750000", "163202.240000", "163203.730000", "163205.220000", "163206.710000", "163208.200000", "163209.690000", "163211.180000", "163212.670000", "163214.160000", "163215.650000", "163217.140000", "163218.630000", "163220.120000", "163221.610000", "163223.100000", "163224.590000", "163226.080000", "163227.570000", "163229.060000", "163230.550000", "163232.040000", "163233.530000", "163235.020000", "163236.510000", "163238.000000", "163239.490000", "163240.980000", "163242.470000", "163243.960000", "163245.450000", "163246.940000", "163248.430000", "163249.920000", "163251.410000", "163252.900000", "163254.390000", "163255.880000", "163257.370000", "163258.860000", "163300.350000", "163301.840000", "163303.330000", "163304.820000"],
      "ContentTime": ["162318.966000", "162318.970000", "162318.973000", "162318.976000", "162318.980000", "162318.983000", "162318.987000", "162318.990000", "162318.993000", "162319.002000", "162319.006000", "162319.009000", "162319.012000", "162319.016000", "162319.025000", "162319.029000", "162319.032000", "162319.035000", "162319.039000", "162319.042000", "162319.045000", "162338.964000", "162338.968000", "162338.971000", "162338.981000", "162338.985000", "162339.002000", "162339.005000", "162339.008000", "162339.012000", "162339.015000", "162339.018000", "162339.022000", "162339.025000", "162339.029000", "162339.032000", "162339.035000", "162339.039000", "162339.042000", "162339.045000", "162339.048000", "162358.964000", "162358.968000", "162358.971000", "162358.975000", "162358.978000", "162358.981000", "162358.985000", "162358.988000", "162358.992000", "162358.995000", "162358.998000", "162359.003000", "162359.012000", "162359.015000", "162359.018000", "162359.022000", "162359.025000", "162359.028000", "162359.032000", "162359.035000", "162418.963000", "162418.967000", "162418.970000", "162418.974000", "162418.977000", "162418.981000", "162418.984000", "162418.987000", "162418.991000", "162418.994000", "162418.997000", "162419.002000", "162419.005000", "162419.008000", "162419.012000", "162419.015000", "162419.018000", "162419.022000", "162419.025000", "162419.028000", "162438.963000", "162438.981000", "162438.984000", "162438.987000", "162438.991000", "162438.994000", "162438.998000", "162439.002000", "162439.005000", "162439.009000", "162439.012000", "162439.015000", "162439.019000", "162439.022000", "162439.026000", "162439.029000", "162439.032000", "162439.036000", "162439.039000", "162439.042000", "162518.963000", "162518.996000", "162519.001000", "162519.004000", "162519.007000", "162519.011000", "162519.014000", "162519.018000", "162519.021000", "162519.025000", "162519.028000", "162519.031000", "162519.035000", "162519.038000", "162519.041000", "162519.045000", "162519.048000", "162519.052000", "162519.055000", "162519.058000", "162519.062000", "162519.065000", "162519.069000", "162519.073000", "162519.076000", "162519.080000", "162519.083000", "162519.086000", "162558.964000", "162558.968000", "162558.971000", "162558.990000", "162558.993000", "162558.996000", "162559.001000", "162559.004000", "162559.008000", "162559.011000", "162559.014000", "162559.018000", "162559.021000", "162559.025000", "162559.028000", "162559.031000", "162559.035000", "162559.038000", "162559.041000", "162559.045000", "162559.048000", "162559.052000", "162559.079000", "162559.082000", "162559.086000", "162559.089000", "162559.092000", "162638.964000", "162638.968000", "162638.971000", "162638.975000", "162638.978000", "162638.981000", "162638.985000", "162638.988000", "162638.992000", "162638.995000", "162638.998000", "162639.003000", "162639.006000", "162639.009000", "162639.013000", "162639.016000", "162639.020000", "162639.023000", "162639.026000", "162639.030000", "162639.033000", "162639.036000", "162639.040000", "162639.043000", "162639.047000", "162639.050000", "162639.053000", "162718.964000", "162718.968000", "162718.971000", "162718.975000", "162718.978000", "162718.982000", "162718.985000", "162718.988000", "162718.992000", "162718.995000", "162719.000000", "162719.003000", "162719.006000", "162719.010000", "162719.013000", "162719.017000", "162719.020000", "162719.023000", "162719.027000", "162719.030000", "162719.033000", "162719.037000", "162719.040000", "162719.043000", "162719.047000", "162719.050000", "162719.054000", "162758.964000", "162758.968000", "162758.972000", "162758.975000", "162758.978000", "162758.982000", "162758.985000", "162758.989000", "162758.992000", "162758.995000", "162759.000000", "162759.003000", "162759.006000", "162759.010000", "162759.013000", "162759.017000", "162759.020000", "162759.023000", "162759.037000", "162759.040000", "162759.044000", "162759.047000", "162759.050000", "162759.054000", "162759.057000", "162759.061000", "162759.064000", "162838.964000", "162838.968000", "162838.972000", "162838.975000", "162838.978000", "162838.982000", "162838.985000", "162838.988000", "162838.992000", "162838.995000", "162838.998000", "162839.003000", "162839.006000", "162839.010000", "162839.013000", "162839.016000", "162839.020000", "162839.023000", "162839.026000", "162839.030000", "162839.033000", "162839.037000", "162839.040000", "162839.043000", "162839.047000", "162839.050000", "162839.054000", "162918.964000", "162918.967000", "162918.971000", "162918.974000", "162918.978000", "162918.982000", "162918.985000", "162918.988000", "162918.992000", "162918.995000", "162919.000000", "162919.003000", "162919.006000", "162919.010000", "162919.013000", "162919.016000", "162919.020000", "162919.023000", "162919.027000", "162919.030000", "162919.033000", "162919.037000", "162919.040000", "162919.044000", "162919.047000", "162919.050000", "162958.964000", "162958.967000", "162958.971000", "162958.974000", "162958.977000", "162958.981000", "162958.984000", "162958.988000", "162958.991000", "162958.995000", "162958.998000", "162959.002000", "162959.006000", "162959.009000", "162959.013000", "162959.016000", "162959.019000", "162959.023000", "162959.026000", "162959.030000", "162959.033000", "162959.036000", "162959.040000", "162959.043000", "162959.046000", "162959.050000", "162959.053000", "163038.965000", "163038.968000", "163038.972000", "163038.975000", "163038.978000", "163038.982000", "163038.985000", "163038.989000", "163038.992000", "163038.995000", "163039.011000", "163039.015000", "163039.018000", "163039.022000", "163039.025000", "163039.028000", "163039.032000", "163039.035000", "163039.038000", "163039.042000", "163039.045000", "163039.048000", "163039.052000", "163039.055000", "163039.059000", "163039.062000", "163039.065000", "163118.963000", "163118.967000", "163118.971000", "163118.974000", "163118.978000", "163118.981000", "163118.984000", "163118.988000", "163118.991000", "163118.995000", "163118.998000", "163119.003000", "163119.006000", "163119.009000", "163119.013000", "163119.016000", "163119.019000", "163119.023000", "163119.026000", "163119.030000", "163119.033000", "163119.037000", "163119.040000", "163119.043000", "163119.047000", "163119.050000", "163119.053000", "163158.964000", "163158.967000", "163158.971000", "163158.974000", "163158.977000", "163158.981000", "163158.984000", "163158.988000", "163158.991000", "163158.994000", "163158.998000", "163159.002000", "163159.006000", "163159.009000", "163159.012000", "163159.016000", "163159.019000", "163159.023000", "163159.026000", "163159.029000", "163159.033000", "163159.036000", "163159.039000", "163159.043000", "163159.046000", "163159.049000", "163159.053000", "163218.964000", "163218.968000", "163218.972000", "163218.975000", "163218.978000", "163218.982000", "163218.985000", "163218.988000", "163218.992000", "163218.995000", "163218.999000", "163219.002000", "163219.005000", "163258.964000", "163258.968000", "163258.982000", "163258.986000", "163258.989000", "163258.992000", "163258.996000", "163259.000000", "163259.004000", "163259.007000", "163259.010000", "163259.014000", "163259.017000", "163259.020000", "163259.024000", "163259.027000", "163259.030000", "163259.034000", "163259.037000", "163259.041000", "163259.044000", "163259.047000", "163259.051000", "163259.054000", "163259.058000", "163259.061000", "163259.065000", "163308.035000", "163308.038000", "163308.042000", "163308.045000", "163308.049000", "163308.052000"],
