{
  "AcquisitionMatrixPE": 104,
  "AcquisitionNumber": 1,
  "AcquisitionTime": "16:08:31.262500",
  "BandwidthPerPixelPhaseEncode": 17.17,
  "BaseResolution": 104,
  "BodyPartExamined": "BRAIN",
  "CoilString": "HC1-7;NC1_2",
  "ConsistencyInfo": "N4_VE11C_LATEST_20160120",
  "ConversionSoftware": "dcm2niix",
  "ConversionSoftwareVersion": "v1.0.20190902",
  "DerivedVendorReportedEchoSpacing": 0.000560011,
  "DeviceSerialNumber": "167006",
  "DwellTime": 2.1e-06,
  "EchoTime": 0.037,
  "EchoTrainLength": 104,
  "EffectiveEchoSpacing": 0.000560011,
  "FlipAngle": 52,
  "HeudiconvVersion": "0.10.0",
  "ImageComments": "Unaliased_MB4_PE3_LB",
  "ImageOrientationPatientDICOM": [0.999512, -0.0292424, 0.0109959, 0.0312364, 0.941773, -0.334796],
  "ImageType": [
    "ORIGINAL",
    "PRIMARY",
    "M",
    "MB",
    "ND",
    "MOSAIC"
],
  "ImagingFrequency": 123.259,
  "InPlanePhaseEncodingDirectionDICOM": "COL",
  "InstitutionAddress": "Chemin_Queen-Mary_4565_Montreal_District_CA_H3W_1W5",
  "InstitutionName": "IUGM",
  "InstitutionalDepartmentName": "Department",
  "MRAcquisitionType": "2D",
  "MagneticFieldStrength": 3,
  "Manufacturer": "Siemens",
  "ManufacturersModelName": "Prisma_fit",
  "Modality": "MR",
  "MultibandAccelerationFactor": 4,
  "PartialFourier": 1,
  "PatientPosition": "HFS",
  "PercentPhaseFOV": 100,
  "PhaseEncodingDirection": "j",
  "PhaseEncodingSteps": 104,
  "PhaseResolution": 1,
  "PixelBandwidth": 2290,
  "ProcedureStepDescription": "games_mario",
  "ProtocolName": "func_task-mario_run-02",
  "PulseSequenceDetails": "%CustomerSeq%_cmrr_mbep2d_bold",
  "ReceiveCoilActiveElements": "HC1-7;NC1,2",
  "ReceiveCoilName": "HeadNeck_64",
  "ReconMatrixPE": 104,
  "RepetitionTime": 1.49,
  "SAR": 0.0561662,
  "ScanOptions": "FS",
  "ScanningSequence": "EP",
  "SequenceName": "epfid2d1_104",
  "SequenceVariant": "SK_SS",
  "SeriesDescription": "func_task-mario_run-02",
  "SeriesNumber": 13,
  "ShimSetting": [632, -7246, -8831, 556, 4, -201, -132, -23],
  "SliceThickness": 2,
  "SliceTiming": [0, 0.7825, 0.0975, 0.88, 0.195, 0.98, 0.2925, 1.0775, 0.3925, 1.175, 0.49, 1.2725, 0.5875, 1.37, 0.685, 0, 0.7825, 0.0975, 0.88, 0.195, 0.98, 0.2925, 1.0775, 0.3925, 1.175, 0.49, 1.2725, 0.5875, 1.37, 0.685, 0, 0.7825, 0.0975, 0.88, 0.195, 0.98, 0.2925, 1.0775, 0.3925, 1.175, 0.49, 1.2725, 0.5875, 1.37, 0.685, 0, 0.7825, 0.0975, 0.88, 0.195, 0.98, 0.2925, 1.0775, 0.3925, 1.175, 0.49, 1.2725, 0.5875, 1.37, 0.685],
  "SoftwareVersions": "syngo_MR_E11",
  "SpacingBetweenSlices": 2,
  "StationName": "MRC35049",
  "TaskName": "mario",
  "TotalReadoutTime": 0.0576811,
  "TxRefAmp": 272.506,
  "WipMemBlock": "e395c47a-b821-4b2b-9e6d-98bd58dc7534||Sequence: R016 ve11c/master r/e634e98; Dec 19 2017 11:00:25 by eja",
  "dcmmeta_affine": [
    [-1.999023675918579, 0.062472712248563766, 0.0011308498214930296, 102.8347396850586],
    [0.058484841138124466, 1.8835455179214478, -0.6699520349502563, -67.98636627197266],
    [0.02199186384677887, 0.6695919632911682, 1.8844530582427979, -63.619850158691406],
    [0.0, 0.0, 0.0, 1.0]
],
  "dcmmeta_reorient_transform": [
    [0.0, -1.0, 0.0, 103.0],
    [1.0, 0.0, 0.0, 0.0],
    [0.0, 0.0, 1.0, 0.0],
    [0.0, 0.0, 0.0, 1.0]
],
  "dcmmeta_shape": [104, 104, 60, 496],
  "dcmmeta_slice_dim": 2,
  "dcmmeta_version": 0.6,
  "global": {
    "const": {
      "AcquisitionMatrix": [104, 0, 0, 104],
      "AngioFlag": "N",
      "BitsAllocated": 16,
      "BitsStored": 16,
      "BodyPartExamined": "BRAIN",
      "Columns": 832,
      "EchoNumbers": 1,
      "EchoTime": 37.0,
      "EchoTrainLength": 104,
      "FlipAngle": 52.0,
      "HighBit": 15,
      "ImageOrientationPatient": [0.99951186602263, -0.0292424205098, 0.01099593209737, 0.03123635661627, 0.94177276911332, -0.3347959697816],
      "ImagePositionPatient": [-859.65413621626, -790.34091547392, 241.0745477656],
      "ImageType": [
        "ORIGINAL",
        "PRIMARY",
        "M",
        "MB",
        "ND",
        "MOSAIC"
],
      "ImagedNucleus": "1H",
      "ImagingFrequency": 123.258876,
      "InPlanePhaseEncodingDirection": "COL",
      "MRAcquisitionType": "2D",
      "MagneticFieldStrength": 3.0,
      "Manufacturer": "SIEMENS",
      "ManufacturerModelName": "Prisma_fit",
      "Modality": "MR",
      "NumberOfAverages": 1.0,
      "NumberOfPhaseEncodingSteps": 104,
      "PercentPhaseFieldOfView": 100.0,
      "PercentSampling": 100.0,
      "PerformedProcedureStepStartTime": "152744.715000",
      "PhotometricInterpretation": "MONOCHROME2",
      "PixelBandwidth": 2290.0,
      "PixelRepresentation": 0,
      "PixelSpacing": [2.0, 2.0],
      "ProtocolName": "func_task-mario_run-02",
      "RepetitionTime": 1490.0,
      "Rows": 832,
      "SAR": 0.05616617900531,
      "SamplesPerPixel": 1,
      "ScanOptions": "FS",
      "ScanningSequence": "EP",
      "SequenceName": "epfid2d1_104",
      "SequenceVariant": [
        "SK",
        "SS"
],
      "SeriesDescription": "func_task-mario_run-02",
      "SeriesNumber": 13,
      "SeriesTime": "160953.276000",
      "SliceLocation": -37.112358727153,
      "SliceThickness": 2.0,
      "SmallestImagePixelValue": 0,
      "SoftwareVersions": "syngo MR E11",
      "SpacingBetweenSlices": 2.00000004839,
      "SpecificCharacterSet": "ISO_IR 100",
      "StudyID": "1",
      "StudyTime": "152744.640000",
      "TransmitCoilName": "Body",
      "VariableFlipAngleFlag": "N",
      "WindowCenterWidthExplanation": "Algo1",
      "dBdt": 0.0},
    "slices": {}
  },
  "time": {
    "samples": {
      "AcquisitionNumber": [1, 2, 3, 4, 5, 6, 7, 8, 9, 10, 11, 12, 13, 14, 15, 16, 17, 18, 19, 20, 21, 22, 23, 24, 25, 26, 27, 28, 29, 30, 31, 32, 33, 34, 35, 36, 37, 38, 39, 40, 41, 42, 43, 44, 45, 46, 47, 48, 49, 50, 51, 52, 53, 54, 55, 56, 57, 58, 59, 60, 61, 62, 63, 64, 65, 66, 67, 68, 69, 70, 71, 72, 73, 74, 75, 76, 77, 78, 79, 80, 81, 82, 83, 84, 85, 86, 87, 88, 89, 90, 91, 92, 93, 94, 95, 96, 97, 98, 99, 100, 101, 102, 103, 104, 105, 106, 107, 108, 109, 110, 111, 112, 113, 114, 115, 116, 117, 118, 119, 120, 121, 122, 123, 124, 125, 126, 127, 128, 129, 130, 131, 132, 133, 134, 135, 136, 137, 138, 139, 140, 141, 142, 143, 144, 145, 146, 147, 148, 149, 150, 151, 152, 153, 154, 155, 156, 157, 158, 159, 160, 161, 162, 163, 164, 165, 166, 167, 168, 169, 170, 171, 172, 173, 174, 175, 176, 177, 178, 179, 180, 181, 182, 183, 184, 185, 186, 187, 188, 189, 190, 191, 192, 193, 194, 195, 196, 197, 198, 199, 200, 201, 202, 203, 204, 205, 206, 207, 208, 209, 210, 211, 212, 213, 214, 215, 216, 217, 218, 219, 220, 221, 222, 223, 224, 225, 226, 227, 228, 229, 230, 231, 232, 233, 234, 235, 236, 237, 238, 239, 240, 241, 242, 243, 244, 245, 246, 247, 248, 249, 250, 251, 252, 253, 254, 255, 256, 257, 258, 259, 260, 261, 262, 263, 264, 265, 266, 267, 268, 269, 270, 271, 272, 273, 274, 275, 276, 277, 278, 279, 280, 281, 282, 283, 284, 285, 286, 287, 288, 289, 290, 291, 292, 293, 294, 295, 296, 297, 298, 299, 300, 301, 302, 303, 304, 305, 306, 307, 308, 309, 310, 311, 312, 313, 314, 315, 316, 317, 318, 319, 320, 321, 322, 323, 324, 325, 326, 327, 328, 329, 330, 331, 332, 333, 334, 335, 336, 337, 338, 339, 340, 341, 342, 343, 344, 345, 346, 347, 348, 349, 350, 351, 352, 353, 354, 355, 356, 357, 358, 359, 360, 361, 362, 363, 364, 365, 366, 367, 368, 369, 370, 371, 372, 373, 374, 375, 376, 377, 378, 379, 380, 381, 382, 383, 384, 385, 386, 387, 388, 389, 390, 391, 392, 393, 394, 395, 396, 397, 398, 399, 400, 401, 402, 403, 404, 405, 406, 407, 408, 409, 410, 411, 412, 413, 414, 415, 416, 417, 418, 419, 420, 421, 422, 423, 424, 425, 426, 427, 428, 429, 430, 431, 432, 433, 434, 435, 436, 437, 438, 439, 440, 441, 442, 443, 444, 445, 446, 447, 448, 449, 450, 451, 452, 453, 454, 455, 456, 457, 458, 459, 460, 461, 462, 463, 464, 465, 466, 467, 468, 469, 470, 471, 472, 473, 474, 475, 476, 477, 478, 479, 480, 481, 482, 483, 484, 485, 486, 487, 488, 489, 490, 491, 492, 493, 494, 495, 496],
      "AcquisitionTime": ["160831.262500", "160832.752500", "160834.242500", "160835.732500", "160837.222500", "160838.712500", "160840.202500", "160841.692500", "160843.182500", "160844.672500", "160846.162500", "160847.652500", "160849.142500", "160850.632500", "160852.122500", "160853.612500", "160855.102500", "160856.592500", "160858.082500", "160859.572500", "160901.062500", "160902.552500", "160904.042500", "160905.532500", "160907.022500", "160908.512500", "160910.002500", "160911.492500", "160912.982500", "160914.472500", "160915.962500", "160917.452500", "160918.942500", "160920.432500", "160921.922500", "160923.412500", "160924.902500", "160926.392500", "160927.882500", "160929.372500", "160930.862500", "160932.352500", "160933.842500", "160935.332500", "160936.822500", "160938.312500", "160939.802500", "160941.292500", "160942.782500", "160944.272500", "160945.762500", "160947.252500", "160948.742500", "160950.232500", "160951.722500", "160953.212500", "160954.702500", "160956.192500", "160957.682500", "160959.172500", "161000.662500", "161002.152500", "161003.642500", "161005.132500", "161006.622500", "161008.112500", "161009.602500", "161011.092500", "161012.582500", "161014.072500", "161015.562500", "161017.052500", "161018.542500", "161020.032500", "161021.522500", "161023.012500", "161024.502500", "161025.992500", "161027.482500", "161028.972500", "161030.462500", "161031.952500", "161033.442500", "161034.932500", "161036.422500", "161037.912500", "161039.402500", "161040.892500", "161042.382500", "161043.872500", "161045.362500", "161046.852500", "161048.342500", "161049.832500", "161051.322500", "161052.812500", "161054.302500", "161055.792500", "161057.282500", "161058.772500", "161100.262500", "161101.752500", "161103.242500", "161104.732500", "161106.222500", "161107.712500", "161109.202500", "161110.692500", "161112.182500", "161113.672500", "161115.162500", "161116.652500", "161118.142500", "161119.632500", "161121.122500", "161122.612500", "161124.102500", "161125.592500", "161127.082500", "161128.572500", "161130.062500", "161131.552500", "161133.042500", "161134.532500", "161136.022500", "161137.512500", "161139.002500", "161140.492500", "161141.982500", "161143.472500", "161144.962500", "161146.452500", "161147.942500", "161149.432500", "161150.922500", "161152.412500", "161153.902500", "161155.392500", "161156.882500", "161158.372500", "161159.862500", "161201.352500", "161202.842500", "161204.332500", "161205.822500", "161207.312500", "161208.802500", "161210.292500", "161211.782500", "161213.272500", "161214.762500", "161216.252500", "161217.742500", "161219.232500", "161220.722500", "161222.212500", "161223.702500", "161225.192500", "161226.682500", "161228.172500", "161229.662500", "161231.152500", "161232.642500", "161234.132500", "161235.622500", "161237.112500", "161238.602500", "161240.092500", "161241.582500", "161243.072500", "161244.562500", "161246.052500", "161247.542500", "161249.032500", "161250.522500", "161252.012500", "161253.502500", "161254.992500", "161256.482500", "161257.972500", "161259.462500", "161300.952500", "161302.442500", "161303.932500", "161305.422500", "161306.912500", "161308.402500", "161309.892500", "161311.382500", "161312.872500", "161314.362500", "161315.852500", "161317.342500", "161318.832500", "161320.322500", "161321.812500", "161323.302500", "161324.792500", "161326.282500", "161327.772500", "161329.262500", "161330.752500", "161332.242500", "161333.732500", "161335.222500", "161336.712500", "161338.202500", "161339.692500", "161341.182500", "161342.672500", "161344.162500", "161345.652500", "161347.142500", "161348.632500", "161350.122500", "161351.612500", "161353.102500", "161354.592500", "161356.082500", "161357.572500", "161359.062500", "161400.552500", "161402.042500", "161403.532500", "161405.022500", "161406.512500", "161408.002500", "161409.492500", "161410.982500", "161412.472500", "161413.962500", "161415.452500", "161416.942500", "161418.432500", "161419.922500", "161421.412500", "161422.902500", "161424.392500", "161425.882500", "161427.372500", "161428.862500", "161430.352500", "161431.842500", "161433.332500", "161434.822500", "161436.312500", "161437.802500", "161439.292500", "161440.782500", "161442.272500", "161443.762500", "161445.252500", "161446.742500", "161448.232500", "161449.722500", "161451.212500", "161452.702500", "161454.192500", "161455.682500", "161457.172500", "161458.662500", "161500.152500", "161501.642500", "161503.132500", "161504.622500", "161506.112500", "161507.602500", "161509.092500", "161510.582500", "161512.072500", "161513.562500", "161515.052500", "161516.542500", "161518.032500", "161519.522500", "161521.012500", "161522.502500", "161523.992500", "161525.482500", "161526.972500", "161528.462500", "161529.952500", "161531.442500", "161532.932500", "161534.422500", "161535.912500", "161537.402500", "161538.892500", "161540.382500", "161541.872500", "161543.362500", "161544.852500", "161546.342500", "161547.832500", "161549.322500", "161550.812500", "161552.302500", "161553.792500", "161555.282500", "161556.772500", "161558.262500", "161559.752500", "161601.242500", "161602.732500", "161604.222500", "161605.712500", "161607.202500", "161608.692500", "161610.182500", "161611.672500", "161613.162500", "161614.652500", "161616.142500", "161617.632500", "161619.122500", "161620.612500", "161622.102500", "161623.592500", "161625.082500", "161626.572500", "161628.062500", "161629.552500", "161631.042500", "161632.532500", "161634.022500", "161635.512500", "161637.002500", "161638.492500", "161639.982500", "161641.472500", "161642.962500", "161644.452500", "161645.942500", "161647.432500", "161648.922500", "161650.412500", "161651.902500", "161653.392500", "161654.882500", "161656.372500", "161657.862500", "161659.352500", "161700.842500", "161702.332500", "161703.822500", "161705.312500", "161706.802500", "161708.292500", "161709.782500", "161711.272500", "161712.762500", "161714.252500", "161715.742500", "161717.232500", "161718.722500", "161720.212500", "161721.702500", "161723.192500", "161724.682500", "161726.172500", "161727.662500", "161729.152500", "161730.642500", "161732.132500", "161733.622500", "161735.112500", "161736.602500", "161738.092500", "161739.582500", "161741.072500", "161742.562500", "161744.052500", "161745.542500", "161747.032500", "161748.522500", "161750.012500", "161751.502500", "161752.992500", "161754.482500", "161755.972500", "161757.462500", "161758.952500", "161800.442500", "161801.932500", "161803.422500", "161804.912500", "161806.402500", "161807.892500", "161809.382500", "161810.872500", "161812.362500", "161813.852500", "161815.342500", "161816.832500", "161818.322500", "161819.812500", "161821.302500", "161822.792500", "161824.282500", "161825.772500", "161827.262500", "161828.752500", "161830.242500", "161831.732500", "161833.222500", "161834.712500", "161836.202500", "161837.692500", "161839.182500", "161840.672500", "161842.162500", "161843.652500", "161845.142500", "161846.632500", "161848.122500", "161849.612500", "161851.102500", "161852.592500", "161854.082500", "161855.572500", "161857.062500", "161858.552500", "161900.042500", "161901.532500", "161903.022500", "161904.512500", "161906.002500", "161907.492500", "161908.982500", "161910.472500", "161911.962500", "161913.452500", "161914.942500", "161916.432500", "161917.922500", "161919.412500", "161920.902500", "161922.392500", "161923.882500", "161925.372500", "161926.862500", "161928.352500", "161929.842500", "161931.332500", "161932.822500", "161934.312500", "161935.802500", "161937.292500", "161938.782500", "161940.272500", "161941.762500", "161943.252500", "161944.742500", "161946.232500", "161947.722500", "161949.212500", "161950.702500", "161952.192500", "161953.682500", "161955.172500", "161956.662500", "161958.152500", "161959.642500", "162001.132500", "162002.622500", "162004.112500", "162005.602500", "162007.092500", "162008.582500", "162010.072500", "162011.562500", "162013.052500", "162014.542500", "162016.032500", "162017.522500", "162019.012500", "162020.502500", "162021.992500", "162023.482500", "162024.972500", "162026.462500", "162027.952500", "162029.442500", "162030.932500", "162032.422500", "162033.912500", "162035.402500", "162036.892500", "162038.382500", "162039.872500", "162041.362500", "162042.852500", "162044.342500", "162045.832500", "162047.322500", "162048.812500"],
      "ContentTime": ["160953.279000", "160953.283000", "160953.286000", "160953.289000", "160953.293000", "160953.296000", "160953.309000", "160953.312000", "160953.315000", "160953.319000", "160953.322000", "160953.325000", "160953.329000", "160953.332000", "160953.335000", "160953.339000", "160953.342000", "160953.345000", "160953.349000", "160953.352000", "160953.355000", "160953.359000", "160953.362000", "160953.366000", "160953.369000", "160953.372000", "160953.375000", "161013.245000", "161013.249000", "161013.252000", "161013.256000", "161013.259000", "161013.262000", "161013.266000", "161013.269000", "161013.273000", "161013.276000", "161013.279000", "161013.283000", "161013.286000", "161013.289000", "161013.293000", "161013.296000", "161013.299000", "161013.303000", "161013.306000", "161013.309000", "161033.245000", "161033.249000", "161033.252000", "161033.255000", "161033.259000", "161033.262000", "161033.266000", "161033.269000", "161033.272000", "161033.282000", "161033.286000", "161033.289000", "161033.292000", "161033.296000", "161033.299000", "161033.302000", "161033.306000", "161033.309000", "161033.313000", "161033.316000", "161053.245000", "161053.249000", "161053.252000", "161053.256000", "161053.259000", "161053.262000", "161053.266000", "161053.269000", "161053.272000", "161053.276000", "161053.279000", "161053.282000", "161053.286000", "161053.289000", "161053.292000", "161053.296000", "161053.299000", "161053.302000", "161053.306000", "161053.309000", "161113.246000", "161113.250000", "161113.253000", "161113.257000", "161113.260000", "161113.264000", "161113.267000", "161113.270000", "161113.274000", "161113.277000", "161113.280000", "161113.284000", "161113.287000", "161113.290000", "161113.294000", "161113.297000", "161113.300000", "161113.304000", "161113.307000", "161113.310000", "161153.245000", "161153.249000", "161153.252000", "161153.256000", "161153.259000", "161153.263000", "161153.266000", "161153.269000", "161153.273000", "161153.277000", "161153.280000", "161153.284000", "161153.287000", "161153.290000", "161153.294000", "161153.297000", "161153.300000", "161153.304000", "161153.307000", "161153.310000", "161153.314000", "161153.317000", "161153.321000", "161153.324000", "161153.327000", "161153.331000", "161153.334000", "161233.245000", "161233.249000", "161233.252000", "161233.256000", "161233.259000", "161233.263000", "161233.266000", "161233.269000", "161233.273000", "161233.276000", "161233.279000", "161233.283000", "161233.286000", "161233.290000", "161233.293000", "161233.296000", "161233.300000", "161233.303000", "161233.306000", "161233.310000", "161233.313000", "161233.317000", "161233.320000", "161233.323000", "161233.327000", "161233.330000", "161233.333000", "161313.245000", "161313.249000", "161313.252000", "161313.256000", "161313.259000", "161313.262000", "161313.266000", "161313.269000", "161313.272000", "161313.276000", "161313.279000", "161313.282000", "161313.286000", "161313.304000", "161313.307000", "161313.311000", "161313.314000", "161313.318000", "161313.321000", "161313.324000", "161313.328000", "161313.331000", "161313.334000", "161313.338000", "161313.341000", "161313.345000", "161313.348000", "161353.245000", "161353.249000", "161353.252000", "161353.256000", "161353.259000", "161353.262000", "161353.266000", "161353.269000", "161353.273000", "161353.276000", "161353.279000", "161353.283000", "161353.286000", "161353.290000", "161353.293000", "161353.296000", "161353.300000", "161353.303000", "161353.306000", "161353.310000", "161353.313000", "161353.316000", "161353.320000", "161353.323000", "161353.326000", "161353.330000", "161353.333000", "161433.246000", "161433.250000", "161433.253000", "161433.257000", "161433.260000", "161433.264000", "161433.267000", "161433.270000", "161433.274000", "161433.277000", "161433.280000", "161433.284000", "161433.287000", "161433.291000", "161433.294000", "161433.298000", "161433.301000", "161433.304000", "161433.308000", "161433.311000", "161433.314000", "161433.318000", "161433.321000", "161433.324000", "161433.328000", "161433.331000", "161433.334000", "161513.245000", "161513.249000", "161513.252000", "161513.256000", "161513.259000", "161513.263000", "161513.266000", "161513.269000", "161513.273000", "161513.276000", "161513.279000", "161513.283000", "161513.286000", "161513.290000", "161513.293000", "161513.296000", "161513.300000", "161513.303000", "161513.306000", "161513.310000", "161513.313000", "161513.316000", "161513.320000", "161513.323000", "161513.326000", "161513.330000", "161513.333000", "161553.245000", "161553.249000", "161553.252000", "161553.256000", "161553.259000", "161553.263000", "161553.266000", "161553.269000", "161553.273000", "161553.276000", "161553.280000", "161553.285000", "161553.289000", "161553.293000", "161553.296000", "161553.301000", "161553.306000", "161553.309000", "161553.312000", "161553.316000", "161553.319000", "161553.323000", "161553.326000", "161553.329000", "161553.333000", "161553.336000", "161633.245000", "161633.249000", "161633.252000", "161633.256000", "161633.259000", "161633.263000", "161633.266000", "161633.269000", "161633.273000", "161633.276000", "161633.279000", "161633.283000", "161633.286000", "161633.290000", "161633.293000", "161633.296000", "161633.300000", "161633.303000", "161633.306000", "161633.310000", "161633.313000", "161633.317000", "161633.320000", "161633.323000", "161633.327000", "161633.330000", "161633.333000", "161713.245000", "161713.249000", "161713.252000", "161713.256000", "161713.259000", "161713.263000", "161713.266000", "161713.269000", "161713.273000", "161713.276000", "161713.279000", "161713.283000", "161713.286000", "161713.289000", "161713.293000", "161713.296000", "161713.300000", "161713.303000", "161713.306000", "161713.310000", "161713.313000", "161713.316000", "161713.320000", "161713.323000", "161713.326000", "161713.330000", "161713.333000", "161753.246000", "161753.249000", "161753.253000", "161753.256000", "161753.260000", "161753.263000", "161753.266000", "161753.270000", "161753.273000", "161753.277000", "161753.280000", "161753.283000", "161753.303000", "161753.306000", "161753.310000", "161753.313000", "161753.316000", "161753.320000", "161753.323000", "161753.327000", "161753.330000", "161753.333000", "161753.337000", "161753.340000", "161753.343000", "161753.347000", "161753.350000", "161833.247000", "161833.250000", "161833.254000", "161833.257000", "161833.261000", "161833.264000", "161833.268000", "161833.272000", "161833.275000", "161833.278000", "161833.282000", "161833.285000", "161833.289000", "161833.292000", "161833.295000", "161833.299000", "161833.302000", "161833.305000", "161833.309000", "161833.312000", "161833.316000", "161833.319000", "161833.322000", "161833.326000", "161833.329000", "161833.332000", "161833.336000", "161913.246000", "161913.250000", "161913.253000", "161913.257000", "161913.260000", "161913.264000", "161913.267000", "161913.270000", "161913.274000", "161913.277000", "161913.280000", "161913.284000", "161913.287000", "161913.291000", "161913.294000", "161913.297000", "161913.301000", "161913.304000", "161913.307000", "161913.311000", "161913.314000", "161913.318000", "161913.321000", "161913.325000", "161913.328000", "161913.331000", "161913.335000", "161953.245000", "161953.249000", "161953.252000", "161953.256000", "161953.259000", "161953.262000", "161953.266000", "161953.269000", "161953.273000", "161953.276000", "161953.279000", "161953.283000", "161953.286000", "161953.290000", "161953.293000", "161953.296000", "161953.300000", "161953.303000", "161953.320000", "161953.324000", "161953.327000", "161953.330000", "161953.334000", "161953.337000", "161953.341000", "161953.344000", "161953.347000", "162033.245000", "162033.249000", "162033.252000", "162033.256000", "162033.259000", "162033.263000", "162033.266000", "162033.269000", "162033.273000", "162033.276000", "162033.280000", "162033.283000", "162033.286000", "162033.291000", "162033.295000", "162033.298000", "162033.301000", "162033.305000", "162033.308000", "162033.312000", "162033.315000", "162033.318000", "162033.322000", "162033.325000", "162033.328000", "162033.332000", "162051.924000", "162051.928000", "162051.931000", "162051.935000", "162051.938000", "162051.942000", "162051.945000", "162051.949000", "162051.953000", "162051.956000", "162051.960000", "162051.963000", "162051.967000"],
