{
  "AcquisitionMatrixPE": 104,
  "AcquisitionNumber": 1,
  "AcquisitionTime": "15:56:11.797500",
  "BandwidthPerPixelPhaseEncode": 17.17,
  "BaseResolution": 104,
  "BodyPartExamined": "BRAIN",
  "CoilString": "HC1-7;NC1_2",
  "ConsistencyInfo": "N4_VE11C_LATEST_20160120",
  "ConversionSoftware": "dcm2niix",
  "ConversionSoftwareVersion": "v1.0.20190902",
  "DerivedVendorReportedEchoSpacing": 0.000560011,
  "DeviceSerialNumber": "167006",
  "DwellTime": 2.1e-06,
  "EchoTime": 0.037,
  "EchoTrainLength": 104,
  "EffectiveEchoSpacing": 0.000560011,
  "FlipAngle": 52,
  "HeudiconvVersion": "0.10.0",
  "ImageComments": "Unaliased_MB4_PE3_LB",
  "ImageOrientationPatientDICOM": [0.999512, -0.0292424, 0.0109959, 0.0312364, 0.941773, -0.334796],
  "ImageType": [
    "ORIGINAL",
    "PRIMARY",
    "P",
    "MB",
    "ND",
    "MOSAIC"
],
  "ImagingFrequency": 123.259,
  "InPlanePhaseEncodingDirectionDICOM": "COL",
  "InstitutionAddress": "Chemin_Queen-Mary_4565_Montreal_District_CA_H3W_1W5",
  "InstitutionName": "IUGM",
  "InstitutionalDepartmentName": "Department",
  "MRAcquisitionType": "2D",
  "MagneticFieldStrength": 3,
  "Manufacturer": "Siemens",
  "ManufacturersModelName": "Prisma_fit",
  "Modality": "MR",
  "MultibandAccelerationFactor": 4,
  "PartialFourier": 1,
  "PatientPosition": "HFS",
  "PercentPhaseFOV": 100,
  "PhaseEncodingDirection": "j",
  "PhaseEncodingSteps": 104,
  "PhaseResolution": 1,
  "PixelBandwidth": 2290,
  "ProcedureStepDescription": "games_mario",
  "ProtocolName": "func_task-mario_run-01",
  "PulseSequenceDetails": "%CustomerSeq%_cmrr_mbep2d_bold",
  "ReceiveCoilActiveElements": "HC1-7;NC1,2",
  "ReceiveCoilName": "HeadNeck_64",
  "ReconMatrixPE": 104,
  "RepetitionTime": 1.49,
  "SAR": 0.0561662,
  "ScanOptions": "FS",
  "ScanningSequence": "EP",
  "SequenceName": "epfid2d1_104",
  "SequenceVariant": "SK_SS",
  "SeriesDescription": "func_task-mario_run-01",
  "SeriesNumber": 11,
  "ShimSetting": [632, -7246, -8831, 556, 4, -201, -132, -23],
  "SliceThickness": 2,
  "SliceTiming": [0, 0.785, 0.0975, 0.8825, 0.1975, 0.98, 0.295, 1.0775, 0.3925, 1.1775, 0.49, 1.275, 0.5875, 1.3725, 0.6875, 0, 0.785, 0.0975, 0.8825, 0.1975, 0.98, 0.295, 1.0775, 0.3925, 1.1775, 0.49, 1.275, 0.5875, 1.3725, 0.6875, 0, 0.785, 0.0975, 0.8825, 0.1975, 0.98, 0.295, 1.0775, 0.3925, 1.1775, 0.49, 1.275, 0.5875, 1.3725, 0.6875, 0, 0.785, 0.0975, 0.8825, 0.1975, 0.98, 0.295, 1.0775, 0.3925, 1.1775, 0.49, 1.275, 0.5875, 1.3725, 0.6875],
  "SoftwareVersions": "syngo_MR_E11",
  "SpacingBetweenSlices": 2,
  "StationName": "MRC35049",
  "TaskName": "mario",
  "TotalReadoutTime": 0.0576811,
  "TxRefAmp": 272.506,
  "WipMemBlock": "ca3e1129-572b-4a44-bfa9-470374b7bb4a||Sequence: R016 ve11c/master r/e634e98; Dec 19 2017 11:00:25 by eja",
  "dcmmeta_affine": [
    [-1.999023675918579, 0.062472712248563766, 0.0011308498214930296, 102.8347396850586],
    [0.058484841138124466, 1.8835455179214478, -0.6699520349502563, -67.98636627197266],
    [0.02199186384677887, 0.6695919632911682, 1.8844530582427979, -63.619850158691406],
    [0.0, 0.0, 0.0, 1.0]
],
  "dcmmeta_reorient_transform": [
    [0.0, -1.0, 0.0, 103.0],
    [1.0, 0.0, 0.0, 0.0],
    [0.0, 0.0, 1.0, 0.0],
    [0.0, 0.0, 0.0, 1.0]
],
  "dcmmeta_shape": [104, 104, 60, 434],
  "dcmmeta_slice_dim": 2,
  "dcmmeta_version": 0.6,
  "global": {
    "const": {
      "AcquisitionMatrix": [104, 0, 0, 104],
      "AngioFlag": "N",
      "BitsAllocated": 16,
      "BitsStored": 16,
      "BodyPartExamined": "BRAIN",
      "Columns": 832,
      "EchoNumbers": 1,
      "EchoTime": 37.0,
      "EchoTrainLength": 104,
      "FlipAngle": 52.0,
      "HighBit": 15,
      "ImageOrientationPatient": [0.99951186602263, -0.0292424205098, 0.01099593209737, 0.03123635661627, 0.94177276911332, -0.3347959697816],
      "ImagePositionPatient": [-859.65413621626, -790.34091547392, 241.0745477656],
      "ImageType": [
        "ORIGINAL",
        "PRIMARY",
        "P",
        "MB",
        "ND",
        "MOSAIC"
],
      "ImagedNucleus": "1H",
      "ImagingFrequency": 123.258867,
      "InPlanePhaseEncodingDirection": "COL",
      "LargestImagePixelValue": 4095,
      "MRAcquisitionType": "2D",
      "MagneticFieldStrength": 3.0,
      "Manufacturer": "SIEMENS",
      "ManufacturerModelName": "Prisma_fit",
      "Modality": "MR",
      "NumberOfAverages": 1.0,
      "NumberOfPhaseEncodingSteps": 104,
      "PercentPhaseFieldOfView": 100.0,
      "PercentSampling": 100.0,
      "PerformedProcedureStepStartTime": "152744.715000",
      "PhotometricInterpretation": "MONOCHROME2",
      "PixelBandwidth": 2290.0,
      "PixelRepresentation": 0,
      "PixelSpacing": [2.0, 2.0],
      "ProtocolName": "func_task-mario_run-01",
      "RepetitionTime": 1490.0,
      "RescaleIntercept": -4096.0,
      "RescaleSlope": 2.0,
      "RescaleType": "US",
      "Rows": 832,
      "SAR": 0.05616617900531,
      "SamplesPerPixel": 1,
      "ScanOptions": "FS",
      "ScanningSequence": "EP",
      "SequenceName": "epfid2d1_104",
      "SequenceVariant": [
        "SK",
        "SS"
],
      "SeriesDescription": "func_task-mario_run-01",
      "SeriesNumber": 11,
      "SeriesTime": "155726.942000",
      "SliceLocation": -37.112358727153,
      "SliceThickness": 2.0,
      "SmallestImagePixelValue": 0,
      "SoftwareVersions": "syngo MR E11",
      "SpacingBetweenSlices": 2.00000004839,
      "SpecificCharacterSet": "ISO_IR 100",
      "StudyID": "1",
      "StudyTime": "152744.640000",
      "TransmitCoilName": "Body",
      "VariableFlipAngleFlag": "N",
      "WindowCenterWidthExplanation": "Algo1",
      "dBdt": 0.0},
    "slices": {}
  },
  "time": {
    "samples": {
      "AcquisitionNumber": [1, 2, 3, 4, 5, 6, 7, 8, 9, 10, 11, 12, 13, 14, 15, 16, 17, 18, 19, 20, 21, 22, 23, 24, 25, 26, 27, 28, 29, 30, 31, 32, 33, 34, 35, 36, 37, 38, 39, 40, 41, 42, 43, 44, 45, 46, 47, 48, 49, 50, 51, 52, 53, 54, 55, 56, 57, 58, 59, 60, 61, 62, 63, 64, 65, 66, 67, 68, 69, 70, 71, 72, 73, 74, 75, 76, 77, 78, 79, 80, 81, 82, 83, 84, 85, 86, 87, 88, 89, 90, 91, 92, 93, 94, 95, 96, 97, 98, 99, 100, 101, 102, 103, 104, 105, 106, 107, 108, 109, 110, 111, 112, 113, 114, 115, 116, 117, 118, 119, 120, 121, 122, 123, 124, 125, 126, 127, 128, 129, 130, 131, 132, 133, 134, 135, 136, 137, 138, 139, 140, 141, 142, 143, 144, 145, 146, 147, 148, 149, 150, 151, 152, 153, 154, 155, 156, 157, 158, 159, 160, 161, 162, 163, 164, 165, 166, 167, 168, 169, 170, 171, 172, 173, 174, 175, 176, 177, 178, 179, 180, 181, 182, 183, 184, 185, 186, 187, 188, 189, 190, 191, 192, 193, 194, 195, 196, 197, 198, 199, 200, 201, 202, 203, 204, 205, 206, 207, 208, 209, 210, 211, 212, 213, 214, 215, 216, 217, 218, 219, 220, 221, 222, 223, 224, 225, 226, 227, 228, 229, 230, 231, 232, 233, 234, 235, 236, 237, 238, 239, 240, 241, 242, 243, 244, 245, 246, 247, 248, 249, 250, 251, 252, 253, 254, 255, 256, 257, 258, 259, 260, 261, 262, 263, 264, 265, 266, 267, 268, 269, 270, 271, 272, 273, 274, 275, 276, 277, 278, 279, 280, 281, 282, 283, 284, 285, 286, 287, 288, 289, 290, 291, 292, 293, 294, 295, 296, 297, 298, 299, 300, 301, 302, 303, 304, 305, 306, 307, 308, 309, 310, 311, 312, 313, 314, 315, 316, 317, 318, 319, 320, 321, 322, 323, 324, 325, 326, 327, 328, 329, 330, 331, 332, 333, 334, 335, 336, 337, 338, 339, 340, 341, 342, 343, 344, 345, 346, 347, 348, 349, 350, 351, 352, 353, 354, 355, 356, 357, 358, 359, 360, 361, 362, 363, 364, 365, 366, 367, 368, 369, 370, 371, 372, 373, 374, 375, 376, 377, 378, 379, 380, 381, 382, 383, 384, 385, 386, 387, 388, 389, 390, 391, 392, 393, 394, 395, 396, 397, 398, 399, 400, 401, 402, 403, 404, 405, 406, 407, 408, 409, 410, 411, 412, 413, 414, 415, 416, 417, 418, 419, 420, 421, 422, 423, 424, 425, 426, 427, 428, 429, 430, 431, 432, 433, 434],
      "AcquisitionTime": ["155611.797500", "155613.287500", "155614.777500", "155616.267500", "155617.757500", "155619.247500", "155620.737500", "155622.227500", "155623.717500", "155625.207500", "155626.697500", "155628.187500", "155629.677500", "155631.167500", "155632.657500", "155634.147500", "155635.637500", "155637.127500", "155638.617500", "155640.107500", "155641.597500", "155643.087500", "155644.577500", "155646.067500", "155647.557500", "155649.047500", "155650.537500", "155652.027500", "155653.517500", "155655.007500", "155656.497500", "155657.987500", "155659.477500", "155700.967500", "155702.457500", "155703.947500", "155705.437500", "155706.927500", "155708.417500", "155709.907500", "155711.397500", "155712.887500", "155714.377500", "155715.867500", "155717.357500", "155718.847500", "155720.337500", "155721.827500", "155723.317500", "155724.807500", "155726.297500", "155727.787500", "155729.277500", "155730.767500", "155732.257500", "155733.747500", "155735.237500", "155736.727500", "155738.217500", "155739.707500", "155741.197500", "155742.687500", "155744.177500", "155745.667500", "155747.157500", "155748.647500", "155750.137500", "155751.627500", "155753.117500", "155754.607500", "155756.097500", "155757.587500", "155759.077500", "155800.567500", "155802.057500", "155803.547500", "155805.037500", "155806.527500", "155808.017500", "155809.507500", "155810.997500", "155812.487500", "155813.977500", "155815.467500", "155816.957500", "155818.447500", "155819.937500", "155821.427500", "155822.917500", "155824.407500", "155825.897500", "155827.387500", "155828.877500", "155830.367500", "155831.857500", "155833.347500", "155834.837500", "155836.327500", "155837.817500", "155839.307500", "155840.797500", "155842.287500", "155843.777500", "155845.267500", "155846.757500", "155848.247500", "155849.737500", "155851.227500", "155852.717500", "155854.207500", "155855.697500", "155857.187500", "155858.677500", "155900.167500", "155901.657500", "155903.147500", "155904.637500", "155906.127500", "155907.617500", "155909.107500", "155910.597500", "155912.087500", "155913.577500", "155915.067500", "155916.557500", "155918.047500", "155919.537500", "155921.027500", "155922.517500", "155924.007500", "155925.497500", "155926.987500", "155928.477500", "155929.967500", "155931.457500", "155932.947500", "155934.437500", "155935.927500", "155937.417500", "155938.907500", "155940.397500", "155941.887500", "155943.377500", "155944.867500", "155946.357500", "155947.847500", "155949.337500", "155950.827500", "155952.317500", "155953.807500", "155955.297500", "155956.787500", "155958.277500", "155959.767500", "160001.257500", "160002.747500", "160004.237500", "160005.727500", "160007.217500", "160008.707500", "160010.197500", "160011.687500", "160013.177500", "160014.667500", "160016.157500", "160017.647500", "160019.137500", "160020.627500", "160022.117500", "160023.607500", "160025.097500", "160026.587500", "160028.077500", "160029.567500", "160031.057500", "160032.547500", "160034.037500", "160035.527500", "160037.017500", "160038.507500", "160039.997500", "160041.487500", "160042.977500", "160044.467500", "160045.957500", "160047.447500", "160048.937500", "160050.427500", "160051.917500", "160053.407500", "160054.897500", "160056.387500", "160057.877500", "160059.367500", "160100.857500", "160102.347500", "160103.837500", "160105.327500", "160106.817500", "160108.307500", "160109.797500", "160111.287500", "160112.777500", "160114.267500", "160115.757500", "160117.247500", "160118.737500", "160120.227500", "160121.717500", "160123.207500", "160124.697500", "160126.187500", "160127.677500", "160129.167500", "160130.657500", "160132.147500", "160133.637500", "160135.127500", "160136.617500", "160138.107500", "160139.597500", "160141.087500", "160142.577500", "160144.067500", "160145.557500", "160147.047500", "160148.537500", "160150.027500", "160151.517500", "160153.007500", "160154.497500", "160155.987500", "160157.477500", "160158.967500", "160200.457500", "160201.947500", "160203.437500", "160204.927500", "160206.417500", "160207.907500", "160209.397500", "160210.887500", "160212.377500", "160213.867500", "160215.357500", "160216.847500", "160218.337500", "160219.827500", "160221.317500", "160222.807500", "160224.297500", "160225.787500", "160227.277500", "160228.767500", "160230.257500", "160231.747500", "160233.237500", "160234.727500", "160236.217500", "160237.707500", "160239.197500", "160240.687500", "160242.177500", "160243.667500", "160245.157500", "160246.647500", "160248.137500", "160249.627500", "160251.117500", "160252.607500", "160254.097500", "160255.587500", "160257.077500", "160258.567500", "160300.057500", "160301.547500", "160303.037500", "160304.527500", "160306.017500", "160307.507500", "160308.997500", "160310.487500", "160311.977500", "160313.467500", "160314.957500", "160316.447500", "160317.937500", "160319.427500", "160320.917500", "160322.407500", "160323.897500", "160325.387500", "160326.877500", "160328.367500", "160329.857500", "160331.347500", "160332.837500", "160334.327500", "160335.817500", "160337.307500", "160338.797500", "160340.287500", "160341.777500", "160343.267500", "160344.757500", "160346.247500", "160347.737500", "160349.227500", "160350.717500", "160352.207500", "160353.697500", "160355.187500", "160356.677500", "160358.167500", "160359.657500", "160401.147500", "160402.637500", "160404.127500", "160405.617500", "160407.107500", "160408.597500", "160410.087500", "160411.577500", "160413.067500", "160414.557500", "160416.047500", "160417.537500", "160419.027500", "160420.517500", "160422.007500", "160423.497500", "160424.987500", "160426.477500", "160427.967500", "160429.457500", "160430.947500", "160432.437500", "160433.927500", "160435.417500", "160436.907500", "160438.397500", "160439.887500", "160441.377500", "160442.867500", "160444.357500", "160445.847500", "160447.337500", "160448.827500", "160450.317500", "160451.807500", "160453.297500", "160454.787500", "160456.277500", "160457.767500", "160459.257500", "160500.747500", "160502.237500", "160503.727500", "160505.217500", "160506.707500", "160508.197500", "160509.687500", "160511.177500", "160512.667500", "160514.157500", "160515.647500", "160517.137500", "160518.627500", "160520.117500", "160521.607500", "160523.097500", "160524.587500", "160526.077500", "160527.567500", "160529.057500", "160530.547500", "160532.037500", "160533.527500", "160535.017500", "160536.507500", "160537.997500", "160539.487500", "160540.977500", "160542.467500", "160543.957500", "160545.447500", "160546.937500", "160548.427500", "160549.917500", "160551.407500", "160552.897500", "160554.387500", "160555.877500", "160557.367500", "160558.857500", "160600.347500", "160601.837500", "160603.327500", "160604.817500", "160606.307500", "160607.797500", "160609.287500", "160610.777500", "160612.267500", "160613.757500", "160615.247500", "160616.737500", "160618.227500", "160619.717500", "160621.207500", "160622.697500", "160624.187500", "160625.677500", "160627.167500", "160628.657500", "160630.147500", "160631.637500", "160633.127500", "160634.617500", "160636.107500", "160637.597500", "160639.087500", "160640.577500", "160642.067500", "160643.557500", "160645.047500", "160646.537500", "160648.027500", "160649.517500", "160651.007500", "160652.497500", "160653.987500", "160655.477500", "160656.967500"],
      "ContentTime": ["155726.945000", "155726.947000", "155726.959000", "155726.962000", "155726.964000", "155726.967000", "155726.969000", "155726.972000", "155726.974000", "155726.977000", "155726.979000", "155726.982000", "155726.984000", "155726.987000", "155726.989000", "155726.992000", "155726.994000", "155726.997000", "155727.006000", "155727.008000", "155727.011000", "155747.062000", "155747.065000", "155747.067000", "155747.070000", "155747.072000", "155747.075000", "155747.077000", "155747.080000", "155747.082000", "155747.085000", "155747.087000", "155747.090000", "155747.107000", "155747.109000", "155747.112000", "155747.114000", "155747.117000", "155747.119000", "155747.122000", "155747.124000", "155806.889000", "155806.892000", "155806.895000", "155806.897000", "155806.900000", "155806.902000", "155806.905000", "155806.907000", "155806.910000", "155806.913000", "155806.915000", "155806.918000", "155806.920000", "155806.923000", "155806.925000", "155806.928000", "155806.930000", "155806.933000", "155806.935000", "155806.938000", "155826.899000", "155826.902000", "155826.905000", "155826.907000", "155826.910000", "155826.912000", "155826.915000", "155826.917000", "155826.920000", "155826.922000", "155826.925000", "155826.927000", "155826.931000", "155826.933000", "155826.936000", "155826.938000", "155826.941000", "155826.943000", "155826.946000", "155826.948000", "155846.870000", "155846.873000", "155846.875000", "155846.878000", "155846.880000", "155846.883000", "155846.885000", "155846.888000", "155846.890000", "155846.893000", "155846.895000", "155846.898000", "155846.900000", "155846.903000", "155846.905000", "155846.908000", "155846.910000", "155846.913000", "155846.916000", "155846.918000", "155926.936000", "155926.938000", "155926.941000", "155926.943000", "155926.946000", "155926.949000", "155926.951000", "155926.954000", "155926.956000", "155926.959000", "155926.961000", "155926.964000", "155926.966000", "155926.969000", "155926.972000", "155926.974000", "155926.977000", "155926.979000", "155926.982000", "155926.984000", "155926.987000", "155926.989000", "155926.992000", "155926.994000", "155926.997000", "155927.000000", "155927.003000", "155927.006000", "155927.008000", "160006.903000", "160006.906000", "160006.909000", "160006.911000", "160006.914000", "160006.916000", "160006.919000", "160006.921000", "160006.924000", "160006.926000", "160006.929000", "160006.932000", "160006.934000", "160006.937000", "160006.939000", "160006.942000", "160006.944000", "160006.947000", "160006.949000", "160006.952000", "160006.954000", "160006.957000", "160006.959000", "160006.962000", "160006.964000", "160006.967000", "160006.970000", "160046.911000", "160046.913000", "160046.916000", "160046.919000", "160046.921000", "160046.924000", "160046.926000", "160046.929000", "160046.931000", "160046.934000", "160046.936000", "160046.939000", "160046.941000", "160046.944000", "160046.946000", "160046.949000", "160046.951000", "160046.954000", "160046.956000", "160046.959000", "160046.961000", "160046.964000", "160046.966000", "160046.969000", "160046.971000", "160046.974000", "160046.977000", "160126.988000", "160126.990000", "160126.993000", "160126.995000", "160126.998000", "160127.002000", "160127.004000", "160127.007000", "160127.009000", "160127.012000", "160127.014000", "160127.017000", "160127.019000", "160127.022000", "160127.033000", "160127.036000", "160127.038000", "160127.041000", "160127.043000", "160127.046000", "160127.048000", "160127.051000", "160127.053000", "160127.056000", "160127.058000", "160127.061000", "160127.063000", "160206.921000", "160206.924000", "160206.926000", "160206.929000", "160206.931000", "160206.934000", "160206.937000", "160206.939000", "160206.942000", "160206.944000", "160206.947000", "160206.949000", "160206.952000", "160206.954000", "160206.957000", "160206.960000", "160206.962000", "160206.965000", "160206.967000", "160206.970000", "160206.972000", "160206.975000", "160206.977000", "160206.980000", "160206.982000", "160206.985000", "160226.845000", "160226.847000", "160226.850000", "160226.853000", "160226.855000", "160226.858000", "160226.860000", "160226.863000", "160226.865000", "160226.868000", "160226.870000", "160226.873000", "160226.876000", "160226.878000", "160306.921000", "160306.924000", "160306.927000", "160306.929000", "160306.932000", "160306.935000", "160306.937000", "160306.940000", "160306.942000", "160306.945000", "160306.947000", "160306.950000", "160306.952000", "160306.955000", "160306.957000", "160306.960000", "160306.963000", "160306.965000", "160306.968000", "160306.970000", "160306.973000", "160306.975000", "160306.978000", "160306.980000", "160306.983000", "160306.985000", "160306.988000", "160346.970000", "160346.973000", "160346.976000", "160346.978000", "160346.981000", "160346.983000", "160346.986000", "160346.988000", "160346.991000", "160346.993000", "160346.996000", "160347.000000", "160347.002000", "160347.005000", "160347.007000", "160347.010000", "160347.012000", "160347.015000", "160347.018000", "160347.020000", "160347.023000", "160347.025000", "160347.028000", "160347.030000", "160347.033000", "160347.036000", "160347.038000", "160426.921000", "160426.924000", "160426.926000", "160426.929000", "160426.931000", "160426.934000", "160426.937000", "160426.939000", "160426.942000", "160426.944000", "160426.947000", "160426.950000", "160426.952000", "160426.955000", "160426.958000", "160426.960000", "160426.963000", "160426.965000", "160426.968000", "160426.970000", "160426.973000", "160426.975000", "160426.978000", "160426.981000", "160426.983000", "160426.986000", "160506.917000", "160506.920000", "160506.923000", "160506.925000", "160506.928000", "160506.930000", "160506.933000", "160506.935000", "160506.938000", "160506.940000", "160506.943000", "160506.946000", "160506.948000", "160506.951000", "160506.953000", "160506.956000", "160506.958000", "160506.961000", "160506.963000", "160506.966000", "160506.968000", "160506.971000", "160506.973000", "160506.976000", "160506.979000", "160506.981000", "160506.984000", "160546.914000", "160546.917000", "160546.921000", "160546.923000", "160546.926000", "160546.928000", "160546.931000", "160546.933000", "160546.936000", "160546.939000", "160546.941000", "160546.944000", "160546.946000", "160546.949000", "160546.951000", "160546.954000", "160546.956000", "160546.959000", "160546.961000", "160546.964000", "160546.967000", "160546.969000", "160546.972000", "160546.974000", "160546.977000", "160546.979000", "160546.982000", "160626.940000", "160626.943000", "160626.946000", "160626.948000", "160626.951000", "160626.953000", "160626.956000", "160626.958000", "160626.961000", "160626.964000", "160626.966000", "160626.969000", "160626.971000", "160626.974000", "160626.976000", "160626.979000", "160626.981000", "160626.984000", "160626.986000", "160626.989000", "160626.991000", "160626.994000", "160626.996000", "160627.000000", "160627.002000", "160627.005000", "160627.008000", "160700.247000", "160700.250000", "160700.252000", "160700.255000", "160700.258000", "160700.260000", "160700.263000", "160700.265000", "160700.268000", "160700.270000", "160700.273000", "160700.276000", "160700.278000", "160700.281000", "160700.283000", "160700.286000", "160700.288000", "160700.291000", "160700.293000", "160700.296000", "160700.299000", "160700.301000"],
      "InstanceCreationTime": ["155726.945000", "155726.947000", "155726.959000", "155726.962000", "155726.964000", "155726.967000", "155726.969000", "155726.972000", "155726.974000", "155726.977000", "155726.979000", "155726.982000", "155726.984000", "155726.987000", "155726.989000", "155726.992000", "155726.994000", "155726.997000", "155727.006000", "155727.008000", "155727.011000", "155747.062000", "155747.065000", "155747.067000", "155747.070000", "155747.072000", "155747.075000", "155747.077000", "155747.080000", "155747.082000", "155747.085000", "155747.087000", "155747.090000", "155747.107000", "155747.109000", "155747.112000", "155747.114000", "155747.117000", "155747.119000", "155747.122000", "155747.124000", "155806.889000", "155806.892000", "155806.895000", "155806.897000", "155806.900000", "155806.902000", "155806.905000", "155806.907000", "155806.910000", "155806.913000", "155806.915000", "155806.918000", "155806.920000", "155806.923000", "155806.925000", "155806.928000", "155806.930000", "155806.933000", "155806.935000", "155806.938000", "155826.899000", "155826.902000", "155826.905000", "155826.907000", "155826.910000", "155826.912000", "155826.915000", "155826.917000", "155826.920000", "155826.922000", "155826.925000", "155826.927000", "155826.931000", "155826.933000", "155826.936000", "155826.938000", "155826.941000", "155826.943000", "155826.946000", "155826.948000", "155846.870000", "155846.873000", "155846.875000", "155846.878000", "155846.880000", "155846.883000", "155846.885000", "155846.888000", "155846.890000", "155846.893000", "155846.895000", "155846.898000", "155846.900000", "155846.903000", "155846.905000", "155846.908000", "155846.910000", "155846.913000", "155846.916000", "155846.918000", "155926.936000", "155926.938000", "155926.941000", "155926.943000", "155926.946000", "155926.949000", "155926.951000", "155926.954000", "155926.956000", "155926.959000", "155926.961000", "155926.964000", "155926.966000", "155926.969000", "155926.972000", "155926.974000", "155926.977000", "155926.979000", "155926.982000", "155926.984000", "155926.987000", "155926.989000", "155926.992000", "155926.994000", "155926.997000", "155927.000000", "155927.003000", "155927.006000", "155927.008000", "160006.903000", "160006.906000", "160006.909000", "160006.911000", "160006.914000", "160006.916000", "160006.919000", "160006.921000", "160006.924000", "160006.926000", "160006.929000", "160006.932000", "160006.934000", "160006.937000", "160006.939000", "160006.942000", "160006.944000", "160006.947000", "160006.949000", "160006.952000", "160006.954000", "160006.957000", "160006.959000", "160006.962000", "160006.964000", "160006.967000", "160006.970000", "160046.911000", "160046.913000", "160046.916000", "160046.919000", "160046.921000", "160046.924000", "160046.926000", "160046.929000", "160046.931000", "160046.934000", "160046.936000", "160046.939000", "160046.941000", "160046.944000", "160046.946000", "160046.949000", "160046.951000", "160046.954000", "160046.956000", "160046.959000", "160046.961000", "160046.964000", "160046.966000", "160046.969000", "160046.971000", "160046.974000", "160046.977000", "160126.988000", "160126.990000", "160126.993000", "160126.995000", "160126.998000", "160127.002000", "160127.004000", "160127.007000", "160127.009000", "160127.012000", "160127.014000", "160127.017000", "160127.019000", "160127.022000", "160127.033000", "160127.036000", "160127.038000", "160127.041000", "160127.043000", "160127.046000", "160127.048000", "160127.051000", "160127.053000", "160127.056000", "160127.058000", "160127.061000", "160127.063000", "160206.921000", "160206.924000", "160206.926000", "160206.929000", "160206.931000", "160206.934000", "160206.937000", "160206.939000", "160206.942000", "160206.944000", "160206.947000", "160206.949000", "160206.952000", "160206.954000", "160206.957000", "160206.960000", "160206.962000", "160206.965000", "160206.967000", "160206.970000", "160206.972000", "160206.975000", "160206.977000", "160206.980000", "160206.982000", "160206.985000", "160226.845000", "160226.847000", "160226.850000", "160226.853000", "160226.855000", "160226.858000", "160226.860000", "160226.863000", "160226.865000", "160226.868000", "160226.870000", "160226.873000", "160226.876000", "160226.878000", "160306.921000", "160306.924000", "160306.927000", "160306.929000", "160306.932000", "160306.935000", "160306.937000", "160306.940000", "160306.942000", "160306.945000", "160306.947000", "160306.950000", "160306.952000", "160306.955000", "160306.957000", "160306.960000", "160306.963000", "160306.965000", "160306.968000", "160306.970000", "160306.973000", "160306.975000", "160306.978000", "160306.980000", "160306.983000", "160306.985000", "160306.988000", "160346.970000", "160346.973000", "160346.976000", "160346.978000", "160346.981000", "160346.983000", "160346.986000", "160346.988000", "160346.991000", "160346.993000", "160346.996000", "160347.000000", "160347.002000", "160347.005000", "160347.007000", "160347.010000", "160347.012000", "160347.015000", "160347.018000", "160347.020000", "160347.023000", "160347.025000", "160347.028000", "160347.030000", "160347.033000", "160347.036000", "160347.038000", "160426.921000", "160426.924000", "160426.926000", "160426.929000", "160426.931000", "160426.934000", "160426.937000", "160426.939000", "160426.942000", "160426.944000", "160426.947000", "160426.950000", "160426.952000", "160426.955000", "160426.958000", "160426.960000", "160426.963000", "160426.965000", "160426.968000", "160426.970000", "160426.973000", "160426.975000", "160426.978000", "160426.981000", "160426.983000", "160426.986000", "160506.917000", "160506.920000", "160506.923000", "160506.925000", "160506.928000", "160506.930000", "160506.933000", "160506.935000", "160506.938000", "160506.940000", "160506.943000", "160506.946000", "160506.948000", "160506.951000", "160506.953000", "160506.956000", "160506.958000", "160506.961000", "160506.963000", "160506.966000", "160506.968000", "160506.971000", "160506.973000", "160506.976000", "160506.979000", "160506.981000", "160506.984000", "160546.914000", "160546.917000", "160546.921000", "160546.923000", "160546.926000", "160546.928000", "160546.931000", "160546.933000", "160546.936000", "160546.939000", "160546.941000", "160546.944000", "160546.946000", "160546.949000", "160546.951000", "160546.954000", "160546.956000", "160546.959000", "160546.961000", "160546.964000", "160546.967000", "160546.969000", "160546.972000", "160546.974000", "160546.977000", "160546.979000", "160546.982000", "160626.940000", "160626.943000", "160626.946000", "160626.948000", "160626.951000", "160626.953000", "160626.956000", "160626.958000", "160626.961000", "160626.964000", "160626.966000", "160626.969000", "160626.971000", "160626.974000", "160626.976000", "160626.979000", "160626.981000", "160626.984000", "160626.986000", "160626.989000", "160626.991000", "160626.994000", "160626.996000", "160627.000000", "160627.002000", "160627.005000", "160627.008000", "160700.247000", "160700.250000", "160700.252000", "160700.255000", "160700.258000", "160700.260000", "160700.263000", "160700.265000", "160700.268000", "160700.270000", "160700.273000", "160700.276000", "160700.278000", "160700.281000", "160700.283000", "160700.286000", "160700.288000", "160700.291000", "160700.293000", "160700.296000", "160700.299000", "160700.301000"],
