{
  "AcquisitionMatrixPE": 104,
  "AcquisitionNumber": 1,
  "AcquisitionTime": "16:35:51.355000",
  "BandwidthPerPixelPhaseEncode": 17.17,
  "BaseResolution": 104,
  "BodyPartExamined": "BRAIN",
  "CoilString": "HC1-7;NC1_2",
  "ConsistencyInfo": "N4_VE11C_LATEST_20160120",
  "ConversionSoftware": "dcm2niix",
  "ConversionSoftwareVersion": "v1.0.20190902",
  "DerivedVendorReportedEchoSpacing": 0.000560011,
  "DeviceSerialNumber": "167006",
  "DwellTime": 2.1e-06,
  "EchoTime": 0.037,
  "EchoTrainLength": 104,
  "EffectiveEchoSpacing": 0.000560011,
  "FlipAngle": 52,
  "HeudiconvVersion": "0.10.0",
  "ImageComments": "Unaliased_MB4_PE3_LB",
  "ImageOrientationPatientDICOM": [0.999512, -0.0292424, 0.0109959, 0.0312364, 0.941773, -0.334796],
  "ImageType": [
    "ORIGINAL",
    "PRIMARY",
    "M",
    "MB",
    "ND",
    "MOSAIC"
],
  "ImagingFrequency": 123.259,
  "InPlanePhaseEncodingDirectionDICOM": "COL",
  "InstitutionAddress": "Chemin_Queen-Mary_4565_Montreal_District_CA_H3W_1W5",
  "InstitutionName": "IUGM",
  "InstitutionalDepartmentName": "Department",
  "MRAcquisitionType": "2D",
  "MagneticFieldStrength": 3,
  "Manufacturer": "Siemens",
  "ManufacturersModelName": "Prisma_fit",
  "Modality": "MR",
  "MultibandAccelerationFactor": 4,
  "PartialFourier": 1,
  "PatientPosition": "HFS",
  "PercentPhaseFOV": 100,
  "PhaseEncodingDirection": "j",
  "PhaseEncodingSteps": 104,
  "PhaseResolution": 1,
  "PixelBandwidth": 2290,
  "ProcedureStepDescription": "games_mario",
  "ProtocolName": "func_task-mario_run-04",
  "PulseSequenceDetails": "%CustomerSeq%_cmrr_mbep2d_bold",
  "ReceiveCoilActiveElements": "HC1-7;NC1,2",
  "ReceiveCoilName": "HeadNeck_64",
  "ReconMatrixPE": 104,
  "RepetitionTime": 1.49,
  "SAR": 0.0561662,
  "ScanOptions": "FS",
  "ScanningSequence": "EP",
  "SequenceName": "epfid2d1_104",
  "SequenceVariant": "SK_SS",
  "SeriesDescription": "func_task-mario_run-04",
  "SeriesNumber": 19,
  "ShimSetting": [632, -7246, -8831, 556, 4, -201, -132, -23],
  "SliceThickness": 2,
  "SliceTiming": [0, 0.7825, 0.0975, 0.88, 0.195, 0.98, 0.2925, 1.0775, 0.39, 1.175, 0.49, 1.2725, 0.5875, 1.37, 0.685, 0, 0.7825, 0.0975, 0.88, 0.195, 0.98, 0.2925, 1.0775, 0.39, 1.175, 0.49, 1.2725, 0.5875, 1.37, 0.685, 0, 0.7825, 0.0975, 0.88, 0.195, 0.98, 0.2925, 1.0775, 0.39, 1.175, 0.49, 1.2725, 0.5875, 1.37, 0.685, 0, 0.7825, 0.0975, 0.88, 0.195, 0.98, 0.2925, 1.0775, 0.39, 1.175, 0.49, 1.2725, 0.5875, 1.37, 0.685],
  "SoftwareVersions": "syngo_MR_E11",
  "SpacingBetweenSlices": 2,
  "StationName": "MRC35049",
  "TaskName": "mario",
  "TotalReadoutTime": 0.0576811,
  "TxRefAmp": 272.506,
  "WipMemBlock": "8589d1cf-7141-422e-925c-da7e4fd8030d||Sequence: R016 ve11c/master r/e634e98; Dec 19 2017 11:00:25 by eja",
  "dcmmeta_affine": [
    [-1.999023675918579, 0.062472712248563766, 0.0011308498214930296, 102.8347396850586],
    [0.058484841138124466, 1.8835455179214478, -0.6699520349502563, -67.98636627197266],
    [0.02199186384677887, 0.6695919632911682, 1.8844530582427979, -63.619850158691406],
    [0.0, 0.0, 0.0, 1.0]
],
  "dcmmeta_reorient_transform": [
    [0.0, -1.0, 0.0, 103.0],
    [1.0, 0.0, 0.0, 0.0],
    [0.0, 0.0, 1.0, 0.0],
    [0.0, 0.0, 0.0, 1.0]
],
  "dcmmeta_shape": [104, 104, 60, 470],
  "dcmmeta_slice_dim": 2,
  "dcmmeta_version": 0.6,
  "global": {
    "const": {
      "AcquisitionMatrix": [104, 0, 0, 104],
      "AngioFlag": "N",
      "BitsAllocated": 16,
      "BitsStored": 16,
      "BodyPartExamined": "BRAIN",
      "Columns": 832,
      "EchoNumbers": 1,
      "EchoTime": 37.0,
      "EchoTrainLength": 104,
      "FlipAngle": 52.0,
      "HighBit": 15,
      "ImageOrientationPatient": [0.99951186602263, -0.0292424205098, 0.01099593209737, 0.03123635661627, 0.94177276911332, -0.3347959697816],
      "ImagePositionPatient": [-859.65413621626, -790.34091547392, 241.0745477656],
      "ImageType": [
        "ORIGINAL",
        "PRIMARY",
        "M",
        "MB",
        "ND",
        "MOSAIC"
],
      "ImagedNucleus": "1H",
      "ImagingFrequency": 123.25889,
      "InPlanePhaseEncodingDirection": "COL",
      "MRAcquisitionType": "2D",
      "MagneticFieldStrength": 3.0,
      "Manufacturer": "SIEMENS",
      "ManufacturerModelName": "Prisma_fit",
      "Modality": "MR",
      "NumberOfAverages": 1.0,
      "NumberOfPhaseEncodingSteps": 104,
      "PercentPhaseFieldOfView": 100.0,
      "PercentSampling": 100.0,
      "PerformedProcedureStepStartTime": "152744.715000",
      "PhotometricInterpretation": "MONOCHROME2",
      "PixelBandwidth": 2290.0,
      "PixelRepresentation": 0,
      "PixelSpacing": [2.0, 2.0],
      "ProtocolName": "func_task-mario_run-04",
      "RepetitionTime": 1490.0,
      "Rows": 832,
      "SAR": 0.05616617900531,
      "SamplesPerPixel": 1,
      "ScanOptions": "FS",
      "ScanningSequence": "EP",
      "SequenceName": "epfid2d1_104",
      "SequenceVariant": [
        "SK",
        "SS"
],
      "SeriesDescription": "func_task-mario_run-04",
      "SeriesNumber": 19,
      "SeriesTime": "163706.815000",
      "SliceLocation": -37.112358727153,
      "SliceThickness": 2.0,
      "SmallestImagePixelValue": 0,
      "SoftwareVersions": "syngo MR E11",
      "SpacingBetweenSlices": 2.00000004839,
      "SpecificCharacterSet": "ISO_IR 100",
      "StudyID": "1",
      "StudyTime": "152744.640000",
      "TransmitCoilName": "Body",
      "VariableFlipAngleFlag": "N",
      "WindowCenterWidthExplanation": "Algo1",
      "dBdt": 0.0},
    "slices": {}
  },
  "time": {
    "samples": {
      "AcquisitionNumber": [1, 2, 3, 4, 5, 6, 7, 8, 9, 10, 11, 12, 13, 14, 15, 16, 17, 18, 19, 20, 21, 22, 23, 24, 25, 26, 27, 28, 29, 30, 31, 32, 33, 34, 35, 36, 37, 38, 39, 40, 41, 42, 43, 44, 45, 46, 47, 48, 49, 50, 51, 52, 53, 54, 55, 56, 57, 58, 59, 60, 61, 62, 63, 64, 65, 66, 67, 68, 69, 70, 71, 72, 73, 74, 75, 76, 77, 78, 79, 80, 81, 82, 83, 84, 85, 86, 87, 88, 89, 90, 91, 92, 93, 94, 95, 96, 97, 98, 99, 100, 101, 102, 103, 104, 105, 106, 107, 108, 109, 110, 111, 112, 113, 114, 115, 116, 117, 118, 119, 120, 121, 122, 123, 124, 125, 126, 127, 128, 129, 130, 131, 132, 133, 134, 135, 136, 137, 138, 139, 140, 141, 142, 143, 144, 145, 146, 147, 148, 149, 150, 151, 152, 153, 154, 155, 156, 157, 158, 159, 160, 161, 162, 163, 164, 165, 166, 167, 168, 169, 170, 171, 172, 173, 174, 175, 176, 177, 178, 179, 180, 181, 182, 183, 184, 185, 186, 187, 188, 189, 190, 191, 192, 193, 194, 195, 196, 197, 198, 199, 200, 201, 202, 203, 204, 205, 206, 207, 208, 209, 210, 211, 212, 213, 214, 215, 216, 217, 218, 219, 220, 221, 222, 223, 224, 225, 226, 227, 228, 229, 230, 231, 232, 233, 234, 235, 236, 237, 238, 239, 240, 241, 242, 243, 244, 245, 246, 247, 248, 249, 250, 251, 252, 253, 254, 255, 256, 257, 258, 259, 260, 261, 262, 263, 264, 265, 266, 267, 268, 269, 270, 271, 272, 273, 274, 275, 276, 277, 278, 279, 280, 281, 282, 283, 284, 285, 286, 287, 288, 289, 290, 291, 292, 293, 294, 295, 296, 297, 298, 299, 300, 301, 302, 303, 304, 305, 306, 307, 308, 309, 310, 311, 312, 313, 314, 315, 316, 317, 318, 319, 320, 321, 322, 323, 324, 325, 326, 327, 328, 329, 330, 331, 332, 333, 334, 335, 336, 337, 338, 339, 340, 341, 342, 343, 344, 345, 346, 347, 348, 349, 350, 351, 352, 353, 354, 355, 356, 357, 358, 359, 360, 361, 362, 363, 364, 365, 366, 367, 368, 369, 370, 371, 372, 373, 374, 375, 376, 377, 378, 379, 380, 381, 382, 383, 384, 385, 386, 387, 388, 389, 390, 391, 392, 393, 394, 395, 396, 397, 398, 399, 400, 401, 402, 403, 404, 405, 406, 407, 408, 409, 410, 411, 412, 413, 414, 415, 416, 417, 418, 419, 420, 421, 422, 423, 424, 425, 426, 427, 428, 429, 430, 431, 432, 433, 434, 435, 436, 437, 438, 439, 440, 441, 442, 443, 444, 445, 446, 447, 448, 449, 450, 451, 452, 453, 454, 455, 456, 457, 458, 459, 460, 461, 462, 463, 464, 465, 466, 467, 468, 469, 470],
      "AcquisitionTime": ["163551.355000", "163552.845000", "163554.335000", "163555.825000", "163557.315000", "163558.805000", "163600.295000", "163601.785000", "163603.275000", "163604.765000", "163606.255000", "163607.745000", "163609.235000", "163610.725000", "163612.215000", "163613.705000", "163615.195000", "163616.685000", "163618.175000", "163619.665000", "163621.155000", "163622.645000", "163624.135000", "163625.625000", "163627.115000", "163628.605000", "163630.095000", "163631.585000", "163633.075000", "163634.565000", "163636.055000", "163637.545000", "163639.035000", "163640.525000", "163642.015000", "163643.505000", "163644.995000", "163646.485000", "163647.975000", "163649.465000", "163650.955000", "163652.445000", "163653.935000", "163655.425000", "163656.915000", "163658.405000", "163659.895000", "163701.385000", "163702.875000", "163704.365000", "163705.855000", "163707.345000", "163708.835000", "163710.325000", "163711.815000", "163713.305000", "163714.795000", "163716.285000", "163717.775000", "163719.265000", "163720.755000", "163722.245000", "163723.735000", "163725.225000", "163726.715000", "163728.205000", "163729.695000", "163731.185000", "163732.675000", "163734.165000", "163735.655000", "163737.145000", "163738.635000", "163740.125000", "163741.615000", "163743.105000", "163744.595000", "163746.085000", "163747.575000", "163749.065000", "163750.555000", "163752.045000", "163753.535000", "163755.025000", "163756.515000", "163758.005000", "163759.495000", "163800.985000", "163802.475000", "163803.965000", "163805.455000", "163806.945000", "163808.435000", "163809.925000", "163811.415000", "163812.905000", "163814.395000", "163815.885000", "163817.375000", "163818.865000", "163820.355000", "163821.845000", "163823.335000", "163824.825000", "163826.315000", "163827.805000", "163829.295000", "163830.785000", "163832.275000", "163833.765000", "163835.255000", "163836.745000", "163838.235000", "163839.725000", "163841.215000", "163842.705000", "163844.195000", "163845.685000", "163847.175000", "163848.665000", "163850.155000", "163851.645000", "163853.135000", "163854.625000", "163856.115000", "163857.605000", "163859.095000", "163900.585000", "163902.075000", "163903.565000", "163905.055000", "163906.545000", "163908.035000", "163909.525000", "163911.015000", "163912.505000", "163913.995000", "163915.485000", "163916.975000", "163918.465000", "163919.955000", "163921.445000", "163922.935000", "163924.425000", "163925.915000", "163927.405000", "163928.895000", "163930.385000", "163931.875000", "163933.365000", "163934.855000", "163936.345000", "163937.835000", "163939.325000", "163940.815000", "163942.305000", "163943.795000", "163945.285000", "163946.775000", "163948.265000", "163949.755000", "163951.245000", "163952.735000", "163954.225000", "163955.715000", "163957.205000", "163958.695000", "164000.185000", "164001.675000", "164003.165000", "164004.655000", "164006.145000", "164007.635000", "164009.125000", "164010.615000", "164012.105000", "164013.595000", "164015.085000", "164016.575000", "164018.065000", "164019.555000", "164021.045000", "164022.535000", "164024.025000", "164025.515000", "164027.005000", "164028.495000", "164029.985000", "164031.475000", "164032.965000", "164034.455000", "164035.945000", "164037.435000", "164038.925000", "164040.415000", "164041.905000", "164043.395000", "164044.885000", "164046.375000", "164047.865000", "164049.355000", "164050.845000", "164052.335000", "164053.825000", "164055.315000", "164056.805000", "164058.295000", "164059.785000", "164101.275000", "164102.765000", "164104.255000", "164105.745000", "164107.235000", "164108.725000", "164110.215000", "164111.705000", "164113.195000", "164114.685000", "164116.175000", "164117.665000", "164119.155000", "164120.645000", "164122.135000", "164123.625000", "164125.115000", "164126.605000", "164128.095000", "164129.585000", "164131.075000", "164132.565000", "164134.055000", "164135.545000", "164137.035000", "164138.525000", "164140.015000", "164141.505000", "164142.995000", "164144.485000", "164145.975000", "164147.465000", "164148.955000", "164150.445000", "164151.935000", "164153.425000", "164154.915000", "164156.405000", "164157.895000", "164159.385000", "164200.875000", "164202.365000", "164203.855000", "164205.345000", "164206.835000", "164208.325000", "164209.815000", "164211.305000", "164212.795000", "164214.285000", "164215.775000", "164217.265000", "164218.755000", "164220.245000", "164221.735000", "164223.225000", "164224.715000", "164226.205000", "164227.695000", "164229.185000", "164230.675000", "164232.165000", "164233.655000", "164235.145000", "164236.635000", "164238.125000", "164239.615000", "164241.105000", "164242.595000", "164244.085000", "164245.575000", "164247.065000", "164248.555000", "164250.045000", "164251.535000", "164253.025000", "164254.515000", "164256.005000", "164257.495000", "164258.985000", "164300.475000", "164301.965000", "164303.455000", "164304.945000", "164306.435000", "164307.925000", "164309.415000", "164310.905000", "164312.395000", "164313.885000", "164315.375000", "164316.865000", "164318.355000", "164319.845000", "164321.335000", "164322.825000", "164324.315000", "164325.805000", "164327.295000", "164328.785000", "164330.275000", "164331.765000", "164333.255000", "164334.745000", "164336.235000", "164337.725000", "164339.215000", "164340.705000", "164342.195000", "164343.685000", "164345.175000", "164346.665000", "164348.155000", "164349.645000", "164351.135000", "164352.625000", "164354.115000", "164355.605000", "164357.095000", "164358.585000", "164400.075000", "164401.565000", "164403.055000", "164404.545000", "164406.035000", "164407.525000", "164409.015000", "164410.505000", "164411.995000", "164413.485000", "164414.975000", "164416.465000", "164417.955000", "164419.445000", "164420.935000", "164422.425000", "164423.915000", "164425.405000", "164426.895000", "164428.385000", "164429.875000", "164431.365000", "164432.855000", "164434.345000", "164435.835000", "164437.325000", "164438.815000", "164440.305000", "164441.795000", "164443.285000", "164444.775000", "164446.265000", "164447.755000", "164449.245000", "164450.735000", "164452.225000", "164453.715000", "164455.205000", "164456.695000", "164458.185000", "164459.675000", "164501.165000", "164502.655000", "164504.145000", "164505.635000", "164507.125000", "164508.615000", "164510.105000", "164511.595000", "164513.085000", "164514.575000", "164516.065000", "164517.555000", "164519.045000", "164520.535000", "164522.025000", "164523.515000", "164525.005000", "164526.495000", "164527.985000", "164529.475000", "164530.965000", "164532.455000", "164533.945000", "164535.435000", "164536.925000", "164538.415000", "164539.905000", "164541.395000", "164542.885000", "164544.375000", "164545.865000", "164547.355000", "164548.845000", "164550.335000", "164551.825000", "164553.315000", "164554.805000", "164556.295000", "164557.785000", "164559.275000", "164600.765000", "164602.255000", "164603.745000", "164605.235000", "164606.725000", "164608.215000", "164609.705000", "164611.195000", "164612.685000", "164614.175000", "164615.665000", "164617.155000", "164618.645000", "164620.135000", "164621.625000", "164623.115000", "164624.605000", "164626.095000", "164627.585000", "164629.075000", "164630.565000", "164632.055000", "164633.545000", "164635.035000", "164636.525000", "164638.015000", "164639.505000", "164640.995000", "164642.485000", "164643.975000", "164645.465000", "164646.955000", "164648.445000", "164649.935000", "164651.425000", "164652.915000", "164654.405000", "164655.895000", "164657.385000", "164658.875000", "164700.365000", "164701.855000", "164703.345000", "164704.835000", "164706.325000", "164707.815000", "164709.305000", "164710.795000", "164712.285000", "164713.775000", "164715.265000", "164716.755000", "164718.245000", "164719.735000", "164721.225000", "164722.715000", "164724.205000", "164725.695000", "164727.185000", "164728.675000", "164730.165000"],
      "ContentTime": ["163706.818000", "163706.822000", "163706.825000", "163706.829000", "163706.832000", "163706.836000", "163706.839000", "163706.842000", "163706.846000", "163706.849000", "163706.852000", "163706.856000", "163706.859000", "163706.867000", "163706.870000", "163706.874000", "163706.877000", "163706.881000", "163706.885000", "163706.888000", "163706.891000", "163706.895000", "163726.771000", "163726.775000", "163726.778000", "163726.782000", "163726.785000", "163726.788000", "163726.792000", "163726.795000", "163726.798000", "163726.802000", "163726.805000", "163726.808000", "163726.812000", "163726.815000", "163726.819000", "163726.822000", "163726.825000", "163726.828000", "163726.832000", "163726.835000", "163746.771000", "163746.775000", "163746.778000", "163746.782000", "163746.785000", "163746.788000", "163746.795000", "163746.799000", "163746.802000", "163746.805000", "163746.809000", "163746.812000", "163746.816000", "163746.819000", "163746.822000", "163746.826000", "163746.829000", "163746.832000", "163746.836000", "163746.860000", "163806.771000", "163806.775000", "163806.778000", "163806.782000", "163806.785000", "163806.788000", "163806.792000", "163806.795000", "163806.798000", "163806.802000", "163806.805000", "163806.809000", "163806.812000", "163806.815000", "163806.819000", "163806.822000", "163806.825000", "163806.829000", "163806.832000", "163806.836000", "163826.771000", "163826.775000", "163826.778000", "163826.782000", "163826.785000", "163826.789000", "163826.792000", "163826.795000", "163826.799000", "163826.802000", "163826.805000", "163826.809000", "163826.812000", "163826.816000", "163826.819000", "163826.822000", "163826.826000", "163826.829000", "163826.832000", "163826.836000", "163826.839000", "163906.771000", "163906.775000", "163906.778000", "163906.782000", "163906.785000", "163906.789000", "163906.792000", "163906.795000", "163906.799000", "163906.802000", "163906.805000", "163906.809000", "163906.812000", "163906.816000", "163906.819000", "163906.822000", "163906.826000", "163906.829000", "163906.833000", "163906.836000", "163906.840000", "163906.843000", "163906.847000", "163906.850000", "163906.853000", "163906.857000", "163906.860000", "163946.771000", "163946.811000", "163946.815000", "163946.818000", "163946.821000", "163946.825000", "163946.828000", "163946.831000", "163946.835000", "163946.838000", "163946.842000", "163946.845000", "163946.849000", "163946.852000", "163946.855000", "163946.859000", "163946.862000", "163946.865000", "163946.869000", "163946.872000", "163946.876000", "163946.879000", "163946.882000", "163946.885000", "163946.889000", "163946.892000", "163946.896000", "164026.771000", "164026.775000", "164026.795000", "164026.798000", "164026.802000", "164026.805000", "164026.808000", "164026.812000", "164026.815000", "164026.819000", "164026.822000", "164026.825000", "164026.829000", "164026.832000", "164026.836000", "164026.839000", "164026.842000", "164026.846000", "164026.849000", "164026.852000", "164026.856000", "164026.859000", "164026.863000", "164026.866000", "164026.869000", "164026.873000", "164026.876000", "164106.771000", "164106.775000", "164106.779000", "164106.782000", "164106.785000", "164106.789000", "164106.792000", "164106.796000", "164106.799000", "164106.802000", "164106.806000", "164106.809000", "164106.813000", "164106.816000", "164106.819000", "164106.823000", "164106.826000", "164106.829000", "164106.833000", "164106.836000", "164106.840000", "164106.843000", "164106.846000", "164106.850000", "164106.853000", "164106.857000", "164106.860000", "164146.771000", "164146.775000", "164146.778000", "164146.782000", "164146.785000", "164146.789000", "164146.792000", "164146.795000", "164146.799000", "164146.802000", "164146.806000", "164146.809000", "164146.812000", "164146.816000", "164146.819000", "164146.823000", "164146.826000", "164146.829000", "164146.833000", "164146.836000", "164146.840000", "164146.843000", "164146.846000", "164146.850000", "164146.853000", "164146.857000", "164146.860000", "164226.772000", "164226.775000", "164226.779000", "164226.782000", "164226.785000", "164226.789000", "164226.792000", "164226.796000", "164226.799000", "164226.802000", "164226.806000", "164226.809000", "164226.813000", "164226.816000", "164226.819000", "164226.823000", "164226.826000", "164226.830000", "164226.833000", "164226.836000", "164226.840000", "164226.843000", "164226.847000", "164226.850000", "164226.864000", "164226.868000", "164226.871000", "164306.771000", "164306.775000", "164306.778000", "164306.782000", "164306.785000", "164306.789000", "164306.792000", "164306.795000", "164306.799000", "164306.802000", "164306.806000", "164306.809000", "164306.812000", "164306.816000", "164306.819000", "164306.822000", "164306.826000", "164306.829000", "164306.833000", "164306.836000", "164306.840000", "164306.843000", "164306.846000", "164306.850000", "164306.853000", "164306.856000", "164306.860000", "164346.771000", "164346.775000", "164346.778000", "164346.782000", "164346.785000", "164346.789000", "164346.792000", "164346.796000", "164346.799000", "164346.802000", "164346.806000", "164346.810000", "164346.814000", "164346.817000", "164346.821000", "164346.824000", "164346.827000", "164346.831000", "164346.834000", "164346.838000", "164346.841000", "164346.844000", "164346.848000", "164346.851000", "164346.854000", "164346.858000", "164426.774000", "164426.778000", "164426.782000", "164426.785000", "164426.789000", "164426.793000", "164426.797000", "164426.801000", "164426.805000", "164426.809000", "164426.813000", "164426.818000", "164426.822000", "164426.825000", "164426.829000", "164426.832000", "164426.836000", "164426.839000", "164426.843000", "164426.846000", "164426.850000", "164426.853000", "164426.857000", "164426.861000", "164426.864000", "164426.868000", "164426.871000", "164506.772000", "164506.776000", "164506.779000", "164506.783000", "164506.786000", "164506.790000", "164506.793000", "164506.796000", "164506.800000", "164506.803000", "164506.807000", "164506.810000", "164506.814000", "164506.817000", "164506.821000", "164506.824000", "164506.827000", "164506.831000", "164506.835000", "164506.839000", "164506.842000", "164506.845000", "164506.849000", "164506.852000", "164506.856000", "164506.859000", "164506.865000", "164546.771000", "164546.775000", "164546.779000", "164546.782000", "164546.785000", "164546.789000", "164546.792000", "164546.796000", "164546.799000", "164546.802000", "164546.806000", "164546.809000", "164546.812000", "164546.816000", "164546.819000", "164546.823000", "164546.826000", "164546.829000", "164546.833000", "164546.836000", "164546.840000", "164546.843000", "164546.846000", "164546.850000", "164546.853000", "164546.856000", "164546.860000", "164626.777000", "164626.780000", "164626.784000", "164626.787000", "164626.791000", "164626.794000", "164626.798000", "164626.801000", "164626.804000", "164626.808000", "164626.811000", "164626.815000", "164626.818000", "164626.822000", "164626.826000", "164626.830000", "164626.833000", "164626.837000", "164626.840000", "164626.844000", "164626.847000", "164626.850000", "164626.854000", "164626.857000", "164626.861000", "164626.864000", "164626.867000", "164706.771000", "164706.775000", "164706.778000", "164706.782000", "164706.785000", "164706.789000", "164706.792000", "164706.795000", "164706.799000", "164706.813000", "164706.817000", "164706.820000", "164706.824000", "164706.827000", "164706.830000", "164706.834000", "164706.837000", "164706.841000", "164706.844000", "164706.847000", "164706.851000", "164706.854000", "164706.858000", "164706.861000", "164706.864000", "164706.868000", "164706.871000", "164733.338000", "164733.342000", "164733.345000", "164733.349000", "164733.352000", "164733.355000", "164733.359000", "164733.362000", "164733.366000", "164733.369000", "164733.373000", "164733.376000", "164733.379000", "164733.383000", "164733.386000", "164733.389000", "164733.393000"],
