{
  "AcquisitionMatrixPE": 104,
  "AcquisitionNumber": 1,
  "AcquisitionTime": "16:43:51.332500",
  "BandwidthPerPixelPhaseEncode": 17.17,
  "BaseResolution": 104,
  "BodyPartExamined": "BRAIN",
  "CoilCombinationMethod": "Sum of Squares",
  "ConsistencyInfo": "N4_VE11C_LATEST_20160120",
  "ConversionSoftware": "dcm2niix",
  "ConversionSoftwareVersion": "v1.0.20211006",
  "DerivedVendorReportedEchoSpacing": 0.000560011,
  "DeviceSerialNumber": "167006",
  "DwellTime": 2.1e-06,
  "EchoTime": 0.037,
  "EchoTrainLength": 104,
  "EffectiveEchoSpacing": 0.000560011,
  "FlipAngle": 52,
  "HeudiconvVersion": "0.10.0",
  "ImageComments": "Unaliased MB4/PE3/LB",
  "ImageOrientationPatientDICOM": [0.999, 0.00456477, 0.0444699, 0.0193562, 0.852517, -0.52234],
  "ImageOrientationText": "Tra>Cor(-31.5)>Sag(2.3)",
  "ImageType": [
    "ORIGINAL",
    "PRIMARY",
    "M",
    "MB",
    "ND",
    "MOSAIC"
],
  "ImagingFrequency": 123.259,
  "InPlanePhaseEncodingDirectionDICOM": "COL",
  "InstitutionAddress": "Chemin Queen-Mary 4565,Montreal,District,CA,H3W 1W5",
  "InstitutionName": "IUGM",
  "InstitutionalDepartmentName": "Department",
  "MRAcquisitionType": "2D",
  "MagneticFieldStrength": 3,
  "Manufacturer": "Siemens",
  "ManufacturersModelName": "Prisma_fit",
  "MatrixCoilMode": "SENSE",
  "Modality": "MR",
  "MultibandAccelerationFactor": 4,
  "PartialFourier": 1,
  "PatientPosition": "HFS",
  "PercentPhaseFOV": 100,
  "PercentSampling": 100,
  "PhaseEncodingDirection": "j",
  "PhaseEncodingSteps": 104,
  "PhaseResolution": 1,
  "PixelBandwidth": 2290,
  "ProcedureStepDescription": "games^mario",
  "ProtocolName": "func_task-mario_run-05",
  "PulseSequenceDetails": "%CustomerSeq%\\cmrr_mbep2d_bold",
  "ReceiveCoilActiveElements": "HC1-7;NC1,2",
  "ReceiveCoilName": "HeadNeck_64",
  "ReconMatrixPE": 104,
  "RepetitionTime": 1.49,
  "SAR": 0.0511812,
  "ScanOptions": "FS",
  "ScanningSequence": "EP",
  "SequenceName": "epfid2d1_104",
  "SequenceVariant": "SK\\SS",
  "SeriesDescription": "func_task-mario_run-05",
  "SeriesNumber": 22,
  "ShimSetting": [624, -7181, -8866, 263, -5, -165, -35, 20],
  "SliceThickness": 2,
  "SliceTiming": [0, 0.785, 0.0975, 0.8825, 0.1975, 0.98, 0.295, 1.0775, 0.3925, 1.1775, 0.49, 1.275, 0.5875, 1.3725, 0.6875, 0, 0.785, 0.0975, 0.8825, 0.1975, 0.98, 0.295, 1.0775, 0.3925, 1.1775, 0.49, 1.275, 0.5875, 1.3725, 0.6875, 0, 0.785, 0.0975, 0.8825, 0.1975, 0.98, 0.295, 1.0775, 0.3925, 1.1775, 0.49, 1.275, 0.5875, 1.3725, 0.6875, 0, 0.785, 0.0975, 0.8825, 0.1975, 0.98, 0.295, 1.0775, 0.3925, 1.1775, 0.49, 1.275, 0.5875, 1.3725, 0.6875],
  "SoftwareVersions": "syngo MR E11",
  "SpacingBetweenSlices": 2,
  "StationName": "MRC35049",
  "TaskName": "mario",
  "TotalReadoutTime": 0.0576811,
  "TxRefAmp": 278.793,
  "WipMemBlock": "60d07611-548a-4d1a-97ef-c24a6fc068fb||Sequence: R016 ve11c/master r/e634e98; Dec 19 2017 11:00:25 by eja",
  "dcmmeta_affine": [
    [-1.9980006217956543, 0.03871241584420204, 0.08059140294790268, 103.43102264404297],
    [-0.009129537269473076, 1.705034852027893, -1.0453577041625977, -49.04905700683594],
    [0.08893974125385284, 1.0446804761886597, 1.7031536102294922, -98.24993133544922],
    [0.0, 0.0, 0.0, 1.0]
],
  "dcmmeta_reorient_transform": [
    [0.0, -1.0, 0.0, 103.0],
    [1.0, 0.0, 0.0, 0.0],
    [0.0, 0.0, 1.0, 0.0],
    [0.0, 0.0, 0.0, 1.0]
],
  "dcmmeta_shape": [104, 104, 60, 423],
  "dcmmeta_slice_dim": 2,
  "dcmmeta_version": 0.6,
  "global": {
    "const": {
      "AcquisitionMatrix": [104, 0, 0, 104],
      "AngioFlag": "N",
      "BitsAllocated": 16,
      "BitsStored": 16,
      "BodyPartExamined": "BRAIN",
      "Columns": 832,
      "EchoNumbers": 1,
      "EchoTime": 37.0,
      "EchoTrainLength": 104,
      "FlipAngle": 52.0,
      "HighBit": 15,
      "ImageOrientationPatient": [0.99900029708712, 0.00456476881953, 0.04446986963629, 0.01935620838636, 0.85251744650521, -0.5223402536672],
      "ImagePositionPatient": [-848.78193829666, -750.52539036332, 357.2418002608],
      "ImageType": [
        "ORIGINAL",
        "PRIMARY",
        "M",
        "MB",
        "ND",
        "MOSAIC"
],
      "ImagedNucleus": "1H",
      "ImagingFrequency": 123.258896,
      "InPlanePhaseEncodingDirection": "COL",
      "MRAcquisitionType": "2D",
      "MagneticFieldStrength": 3.0,
      "Manufacturer": "SIEMENS",
      "ManufacturerModelName": "Prisma_fit",
      "Modality": "MR",
      "NumberOfAverages": 1.0,
      "NumberOfPhaseEncodingSteps": 104,
      "PercentPhaseFieldOfView": 100.0,
      "PercentSampling": 100.0,
      "PerformedProcedureStepStartTime": "151634.378000",
      "PhotometricInterpretation": "MONOCHROME2",
      "PixelBandwidth": 2290.0,
      "PixelRepresentation": 0,
      "PixelSpacing": [2.0, 2.0],
      "ProtocolName": "func_task-mario_run-05",
      "RepetitionTime": 1490.0,
      "Rows": 832,
      "SAR": 0.05118123415914,
      "SamplesPerPixel": 1,
      "ScanOptions": "FS",
      "ScanningSequence": "EP",
      "SequenceName": "epfid2d1_104",
      "SequenceVariant": [
        "SK",
        "SS"
],
      "SeriesDescription": "func_task-mario_run-05",
      "SeriesNumber": 22,
      "SeriesTime": "164459.562000",
      "SliceLocation": -53.862635410248,
      "SliceThickness": 2.0,
      "SmallestImagePixelValue": 0,
      "SoftwareVersions": "syngo MR E11",
      "SpacingBetweenSlices": 1.9999999648367,
      "SpecificCharacterSet": "ISO_IR 100",
      "StudyID": "1",
      "StudyTime": "151634.299000",
      "TransmitCoilName": "Body",
      "VariableFlipAngleFlag": "N",
      "WindowCenterWidthExplanation": "Algo1",
      "dBdt": 0.0},
    "slices": {}
  },
  "time": {
    "samples": {
      "AcquisitionNumber": [1, 2, 3, 4, 5, 6, 7, 8, 9, 10, 11, 12, 13, 14, 15, 16, 17, 18, 19, 20, 21, 22, 23, 24, 25, 26, 27, 28, 29, 30, 31, 32, 33, 34, 35, 36, 37, 38, 39, 40, 41, 42, 43, 44, 45, 46, 47, 48, 49, 50, 51, 52, 53, 54, 55, 56, 57, 58, 59, 60, 61, 62, 63, 64, 65, 66, 67, 68, 69, 70, 71, 72, 73, 74, 75, 76, 77, 78, 79, 80, 81, 82, 83, 84, 85, 86, 87, 88, 89, 90, 91, 92, 93, 94, 95, 96, 97, 98, 99, 100, 101, 102, 103, 104, 105, 106, 107, 108, 109, 110, 111, 112, 113, 114, 115, 116, 117, 118, 119, 120, 121, 122, 123, 124, 125, 126, 127, 128, 129, 130, 131, 132, 133, 134, 135, 136, 137, 138, 139, 140, 141, 142, 143, 144, 145, 146, 147, 148, 149, 150, 151, 152, 153, 154, 155, 156, 157, 158, 159, 160, 161, 162, 163, 164, 165, 166, 167, 168, 169, 170, 171, 172, 173, 174, 175, 176, 177, 178, 179, 180, 181, 182, 183, 184, 185, 186, 187, 188, 189, 190, 191, 192, 193, 194, 195, 196, 197, 198, 199, 200, 201, 202, 203, 204, 205, 206, 207, 208, 209, 210, 211, 212, 213, 214, 215, 216, 217, 218, 219, 220, 221, 222, 223, 224, 225, 226, 227, 228, 229, 230, 231, 232, 233, 234, 235, 236, 237, 238, 239, 240, 241, 242, 243, 244, 245, 246, 247, 248, 249, 250, 251, 252, 253, 254, 255, 256, 257, 258, 259, 260, 261, 262, 263, 264, 265, 266, 267, 268, 269, 270, 271, 272, 273, 274, 275, 276, 277, 278, 279, 280, 281, 282, 283, 284, 285, 286, 287, 288, 289, 290, 291, 292, 293, 294, 295, 296, 297, 298, 299, 300, 301, 302, 303, 304, 305, 306, 307, 308, 309, 310, 311, 312, 313, 314, 315, 316, 317, 318, 319, 320, 321, 322, 323, 324, 325, 326, 327, 328, 329, 330, 331, 332, 333, 334, 335, 336, 337, 338, 339, 340, 341, 342, 343, 344, 345, 346, 347, 348, 349, 350, 351, 352, 353, 354, 355, 356, 357, 358, 359, 360, 361, 362, 363, 364, 365, 366, 367, 368, 369, 370, 371, 372, 373, 374, 375, 376, 377, 378, 379, 380, 381, 382, 383, 384, 385, 386, 387, 388, 389, 390, 391, 392, 393, 394, 395, 396, 397, 398, 399, 400, 401, 402, 403, 404, 405, 406, 407, 408, 409, 410, 411, 412, 413, 414, 415, 416, 417, 418, 419, 420, 421, 422, 423],
      "AcquisitionTime": ["164351.332500", "164352.822500", "164354.312500", "164355.802500", "164357.292500", "164358.782500", "164400.272500", "164401.762500", "164403.252500", "164404.742500", "164406.232500", "164407.722500", "164409.212500", "164410.702500", "164412.192500", "164413.682500", "164415.172500", "164416.662500", "164418.152500", "164419.642500", "164421.132500", "164422.622500", "164424.112500", "164425.602500", "164427.092500", "164428.582500", "164430.072500", "164431.562500", "164433.052500", "164434.542500", "164436.032500", "164437.522500", "164439.012500", "164440.502500", "164441.992500", "164443.482500", "164444.972500", "164446.462500", "164447.952500", "164449.442500", "164450.932500", "164452.422500", "164453.912500", "164455.402500", "164456.892500", "164458.382500", "164459.872500", "164501.362500", "164502.852500", "164504.342500", "164505.832500", "164507.322500", "164508.812500", "164510.302500", "164511.792500", "164513.282500", "164514.772500", "164516.262500", "164517.752500", "164519.242500", "164520.732500", "164522.222500", "164523.712500", "164525.202500", "164526.692500", "164528.182500", "164529.672500", "164531.162500", "164532.652500", "164534.142500", "164535.632500", "164537.122500", "164538.612500", "164540.102500", "164541.592500", "164543.082500", "164544.572500", "164546.062500", "164547.552500", "164549.042500", "164550.532500", "164552.022500", "164553.512500", "164555.002500", "164556.492500", "164557.982500", "164559.472500", "164600.962500", "164602.452500", "164603.942500", "164605.432500", "164606.922500", "164608.412500", "164609.902500", "164611.392500", "164612.882500", "164614.372500", "164615.862500", "164617.352500", "164618.842500", "164620.332500", "164621.822500", "164623.312500", "164624.802500", "164626.292500", "164627.782500", "164629.272500", "164630.762500", "164632.252500", "164633.742500", "164635.232500", "164636.722500", "164638.212500", "164639.702500", "164641.192500", "164642.682500", "164644.172500", "164645.662500", "164647.152500", "164648.642500", "164650.132500", "164651.622500", "164653.112500", "164654.602500", "164656.092500", "164657.582500", "164659.072500", "164700.562500", "164702.052500", "164703.542500", "164705.032500", "164706.522500", "164708.012500", "164709.502500", "164710.992500", "164712.482500", "164713.972500", "164715.462500", "164716.952500", "164718.442500", "164719.932500", "164721.422500", "164722.912500", "164724.402500", "164725.892500", "164727.382500", "164728.872500", "164730.362500", "164731.852500", "164733.342500", "164734.832500", "164736.322500", "164737.812500", "164739.302500", "164740.792500", "164742.282500", "164743.772500", "164745.262500", "164746.752500", "164748.242500", "164749.732500", "164751.222500", "164752.712500", "164754.202500", "164755.692500", "164757.182500", "164758.672500", "164800.162500", "164801.652500", "164803.142500", "164804.632500", "164806.122500", "164807.612500", "164809.102500", "164810.592500", "164812.082500", "164813.572500", "164815.062500", "164816.552500", "164818.042500", "164819.532500", "164821.022500", "164822.512500", "164824.002500", "164825.492500", "164826.982500", "164828.472500", "164829.962500", "164831.452500", "164832.942500", "164834.432500", "164835.922500", "164837.412500", "164838.902500", "164840.392500", "164841.882500", "164843.372500", "164844.862500", "164846.352500", "164847.842500", "164849.332500", "164850.822500", "164852.312500", "164853.802500", "164855.292500", "164856.782500", "164858.272500", "164859.762500", "164901.252500", "164902.742500", "164904.232500", "164905.722500", "164907.212500", "164908.702500", "164910.192500", "164911.682500", "164913.172500", "164914.662500", "164916.152500", "164917.642500", "164919.132500", "164920.622500", "164922.112500", "164923.602500", "164925.092500", "164926.582500", "164928.072500", "164929.562500", "164931.052500", "164932.542500", "164934.032500", "164935.522500", "164937.012500", "164938.502500", "164939.992500", "164941.482500", "164942.972500", "164944.462500", "164945.952500", "164947.442500", "164948.932500", "164950.422500", "164951.912500", "164953.402500", "164954.892500", "164956.382500", "164957.872500", "164959.362500", "165000.852500", "165002.342500", "165003.832500", "165005.322500", "165006.812500", "165008.302500", "165009.792500", "165011.282500", "165012.772500", "165014.262500", "165015.752500", "165017.242500", "165018.732500", "165020.222500", "165021.712500", "165023.202500", "165024.692500", "165026.182500", "165027.672500", "165029.162500", "165030.652500", "165032.142500", "165033.632500", "165035.122500", "165036.612500", "165038.102500", "165039.592500", "165041.082500", "165042.572500", "165044.062500", "165045.552500", "165047.042500", "165048.532500", "165050.022500", "165051.512500", "165053.002500", "165054.492500", "165055.982500", "165057.472500", "165058.962500", "165100.452500", "165101.942500", "165103.432500", "165104.922500", "165106.412500", "165107.902500", "165109.392500", "165110.882500", "165112.372500", "165113.862500", "165115.352500", "165116.842500", "165118.332500", "165119.822500", "165121.312500", "165122.802500", "165124.292500", "165125.782500", "165127.272500", "165128.762500", "165130.252500", "165131.742500", "165133.232500", "165134.722500", "165136.212500", "165137.702500", "165139.192500", "165140.682500", "165142.172500", "165143.662500", "165145.152500", "165146.642500", "165148.132500", "165149.622500", "165151.112500", "165152.602500", "165154.092500", "165155.582500", "165157.072500", "165158.562500", "165200.052500", "165201.542500", "165203.032500", "165204.522500", "165206.012500", "165207.502500", "165208.992500", "165210.482500", "165211.972500", "165213.462500", "165214.952500", "165216.442500", "165217.932500", "165219.422500", "165220.912500", "165222.402500", "165223.892500", "165225.382500", "165226.872500", "165228.362500", "165229.852500", "165231.342500", "165232.832500", "165234.322500", "165235.812500", "165237.302500", "165238.792500", "165240.282500", "165241.772500", "165243.262500", "165244.752500", "165246.242500", "165247.732500", "165249.222500", "165250.712500", "165252.202500", "165253.692500", "165255.182500", "165256.672500", "165258.162500", "165259.652500", "165301.142500", "165302.632500", "165304.122500", "165305.612500", "165307.102500", "165308.592500", "165310.082500", "165311.572500", "165313.062500", "165314.552500", "165316.042500", "165317.532500", "165319.022500", "165320.512500", "165322.002500", "165323.492500", "165324.982500", "165326.472500", "165327.962500", "165329.452500", "165330.942500", "165332.432500", "165333.922500", "165335.412500", "165336.902500", "165338.392500", "165339.882500", "165341.372500", "165342.862500", "165344.352500", "165345.842500", "165347.332500", "165348.822500", "165350.312500", "165351.802500", "165353.292500", "165354.782500", "165356.272500", "165357.762500", "165359.252500", "165400.742500", "165402.232500", "165403.722500", "165405.212500", "165406.702500", "165408.192500", "165409.682500", "165411.172500", "165412.662500", "165414.152500", "165415.642500", "165417.132500", "165418.622500", "165420.112500"],
      "ContentTime": ["164459.566000", "164459.569000", "164459.581000", "164459.584000", "164459.588000", "164459.597000", "164459.600000", "164459.604000", "164459.607000", "164459.610000", "164459.613000", "164459.617000", "164459.620000", "164519.520000", "164519.524000", "164519.527000", "164519.530000", "164519.534000", "164519.537000", "164519.540000", "164519.544000", "164519.547000", "164519.554000", "164519.557000", "164519.561000", "164519.564000", "164519.567000", "164519.571000", "164519.574000", "164519.577000", "164519.580000", "164519.584000", "164519.587000", "164539.520000", "164539.524000", "164539.527000", "164539.530000", "164539.534000", "164539.537000", "164539.540000", "164539.544000", "164539.547000", "164539.550000", "164539.554000", "164539.557000", "164539.560000", "164539.564000", "164539.567000", "164539.570000", "164539.574000", "164539.577000", "164539.580000", "164539.583000", "164559.520000", "164559.524000", "164559.527000", "164559.531000", "164559.534000", "164559.537000", "164559.541000", "164559.544000", "164559.547000", "164559.551000", "164559.554000", "164559.558000", "164559.561000", "164559.564000", "164559.568000", "164559.571000", "164559.574000", "164559.578000", "164559.581000", "164559.585000", "164619.520000", "164619.530000", "164619.533000", "164619.536000", "164619.540000", "164619.543000", "164619.546000", "164619.550000", "164619.553000", "164619.556000", "164619.560000", "164619.563000", "164619.567000", "164619.570000", "164619.573000", "164619.577000", "164619.580000", "164619.583000", "164619.587000", "164619.590000", "164659.519000", "164659.524000", "164659.527000", "164659.531000", "164659.534000", "164659.538000", "164659.541000", "164659.545000", "164659.548000", "164659.551000", "164659.555000", "164659.568000", "164659.573000", "164659.576000", "164659.580000", "164659.583000", "164659.586000", "164659.590000", "164659.593000", "164659.597000", "164659.600000", "164659.604000", "164659.608000", "164659.611000", "164659.614000", "164659.617000", "164659.621000", "164659.624000", "164659.628000", "164659.631000", "164659.634000", "164659.638000", "164739.520000", "164739.525000", "164739.528000", "164739.532000", "164739.535000", "164739.538000", "164739.542000", "164739.545000", "164739.549000", "164739.552000", "164739.555000", "164739.559000", "164739.562000", "164739.565000", "164739.569000", "164739.572000", "164739.575000", "164739.578000", "164739.582000", "164739.585000", "164739.589000", "164739.592000", "164739.595000", "164739.598000", "164739.602000", "164739.605000", "164739.608000", "164819.520000", "164819.524000", "164819.527000", "164819.531000", "164819.534000", "164819.538000", "164819.541000", "164819.545000", "164819.548000", "164819.552000", "164819.555000", "164819.559000", "164819.562000", "164819.566000", "164819.569000", "164819.574000", "164819.577000", "164819.581000", "164819.586000", "164819.590000", "164819.594000", "164819.598000", "164819.602000", "164819.606000", "164819.610000", "164819.614000", "164819.618000", "164859.520000", "164859.524000", "164859.527000", "164859.531000", "164859.534000", "164859.538000", "164859.541000", "164859.544000", "164859.547000", "164859.551000", "164859.565000", "164859.569000", "164859.572000", "164859.576000", "164859.582000", "164859.586000", "164859.589000", "164859.592000", "164859.596000", "164859.599000", "164859.602000", "164859.606000", "164859.609000", "164859.612000", "164859.616000", "164859.619000", "164859.622000", "164939.520000", "164939.537000", "164939.540000", "164939.544000", "164939.547000", "164939.550000", "164939.554000", "164939.557000", "164939.560000", "164939.564000", "164939.567000", "164939.571000", "164939.574000", "164939.577000", "164939.581000", "164939.584000", "164939.587000", "164939.591000", "164939.594000", "164939.597000", "164939.601000", "164939.604000", "164939.608000", "164939.611000", "164939.614000", "164939.618000", "164939.621000", "165019.520000", "165019.524000", "165019.528000", "165019.531000", "165019.534000", "165019.538000", "165019.541000", "165019.545000", "165019.548000", "165019.551000", "165019.555000", "165019.558000", "165019.561000", "165019.564000", "165019.568000", "165019.571000", "165019.575000", "165019.578000", "165019.581000", "165019.585000", "165019.588000", "165019.591000", "165019.595000", "165019.598000", "165019.601000", "165019.605000", "165059.520000", "165059.524000", "165059.528000", "165059.531000", "165059.534000", "165059.538000", "165059.541000", "165059.545000", "165059.548000", "165059.551000", "165059.555000", "165059.558000", "165059.561000", "165059.565000", "165059.568000", "165059.572000", "165059.575000", "165059.579000", "165059.582000", "165059.585000", "165059.589000", "165059.592000", "165059.596000", "165059.599000", "165059.602000", "165059.606000", "165059.609000", "165139.519000", "165139.523000", "165139.526000", "165139.529000", "165139.533000", "165139.536000", "165139.540000", "165139.543000", "165139.547000", "165139.550000", "165139.553000", "165139.556000", "165139.560000", "165139.563000", "165139.576000", "165139.580000", "165139.583000", "165139.586000", "165139.590000", "165139.593000", "165139.597000", "165139.600000", "165139.603000", "165139.607000", "165139.610000", "165139.613000", "165139.617000", "165219.520000", "165219.532000", "165219.536000", "165219.539000", "165219.542000", "165219.546000", "165219.549000", "165219.553000", "165219.556000", "165219.559000", "165219.563000", "165219.566000", "165219.569000", "165219.573000", "165219.576000", "165219.579000", "165219.583000", "165219.586000", "165219.589000", "165219.592000", "165219.596000", "165219.599000", "165219.602000", "165219.606000", "165219.609000", "165219.612000", "165219.616000", "165239.520000", "165239.524000", "165239.527000", "165239.530000", "165239.534000", "165239.537000", "165239.541000", "165239.550000", "165239.553000", "165239.556000", "165239.560000", "165239.563000", "165239.567000", "165319.520000", "165319.524000", "165319.527000", "165319.531000", "165319.534000", "165319.538000", "165319.541000", "165319.544000", "165319.548000", "165319.551000", "165319.554000", "165319.558000", "165319.561000", "165319.564000", "165319.568000", "165319.571000", "165319.574000", "165319.578000", "165319.581000", "165319.584000", "165319.588000", "165319.591000", "165319.595000", "165319.598000", "165319.601000", "165319.605000", "165319.608000", "165359.519000", "165359.523000", "165359.526000", "165359.543000", "165359.546000", "165359.550000", "165359.553000", "165359.556000", "165359.560000", "165359.563000", "165359.567000", "165359.570000", "165359.573000", "165359.577000", "165359.580000", "165359.583000", "165359.587000", "165359.590000", "165359.594000", "165359.597000", "165359.600000", "165359.603000", "165359.607000", "165359.610000", "165359.613000", "165359.617000", "165359.620000", "165422.702000", "165422.706000", "165422.709000", "165422.712000", "165422.716000", "165422.719000", "165422.722000", "165422.726000", "165422.729000", "165422.732000", "165422.736000", "165422.739000", "165422.742000", "165422.746000", "165422.749000", "165422.752000"],
      "InstanceCreationTime": ["164459.566000", "164459.569000", "164459.581000", "164459.584000", "164459.588000", "164459.597000", "164459.600000", "164459.604000", "164459.607000", "164459.610000", "164459.613000", "164459.617000", "164459.620000", "164519.520000", "164519.524000", "164519.527000", "164519.530000", "164519.534000", "164519.537000", "164519.540000", "164519.544000", "164519.547000", "164519.554000", "164519.557000", "164519.561000", "164519.564000", "164519.567000", "164519.571000", "164519.574000", "164519.577000", "164519.580000", "164519.584000", "164519.587000", "164539.520000", "164539.524000", "164539.527000", "164539.530000", "164539.534000", "164539.537000", "164539.540000", "164539.544000", "164539.547000", "164539.550000", "164539.554000", "164539.557000", "164539.560000", "164539.564000", "164539.567000", "164539.570000", "164539.574000", "164539.577000", "164539.580000", "164539.583000", "164559.520000", "164559.524000", "164559.527000", "164559.531000", "164559.534000", "164559.537000", "164559.541000", "164559.544000", "164559.547000", "164559.551000", "164559.554000", "164559.558000", "164559.561000", "164559.564000", "164559.568000", "164559.571000", "164559.574000", "164559.578000", "164559.581000", "164559.585000", "164619.520000", "164619.530000", "164619.533000", "164619.536000", "164619.540000", "164619.543000", "164619.546000", "164619.550000", "164619.553000", "164619.556000", "164619.560000", "164619.563000", "164619.567000", "164619.570000", "164619.573000", "164619.577000", "164619.580000", "164619.583000", "164619.587000", "164619.590000", "164659.519000", "164659.524000", "164659.527000", "164659.531000", "164659.534000", "164659.538000", "164659.541000", "164659.545000", "164659.548000", "164659.551000", "164659.555000", "164659.568000", "164659.573000", "164659.576000", "164659.580000", "164659.583000", "164659.586000", "164659.590000", "164659.593000", "164659.597000", "164659.600000", "164659.604000", "164659.608000", "164659.611000", "164659.614000", "164659.617000", "164659.621000", "164659.624000", "164659.628000", "164659.631000", "164659.634000", "164659.638000", "164739.520000", "164739.525000", "164739.528000", "164739.532000", "164739.535000", "164739.538000", "164739.542000", "164739.545000", "164739.549000", "164739.552000", "164739.555000", "164739.559000", "164739.562000", "164739.565000", "164739.569000", "164739.572000", "164739.575000", "164739.578000", "164739.582000", "164739.585000", "164739.589000", "164739.592000", "164739.595000", "164739.598000", "164739.602000", "164739.605000", "164739.608000", "164819.520000", "164819.524000", "164819.527000", "164819.531000", "164819.534000", "164819.538000", "164819.541000", "164819.545000", "164819.548000", "164819.552000", "164819.555000", "164819.559000", "164819.562000", "164819.566000", "164819.569000", "164819.574000", "164819.577000", "164819.581000", "164819.586000", "164819.590000", "164819.594000", "164819.598000", "164819.602000", "164819.606000", "164819.610000", "164819.614000", "164819.618000", "164859.520000", "164859.524000", "164859.527000", "164859.531000", "164859.534000", "164859.538000", "164859.541000", "164859.544000", "164859.547000", "164859.551000", "164859.565000", "164859.569000", "164859.572000", "164859.576000", "164859.582000", "164859.586000", "164859.589000", "164859.592000", "164859.596000", "164859.599000", "164859.602000", "164859.606000", "164859.609000", "164859.612000", "164859.616000", "164859.619000", "164859.622000", "164939.520000", "164939.537000", "164939.540000", "164939.544000", "164939.547000", "164939.550000", "164939.554000", "164939.557000", "164939.560000", "164939.564000", "164939.567000", "164939.571000", "164939.574000", "164939.577000", "164939.581000", "164939.584000", "164939.587000", "164939.591000", "164939.594000", "164939.597000", "164939.601000", "164939.604000", "164939.608000", "164939.611000", "164939.614000", "164939.618000", "164939.621000", "165019.520000", "165019.524000", "165019.528000", "165019.531000", "165019.534000", "165019.538000", "165019.541000", "165019.545000", "165019.548000", "165019.551000", "165019.555000", "165019.558000", "165019.561000", "165019.564000", "165019.568000", "165019.571000", "165019.575000", "165019.578000", "165019.581000", "165019.585000", "165019.588000", "165019.591000", "165019.595000", "165019.598000", "165019.601000", "165019.605000", "165059.520000", "165059.524000", "165059.528000", "165059.531000", "165059.534000", "165059.538000", "165059.541000", "165059.545000", "165059.548000", "165059.551000", "165059.555000", "165059.558000", "165059.561000", "165059.565000", "165059.568000", "165059.572000", "165059.575000", "165059.579000", "165059.582000", "165059.585000", "165059.589000", "165059.592000", "165059.596000", "165059.599000", "165059.602000", "165059.606000", "165059.609000", "165139.519000", "165139.523000", "165139.526000", "165139.529000", "165139.533000", "165139.536000", "165139.540000", "165139.543000", "165139.547000", "165139.550000", "165139.553000", "165139.556000", "165139.560000", "165139.563000", "165139.576000", "165139.580000", "165139.583000", "165139.586000", "165139.590000", "165139.593000", "165139.597000", "165139.600000", "165139.603000", "165139.607000", "165139.610000", "165139.613000", "165139.617000", "165219.520000", "165219.532000", "165219.536000", "165219.539000", "165219.542000", "165219.546000", "165219.549000", "165219.553000", "165219.556000", "165219.559000", "165219.563000", "165219.566000", "165219.569000", "165219.573000", "165219.576000", "165219.579000", "165219.583000", "165219.586000", "165219.589000", "165219.592000", "165219.596000", "165219.599000", "165219.602000", "165219.606000", "165219.609000", "165219.612000", "165219.616000", "165239.520000", "165239.524000", "165239.527000", "165239.530000", "165239.534000", "165239.537000", "165239.541000", "165239.550000", "165239.553000", "165239.556000", "165239.560000", "165239.563000", "165239.567000", "165319.520000", "165319.524000", "165319.527000", "165319.531000", "165319.534000", "165319.538000", "165319.541000", "165319.544000", "165319.548000", "165319.551000", "165319.554000", "165319.558000", "165319.561000", "165319.564000", "165319.568000", "165319.571000", "165319.574000", "165319.578000", "165319.581000", "165319.584000", "165319.588000", "165319.591000", "165319.595000", "165319.598000", "165319.601000", "165319.605000", "165319.608000", "165359.519000", "165359.523000", "165359.526000", "165359.543000", "165359.546000", "165359.550000", "165359.553000", "165359.556000", "165359.560000", "165359.563000", "165359.567000", "165359.570000", "165359.573000", "165359.577000", "165359.580000", "165359.583000", "165359.587000", "165359.590000", "165359.594000", "165359.597000", "165359.600000", "165359.603000", "165359.607000", "165359.610000", "165359.613000", "165359.617000", "165359.620000", "165422.702000", "165422.706000", "165422.709000", "165422.712000", "165422.716000", "165422.719000", "165422.722000", "165422.726000", "165422.729000", "165422.732000", "165422.736000", "165422.739000", "165422.742000", "165422.746000", "165422.749000", "165422.752000"],
