{
  "AcquisitionMatrixPE": 104,
  "AcquisitionNumber": 1,
  "AcquisitionTime": "16:13:48.417500",
  "BandwidthPerPixelPhaseEncode": 17.17,
  "BaseResolution": 104,
  "BodyPartExamined": "BRAIN",
  "CoilCombinationMethod": "Sum of Squares",
  "ConsistencyInfo": "N4_VE11C_LATEST_20160120",
  "ConversionSoftware": "dcm2niix",
  "ConversionSoftwareVersion": "v1.0.20211006",
  "DerivedVendorReportedEchoSpacing": 0.000560011,
  "DeviceSerialNumber": "167006",
  "DwellTime": 2.1e-06,
  "EchoTime": 0.037,
  "EchoTime1": 0.037,
  "EchoTime2": 0.001,
  "EchoTrainLength": 104,
  "EffectiveEchoSpacing": 0.000560011,
  "FlipAngle": 52,
  "HeudiconvVersion": "0.10.0",
  "ImageComments": "Unaliased MB4/PE3/LB",
  "ImageOrientationPatientDICOM": [0.999, 0.00456477, 0.0444699, 0.0193562, 0.852517, -0.52234],
  "ImageOrientationText": "Tra>Cor(-31.5)>Sag(2.3)",
  "ImageType": [
    "ORIGINAL",
    "PRIMARY",
    "P",
    "MB",
    "ND",
    "MOSAIC",
    "PHASE"
],
  "ImagingFrequency": 123.259,
  "InPlanePhaseEncodingDirectionDICOM": "COL",
  "InstitutionAddress": "Chemin Queen-Mary 4565,Montreal,District,CA,H3W 1W5",
  "InstitutionName": "IUGM",
  "InstitutionalDepartmentName": "Department",
  "MRAcquisitionType": "2D",
  "MagneticFieldStrength": 3,
  "Manufacturer": "Siemens",
  "ManufacturersModelName": "Prisma_fit",
  "MatrixCoilMode": "SENSE",
  "Modality": "MR",
  "MultibandAccelerationFactor": 4,
  "PartialFourier": 1,
  "PatientPosition": "HFS",
  "PercentPhaseFOV": 100,
  "PercentSampling": 100,
  "PhaseEncodingDirection": "j",
  "PhaseEncodingSteps": 104,
  "PhaseResolution": 1,
  "PixelBandwidth": 2290,
  "ProcedureStepDescription": "games^mario",
  "ProtocolName": "func_task-mario_run-03",
  "PulseSequenceDetails": "%CustomerSeq%\\cmrr_mbep2d_bold",
  "ReceiveCoilActiveElements": "HC1-7;NC1,2",
  "ReceiveCoilName": "HeadNeck_64",
  "ReconMatrixPE": 104,
  "RepetitionTime": 1.49,
  "SAR": 0.0511812,
  "ScanOptions": "FS",
  "ScanningSequence": "EP",
  "SequenceName": "epfid2d1_104",
  "SequenceVariant": "SK\\SS",
  "SeriesDescription": "func_task-mario_run-03",
  "SeriesNumber": 17,
  "ShimSetting": [624, -7181, -8866, 263, -5, -165, -35, 20],
  "SliceThickness": 2,
  "SliceTiming": [0, 0.785, 0.1, 0.8825, 0.1975, 0.98, 0.295, 1.0775, 0.3925, 1.1775, 0.49, 1.275, 0.5875, 1.3725, 0.6875, 0, 0.785, 0.1, 0.8825, 0.1975, 0.98, 0.295, 1.0775, 0.3925, 1.1775, 0.49, 1.275, 0.5875, 1.3725, 0.6875, 0, 0.785, 0.1, 0.8825, 0.1975, 0.98, 0.295, 1.0775, 0.3925, 1.1775, 0.49, 1.275, 0.5875, 1.3725, 0.6875, 0, 0.785, 0.1, 0.8825, 0.1975, 0.98, 0.295, 1.0775, 0.3925, 1.1775, 0.49, 1.275, 0.5875, 1.3725, 0.6875],
  "SoftwareVersions": "syngo MR E11",
  "SpacingBetweenSlices": 2,
  "StationName": "MRC35049",
  "TaskName": "mario",
  "TotalReadoutTime": 0.0576811,
  "TxRefAmp": 278.793,
  "WipMemBlock": "8ead5db1-91d1-4da9-a786-79cfe1873889||Sequence: R016 ve11c/master r/e634e98; Dec 19 2017 11:00:25 by eja",
  "dcmmeta_affine": [
    [-1.9980006217956543, 0.03871241584420204, 0.08059140294790268, 103.43102264404297],
    [-0.009129537269473076, 1.705034852027893, -1.0453577041625977, -49.04905700683594],
    [0.08893974125385284, 1.0446804761886597, 1.7031536102294922, -98.24993133544922],
    [0.0, 0.0, 0.0, 1.0]
],
  "dcmmeta_reorient_transform": [
    [0.0, -1.0, 0.0, 103.0],
    [1.0, 0.0, 0.0, 0.0],
    [0.0, 0.0, 1.0, 0.0],
    [0.0, 0.0, 0.0, 1.0]
],
  "dcmmeta_shape": [104, 104, 60, 472],
  "dcmmeta_slice_dim": 2,
  "dcmmeta_version": 0.6,
  "global": {
    "const": {
      "AcquisitionMatrix": [104, 0, 0, 104],
      "AngioFlag": "N",
      "BitsAllocated": 16,
      "BitsStored": 16,
      "BodyPartExamined": "BRAIN",
      "Columns": 832,
      "EchoNumbers": 1,
      "EchoTime": 37.0,
      "EchoTrainLength": 104,
      "FlipAngle": 52.0,
      "HighBit": 15,
      "ImageOrientationPatient": [0.99900029708712, 0.00456476881953, 0.04446986963629, 0.01935620838636, 0.85251744650521, -0.5223402536672],
      "ImagePositionPatient": [-848.78193829666, -750.52539036332, 357.2418002608],
      "ImageType": [
        "ORIGINAL",
        "PRIMARY",
        "P",
        "MB",
        "ND",
        "MOSAIC"
],
      "ImagedNucleus": "1H",
      "ImagingFrequency": 123.25889,
      "InPlanePhaseEncodingDirection": "COL",
      "LargestImagePixelValue": 4095,
      "MRAcquisitionType": "2D",
      "MagneticFieldStrength": 3.0,
      "Manufacturer": "SIEMENS",
      "ManufacturerModelName": "Prisma_fit",
      "Modality": "MR",
      "NumberOfAverages": 1.0,
      "NumberOfPhaseEncodingSteps": 104,
      "PercentPhaseFieldOfView": 100.0,
      "PercentSampling": 100.0,
      "PerformedProcedureStepStartTime": "151634.378000",
      "PhotometricInterpretation": "MONOCHROME2",
      "PixelBandwidth": 2290.0,
      "PixelRepresentation": 0,
      "PixelSpacing": [2.0, 2.0],
      "ProtocolName": "func_task-mario_run-03",
      "RepetitionTime": 1490.0,
      "RescaleIntercept": -4096.0,
      "RescaleSlope": 2.0,
      "RescaleType": "US",
      "Rows": 832,
      "SAR": 0.05118123415914,
      "SamplesPerPixel": 1,
      "ScanOptions": "FS",
      "ScanningSequence": "EP",
      "SequenceName": "epfid2d1_104",
      "SequenceVariant": [
        "SK",
        "SS"
],
      "SeriesDescription": "func_task-mario_run-03",
      "SeriesNumber": 17,
      "SeriesTime": "161448.393000",
      "SliceLocation": -53.862635410248,
      "SliceThickness": 2.0,
      "SmallestImagePixelValue": 0,
      "SoftwareVersions": "syngo MR E11",
      "SpacingBetweenSlices": 1.9999999648367,
      "SpecificCharacterSet": "ISO_IR 100",
      "StudyID": "1",
      "StudyTime": "151634.299000",
      "TransmitCoilName": "Body",
      "VariableFlipAngleFlag": "N",
      "WindowCenterWidthExplanation": "Algo1",
      "dBdt": 0.0},
    "slices": {}
  },
  "time": {
    "samples": {
      "AcquisitionNumber": [1, 2, 3, 4, 5, 6, 7, 8, 9, 10, 11, 12, 13, 14, 15, 16, 17, 18, 19, 20, 21, 22, 23, 24, 25, 26, 27, 28, 29, 30, 31, 32, 33, 34, 35, 36, 37, 38, 39, 40, 41, 42, 43, 44, 45, 46, 47, 48, 49, 50, 51, 52, 53, 54, 55, 56, 57, 58, 59, 60, 61, 62, 63, 64, 65, 66, 67, 68, 69, 70, 71, 72, 73, 74, 75, 76, 77, 78, 79, 80, 81, 82, 83, 84, 85, 86, 87, 88, 89, 90, 91, 92, 93, 94, 95, 96, 97, 98, 99, 100, 101, 102, 103, 104, 105, 106, 107, 108, 109, 110, 111, 112, 113, 114, 115, 116, 117, 118, 119, 120, 121, 122, 123, 124, 125, 126, 127, 128, 129, 130, 131, 132, 133, 134, 135, 136, 137, 138, 139, 140, 141, 142, 143, 144, 145, 146, 147, 148, 149, 150, 151, 152, 153, 154, 155, 156, 157, 158, 159, 160, 161, 162, 163, 164, 165, 166, 167, 168, 169, 170, 171, 172, 173, 174, 175, 176, 177, 178, 179, 180, 181, 182, 183, 184, 185, 186, 187, 188, 189, 190, 191, 192, 193, 194, 195, 196, 197, 198, 199, 200, 201, 202, 203, 204, 205, 206, 207, 208, 209, 210, 211, 212, 213, 214, 215, 216, 217, 218, 219, 220, 221, 222, 223, 224, 225, 226, 227, 228, 229, 230, 231, 232, 233, 234, 235, 236, 237, 238, 239, 240, 241, 242, 243, 244, 245, 246, 247, 248, 249, 250, 251, 252, 253, 254, 255, 256, 257, 258, 259, 260, 261, 262, 263, 264, 265, 266, 267, 268, 269, 270, 271, 272, 273, 274, 275, 276, 277, 278, 279, 280, 281, 282, 283, 284, 285, 286, 287, 288, 289, 290, 291, 292, 293, 294, 295, 296, 297, 298, 299, 300, 301, 302, 303, 304, 305, 306, 307, 308, 309, 310, 311, 312, 313, 314, 315, 316, 317, 318, 319, 320, 321, 322, 323, 324, 325, 326, 327, 328, 329, 330, 331, 332, 333, 334, 335, 336, 337, 338, 339, 340, 341, 342, 343, 344, 345, 346, 347, 348, 349, 350, 351, 352, 353, 354, 355, 356, 357, 358, 359, 360, 361, 362, 363, 364, 365, 366, 367, 368, 369, 370, 371, 372, 373, 374, 375, 376, 377, 378, 379, 380, 381, 382, 383, 384, 385, 386, 387, 388, 389, 390, 391, 392, 393, 394, 395, 396, 397, 398, 399, 400, 401, 402, 403, 404, 405, 406, 407, 408, 409, 410, 411, 412, 413, 414, 415, 416, 417, 418, 419, 420, 421, 422, 423, 424, 425, 426, 427, 428, 429, 430, 431, 432, 433, 434, 435, 436, 437, 438, 439, 440, 441, 442, 443, 444, 445, 446, 447, 448, 449, 450, 451, 452, 453, 454, 455, 456, 457, 458, 459, 460, 461, 462, 463, 464, 465, 466, 467, 468, 469, 470, 471, 472],
      "AcquisitionTime": ["161348.417500", "161349.907500", "161351.397500", "161352.887500", "161354.377500", "161355.867500", "161357.357500", "161358.847500", "161400.337500", "161401.827500", "161403.317500", "161404.807500", "161406.297500", "161407.787500", "161409.277500", "161410.767500", "161412.257500", "161413.747500", "161415.237500", "161416.727500", "161418.217500", "161419.707500", "161421.197500", "161422.687500", "161424.177500", "161425.667500", "161427.157500", "161428.647500", "161430.137500", "161431.627500", "161433.117500", "161434.607500", "161436.097500", "161437.587500", "161439.077500", "161440.567500", "161442.057500", "161443.547500", "161445.037500", "161446.527500", "161448.017500", "161449.507500", "161450.997500", "161452.487500", "161453.977500", "161455.467500", "161456.957500", "161458.447500", "161459.937500", "161501.427500", "161502.917500", "161504.407500", "161505.897500", "161507.387500", "161508.877500", "161510.367500", "161511.857500", "161513.347500", "161514.837500", "161516.327500", "161517.817500", "161519.307500", "161520.797500", "161522.287500", "161523.777500", "161525.267500", "161526.757500", "161528.247500", "161529.737500", "161531.227500", "161532.717500", "161534.207500", "161535.697500", "161537.187500", "161538.677500", "161540.167500", "161541.657500", "161543.147500", "161544.637500", "161546.127500", "161547.617500", "161549.107500", "161550.597500", "161552.087500", "161553.577500", "161555.067500", "161556.557500", "161558.047500", "161559.537500", "161601.027500", "161602.517500", "161604.007500", "161605.497500", "161606.987500", "161608.477500", "161609.967500", "161611.457500", "161612.947500", "161614.437500", "161615.927500", "161617.417500", "161618.907500", "161620.397500", "161621.887500", "161623.377500", "161624.867500", "161626.357500", "161627.847500", "161629.337500", "161630.827500", "161632.317500", "161633.807500", "161635.297500", "161636.787500", "161638.277500", "161639.767500", "161641.257500", "161642.747500", "161644.237500", "161645.727500", "161647.217500", "161648.707500", "161650.197500", "161651.687500", "161653.177500", "161654.667500", "161656.157500", "161657.647500", "161659.137500", "161700.627500", "161702.117500", "161703.607500", "161705.097500", "161706.587500", "161708.077500", "161709.567500", "161711.057500", "161712.547500", "161714.037500", "161715.527500", "161717.017500", "161718.507500", "161719.997500", "161721.487500", "161722.977500", "161724.467500", "161725.957500", "161727.447500", "161728.937500", "161730.427500", "161731.917500", "161733.407500", "161734.897500", "161736.387500", "161737.877500", "161739.367500", "161740.857500", "161742.347500", "161743.837500", "161745.327500", "161746.817500", "161748.307500", "161749.797500", "161751.287500", "161752.777500", "161754.267500", "161755.757500", "161757.247500", "161758.737500", "161800.227500", "161801.717500", "161803.207500", "161804.697500", "161806.187500", "161807.677500", "161809.167500", "161810.657500", "161812.147500", "161813.637500", "161815.127500", "161816.617500", "161818.107500", "161819.597500", "161821.087500", "161822.577500", "161824.067500", "161825.557500", "161827.047500", "161828.537500", "161830.027500", "161831.517500", "161833.007500", "161834.497500", "161835.987500", "161837.477500", "161838.967500", "161840.457500", "161841.947500", "161843.437500", "161844.927500", "161846.417500", "161847.907500", "161849.397500", "161850.887500", "161852.377500", "161853.867500", "161855.357500", "161856.847500", "161858.337500", "161859.827500", "161901.317500", "161902.807500", "161904.297500", "161905.787500", "161907.277500", "161908.767500", "161910.257500", "161911.747500", "161913.237500", "161914.727500", "161916.217500", "161917.707500", "161919.197500", "161920.687500", "161922.177500", "161923.667500", "161925.157500", "161926.647500", "161928.137500", "161929.627500", "161931.117500", "161932.607500", "161934.097500", "161935.587500", "161937.077500", "161938.567500", "161940.057500", "161941.547500", "161943.037500", "161944.527500", "161946.017500", "161947.507500", "161948.997500", "161950.487500", "161951.977500", "161953.467500", "161954.957500", "161956.447500", "161957.937500", "161959.427500", "162000.917500", "162002.407500", "162003.897500", "162005.387500", "162006.877500", "162008.367500", "162009.857500", "162011.347500", "162012.837500", "162014.327500", "162015.817500", "162017.307500", "162018.797500", "162020.287500", "162021.777500", "162023.267500", "162024.757500", "162026.247500", "162027.737500", "162029.227500", "162030.717500", "162032.207500", "162033.697500", "162035.187500", "162036.677500", "162038.167500", "162039.657500", "162041.147500", "162042.637500", "162044.127500", "162045.617500", "162047.107500", "162048.597500", "162050.087500", "162051.577500", "162053.067500", "162054.557500", "162056.047500", "162057.537500", "162059.027500", "162100.517500", "162102.007500", "162103.497500", "162104.987500", "162106.477500", "162107.967500", "162109.457500", "162110.947500", "162112.437500", "162113.927500", "162115.417500", "162116.907500", "162118.397500", "162119.887500", "162121.377500", "162122.867500", "162124.357500", "162125.847500", "162127.337500", "162128.827500", "162130.317500", "162131.807500", "162133.297500", "162134.787500", "162136.277500", "162137.767500", "162139.257500", "162140.747500", "162142.237500", "162143.727500", "162145.217500", "162146.707500", "162148.197500", "162149.687500", "162151.177500", "162152.667500", "162154.157500", "162155.647500", "162157.137500", "162158.627500", "162200.117500", "162201.607500", "162203.097500", "162204.587500", "162206.077500", "162207.567500", "162209.057500", "162210.547500", "162212.037500", "162213.527500", "162215.017500", "162216.507500", "162217.997500", "162219.487500", "162220.977500", "162222.467500", "162223.957500", "162225.447500", "162226.937500", "162228.427500", "162229.917500", "162231.407500", "162232.897500", "162234.387500", "162235.877500", "162237.367500", "162238.857500", "162240.347500", "162241.837500", "162243.327500", "162244.817500", "162246.307500", "162247.797500", "162249.287500", "162250.777500", "162252.267500", "162253.757500", "162255.247500", "162256.737500", "162258.227500", "162259.717500", "162301.207500", "162302.697500", "162304.187500", "162305.677500", "162307.167500", "162308.657500", "162310.147500", "162311.637500", "162313.127500", "162314.617500", "162316.107500", "162317.597500", "162319.087500", "162320.577500", "162322.067500", "162323.557500", "162325.047500", "162326.537500", "162328.027500", "162329.517500", "162331.007500", "162332.497500", "162333.987500", "162335.477500", "162336.967500", "162338.457500", "162339.947500", "162341.437500", "162342.927500", "162344.417500", "162345.907500", "162347.397500", "162348.887500", "162350.377500", "162351.867500", "162353.357500", "162354.847500", "162356.337500", "162357.827500", "162359.317500", "162400.807500", "162402.297500", "162403.787500", "162405.277500", "162406.767500", "162408.257500", "162409.747500", "162411.237500", "162412.727500", "162414.217500", "162415.707500", "162417.197500", "162418.687500", "162420.177500", "162421.667500", "162423.157500", "162424.647500", "162426.137500", "162427.627500", "162429.117500", "162430.607500", "162432.097500", "162433.587500", "162435.077500", "162436.567500", "162438.057500", "162439.547500", "162441.037500", "162442.527500", "162444.017500", "162445.507500", "162446.997500", "162448.487500", "162449.977500", "162451.467500", "162452.957500", "162454.447500", "162455.937500", "162457.427500", "162458.917500", "162500.407500", "162501.897500", "162503.387500", "162504.877500", "162506.367500", "162507.857500", "162509.347500", "162510.837500", "162512.327500", "162513.817500", "162515.307500", "162516.797500", "162518.287500", "162519.777500", "162521.267500", "162522.757500", "162524.247500", "162525.737500", "162527.227500", "162528.717500", "162530.207500"],
      "ContentTime": ["161448.396000", "161448.398000", "161448.401000", "161448.403000", "161508.434000", "161508.446000", "161508.448000", "161508.451000", "161508.453000", "161508.455000", "161508.458000", "161508.460000", "161508.463000", "161508.465000", "161508.468000", "161508.470000", "161508.473000", "161508.475000", "161508.478000", "161508.480000", "161508.482000", "161508.485000", "161508.487000", "161508.490000", "161508.492000", "161528.416000", "161528.419000", "161528.422000", "161528.424000", "161528.427000", "161528.429000", "161528.431000", "161528.434000", "161528.436000", "161528.439000", "161528.441000", "161528.444000", "161528.446000", "161528.449000", "161528.451000", "161528.454000", "161528.456000", "161528.459000", "161528.461000", "161528.464000", "161548.420000", "161548.423000", "161548.425000", "161548.428000", "161548.430000", "161548.433000", "161548.440000", "161548.443000", "161548.445000", "161548.448000", "161548.450000", "161548.453000", "161548.455000", "161548.457000", "161548.460000", "161548.462000", "161548.465000", "161548.467000", "161548.470000", "161548.472000", "161608.420000", "161608.423000", "161608.434000", "161608.437000", "161608.439000", "161608.442000", "161608.444000", "161608.447000", "161608.449000", "161608.452000", "161608.454000", "161608.457000", "161608.459000", "161608.462000", "161608.464000", "161608.467000", "161608.469000", "161608.471000", "161608.474000", "161608.476000", "161628.773000", "161628.776000", "161628.778000", "161628.781000", "161628.783000", "161628.786000", "161628.788000", "161628.791000", "161628.793000", "161628.796000", "161628.798000", "161628.801000", "161628.803000", "161628.806000", "161628.808000", "161628.810000", "161628.813000", "161628.815000", "161628.818000", "161628.820000", "161628.823000", "161708.461000", "161708.464000", "161708.466000", "161708.469000", "161708.471000", "161708.474000", "161708.476000", "161708.479000", "161708.481000", "161708.484000", "161708.486000", "161708.489000", "161708.491000", "161708.494000", "161708.496000", "161708.498000", "161708.501000", "161708.503000", "161708.506000", "161708.508000", "161708.511000", "161708.513000", "161708.516000", "161708.518000", "161708.521000", "161708.523000", "161708.526000", "161748.457000", "161748.460000", "161748.462000", "161748.465000", "161748.467000", "161748.470000", "161748.472000", "161748.475000", "161748.477000", "161748.480000", "161748.482000", "161748.485000", "161748.487000", "161748.490000", "161748.492000", "161748.495000", "161748.498000", "161748.500000", "161748.503000", "161748.505000", "161748.508000", "161748.510000", "161748.513000", "161748.515000", "161748.518000", "161748.520000", "161748.522000", "161828.443000", "161828.446000", "161828.448000", "161828.451000", "161828.453000", "161828.455000", "161828.458000", "161828.460000", "161828.463000", "161828.465000", "161828.468000", "161828.470000", "161828.473000", "161828.476000", "161828.478000", "161828.480000", "161828.483000", "161828.485000", "161828.488000", "161828.490000", "161828.493000", "161828.495000", "161828.498000", "161828.500000", "161828.503000", "161828.505000", "161828.508000", "161908.439000", "161908.442000", "161908.444000", "161908.447000", "161908.449000", "161908.452000", "161908.454000", "161908.457000", "161908.459000", "161908.462000", "161908.464000", "161908.467000", "161908.469000", "161908.472000", "161908.475000", "161908.477000", "161908.479000", "161908.482000", "161908.484000", "161908.487000", "161908.489000", "161908.492000", "161908.494000", "161908.497000", "161908.499000", "161908.502000", "161908.504000", "161948.435000", "161948.438000", "161948.440000", "161948.443000", "161948.445000", "161948.448000", "161948.450000", "161948.453000", "161948.455000", "161948.458000", "161948.460000", "161948.463000", "161948.465000", "161948.468000", "161948.470000", "161948.473000", "161948.475000", "161948.478000", "161948.480000", "161948.483000", "161948.485000", "161948.488000", "161948.490000", "161948.493000", "161948.495000", "161948.498000", "161948.500000", "162028.448000", "162028.451000", "162028.454000", "162028.456000", "162028.459000", "162028.461000", "162028.464000", "162028.466000", "162028.468000", "162028.471000", "162028.473000", "162028.476000", "162028.478000", "162028.481000", "162028.483000", "162028.486000", "162028.488000", "162028.491000", "162028.493000", "162028.496000", "162028.498000", "162028.501000", "162028.503000", "162028.506000", "162028.508000", "162028.511000", "162108.446000", "162108.449000", "162108.452000", "162108.454000", "162108.456000", "162108.459000", "162108.461000", "162108.464000", "162108.466000", "162108.469000", "162108.471000", "162108.474000", "162108.476000", "162108.479000", "162108.481000", "162108.484000", "162108.486000", "162108.489000", "162108.491000", "162108.494000", "162108.496000", "162108.499000", "162108.502000", "162108.504000", "162108.506000", "162108.509000", "162108.512000", "162148.443000", "162148.445000", "162148.448000", "162148.450000", "162148.453000", "162148.455000", "162148.458000", "162148.460000", "162148.463000", "162148.466000", "162148.468000", "162148.470000", "162148.473000", "162148.476000", "162148.478000", "162148.481000", "162148.483000", "162148.486000", "162148.488000", "162148.491000", "162148.493000", "162148.496000", "162148.498000", "162148.501000", "162148.503000", "162148.506000", "162148.508000", "162228.451000", "162228.454000", "162228.456000", "162228.459000", "162228.462000", "162228.464000", "162228.466000", "162228.469000", "162228.471000", "162228.474000", "162228.476000", "162228.479000", "162228.481000", "162228.484000", "162228.486000", "162228.489000", "162228.491000", "162228.494000", "162228.496000", "162228.499000", "162228.501000", "162228.504000", "162228.506000", "162228.509000", "162228.511000", "162228.514000", "162228.516000", "162308.442000", "162308.445000", "162308.448000", "162308.450000", "162308.453000", "162308.455000", "162308.457000", "162308.460000", "162308.462000", "162308.465000", "162308.467000", "162308.470000", "162308.472000", "162308.475000", "162308.477000", "162308.480000", "162308.482000", "162308.485000", "162308.487000", "162308.490000", "162308.492000", "162308.495000", "162308.497000", "162308.500000", "162308.502000", "162308.505000", "162308.507000", "162348.445000", "162348.448000", "162348.450000", "162348.453000", "162348.455000", "162348.457000", "162348.460000", "162348.462000", "162348.465000", "162348.467000", "162348.470000", "162348.472000", "162348.475000", "162348.477000", "162348.480000", "162348.482000", "162348.485000", "162348.487000", "162348.490000", "162348.492000", "162348.495000", "162348.497000", "162348.500000", "162348.502000", "162348.505000", "162348.507000", "162348.510000", "162428.452000", "162428.454000", "162428.457000", "162428.459000", "162428.462000", "162428.464000", "162428.467000", "162428.469000", "162428.472000", "162428.474000", "162428.477000", "162428.479000", "162428.482000", "162428.484000", "162428.487000", "162428.489000", "162428.492000", "162428.494000", "162428.497000", "162428.499000", "162428.502000", "162428.505000", "162428.507000", "162428.510000", "162428.512000", "162428.515000", "162428.527000", "162508.431000", "162508.434000", "162508.436000", "162508.439000", "162508.441000", "162508.444000", "162508.447000", "162508.450000", "162508.452000", "162508.455000", "162508.457000", "162508.460000", "162508.463000", "162508.466000", "162508.469000", "162508.471000", "162508.474000", "162508.477000", "162508.480000", "162508.483000", "162508.485000", "162508.488000", "162508.490000", "162508.493000", "162508.495000", "162508.498000", "162532.481000", "162532.484000", "162532.486000", "162532.489000", "162532.491000", "162532.494000", "162532.496000", "162532.499000", "162532.501000", "162532.504000", "162532.506000", "162532.509000", "162532.511000", "162532.514000", "162532.516000", "162532.519000", "162532.521000"],
