{
  "AcquisitionMatrixPE": 104,
  "AcquisitionNumber": 1,
  "AcquisitionTime": "16:13:48.417500",
  "BandwidthPerPixelPhaseEncode": 17.17,
  "BaseResolution": 104,
  "BodyPartExamined": "BRAIN",
  "CoilCombinationMethod": "Sum of Squares",
  "ConsistencyInfo": "N4_VE11C_LATEST_20160120",
  "ConversionSoftware": "dcm2niix",
  "ConversionSoftwareVersion": "v1.0.20211006",
  "DerivedVendorReportedEchoSpacing": 0.000560011,
  "DeviceSerialNumber": "167006",
  "DwellTime": 2.1e-06,
  "EchoTime": 0.037,
  "EchoTrainLength": 104,
  "EffectiveEchoSpacing": 0.000560011,
  "FlipAngle": 52,
  "HeudiconvVersion": "0.10.0",
  "ImageComments": "Unaliased MB4/PE3/LB",
  "ImageOrientationPatientDICOM": [0.999, 0.00456477, 0.0444699, 0.0193562, 0.852517, -0.52234],
  "ImageOrientationText": "Tra>Cor(-31.5)>Sag(2.3)",
  "ImageType": [
    "ORIGINAL",
    "PRIMARY",
    "M",
    "MB",
    "ND",
    "MOSAIC"
],
  "ImagingFrequency": 123.259,
  "InPlanePhaseEncodingDirectionDICOM": "COL",
  "InstitutionAddress": "Chemin Queen-Mary 4565,Montreal,District,CA,H3W 1W5",
  "InstitutionName": "IUGM",
  "InstitutionalDepartmentName": "Department",
  "MRAcquisitionType": "2D",
  "MagneticFieldStrength": 3,
  "Manufacturer": "Siemens",
  "ManufacturersModelName": "Prisma_fit",
  "MatrixCoilMode": "SENSE",
  "Modality": "MR",
  "MultibandAccelerationFactor": 4,
  "PartialFourier": 1,
  "PatientPosition": "HFS",
  "PercentPhaseFOV": 100,
  "PercentSampling": 100,
  "PhaseEncodingDirection": "j",
  "PhaseEncodingSteps": 104,
  "PhaseResolution": 1,
  "PixelBandwidth": 2290,
  "ProcedureStepDescription": "games^mario",
  "ProtocolName": "func_task-mario_run-03",
  "PulseSequenceDetails": "%CustomerSeq%\\cmrr_mbep2d_bold",
  "ReceiveCoilActiveElements": "HC1-7;NC1,2",
  "ReceiveCoilName": "HeadNeck_64",
  "ReconMatrixPE": 104,
  "RepetitionTime": 1.49,
  "SAR": 0.0511812,
  "ScanOptions": "FS",
  "ScanningSequence": "EP",
  "SequenceName": "epfid2d1_104",
  "SequenceVariant": "SK\\SS",
  "SeriesDescription": "func_task-mario_run-03",
  "SeriesNumber": 16,
  "ShimSetting": [624, -7181, -8866, 263, -5, -165, -35, 20],
  "SliceThickness": 2,
  "SliceTiming": [0, 0.785, 0.1, 0.8825, 0.1975, 0.98, 0.295, 1.0775, 0.3925, 1.1775, 0.49, 1.275, 0.5875, 1.3725, 0.6875, 0, 0.785, 0.1, 0.8825, 0.1975, 0.98, 0.295, 1.0775, 0.3925, 1.1775, 0.49, 1.275, 0.5875, 1.3725, 0.6875, 0, 0.785, 0.1, 0.8825, 0.1975, 0.98, 0.295, 1.0775, 0.3925, 1.1775, 0.49, 1.275, 0.5875, 1.3725, 0.6875, 0, 0.785, 0.1, 0.8825, 0.1975, 0.98, 0.295, 1.0775, 0.3925, 1.1775, 0.49, 1.275, 0.5875, 1.3725, 0.6875],
  "SoftwareVersions": "syngo MR E11",
  "SpacingBetweenSlices": 2,
  "StationName": "MRC35049",
  "TaskName": "mario",
  "TotalReadoutTime": 0.0576811,
  "TxRefAmp": 278.793,
  "WipMemBlock": "8ead5db1-91d1-4da9-a786-79cfe1873889||Sequence: R016 ve11c/master r/e634e98; Dec 19 2017 11:00:25 by eja",
  "dcmmeta_affine": [
    [-1.9980006217956543, 0.03871241584420204, 0.08059140294790268, 103.43102264404297],
    [-0.009129537269473076, 1.705034852027893, -1.0453577041625977, -49.04905700683594],
    [0.08893974125385284, 1.0446804761886597, 1.7031536102294922, -98.24993133544922],
    [0.0, 0.0, 0.0, 1.0]
],
  "dcmmeta_reorient_transform": [
    [0.0, -1.0, 0.0, 103.0],
    [1.0, 0.0, 0.0, 0.0],
    [0.0, 0.0, 1.0, 0.0],
    [0.0, 0.0, 0.0, 1.0]
],
  "dcmmeta_shape": [104, 104, 60, 472],
  "dcmmeta_slice_dim": 2,
  "dcmmeta_version": 0.6,
  "global": {
    "const": {
      "AcquisitionMatrix": [104, 0, 0, 104],
      "AngioFlag": "N",
      "BitsAllocated": 16,
      "BitsStored": 16,
      "BodyPartExamined": "BRAIN",
      "Columns": 832,
      "EchoNumbers": 1,
      "EchoTime": 37.0,
      "EchoTrainLength": 104,
      "FlipAngle": 52.0,
      "HighBit": 15,
      "ImageOrientationPatient": [0.99900029708712, 0.00456476881953, 0.04446986963629, 0.01935620838636, 0.85251744650521, -0.5223402536672],
      "ImagePositionPatient": [-848.78193829666, -750.52539036332, 357.2418002608],
      "ImageType": [
        "ORIGINAL",
        "PRIMARY",
        "M",
        "MB",
        "ND",
        "MOSAIC"
],
      "ImagedNucleus": "1H",
      "ImagingFrequency": 123.25889,
      "InPlanePhaseEncodingDirection": "COL",
      "MRAcquisitionType": "2D",
      "MagneticFieldStrength": 3.0,
      "Manufacturer": "SIEMENS",
      "ManufacturerModelName": "Prisma_fit",
      "Modality": "MR",
      "NumberOfAverages": 1.0,
      "NumberOfPhaseEncodingSteps": 104,
      "PercentPhaseFieldOfView": 100.0,
      "PercentSampling": 100.0,
      "PerformedProcedureStepStartTime": "151634.378000",
      "PhotometricInterpretation": "MONOCHROME2",
      "PixelBandwidth": 2290.0,
      "PixelRepresentation": 0,
      "PixelSpacing": [2.0, 2.0],
      "ProtocolName": "func_task-mario_run-03",
      "RepetitionTime": 1490.0,
      "Rows": 832,
      "SAR": 0.05118123415914,
      "SamplesPerPixel": 1,
      "ScanOptions": "FS",
      "ScanningSequence": "EP",
      "SequenceName": "epfid2d1_104",
      "SequenceVariant": [
        "SK",
        "SS"
],
      "SeriesDescription": "func_task-mario_run-03",
      "SeriesNumber": 16,
      "SeriesTime": "161448.343000",
      "SliceLocation": -53.862635410248,
      "SliceThickness": 2.0,
      "SmallestImagePixelValue": 0,
      "SoftwareVersions": "syngo MR E11",
      "SpacingBetweenSlices": 1.9999999648367,
      "SpecificCharacterSet": "ISO_IR 100",
      "StudyID": "1",
      "StudyTime": "151634.299000",
      "TransmitCoilName": "Body",
      "VariableFlipAngleFlag": "N",
      "WindowCenterWidthExplanation": "Algo1",
      "dBdt": 0.0},
    "slices": {}
  },
  "time": {
    "samples": {
      "AcquisitionNumber": [1, 2, 3, 4, 5, 6, 7, 8, 9, 10, 11, 12, 13, 14, 15, 16, 17, 18, 19, 20, 21, 22, 23, 24, 25, 26, 27, 28, 29, 30, 31, 32, 33, 34, 35, 36, 37, 38, 39, 40, 41, 42, 43, 44, 45, 46, 47, 48, 49, 50, 51, 52, 53, 54, 55, 56, 57, 58, 59, 60, 61, 62, 63, 64, 65, 66, 67, 68, 69, 70, 71, 72, 73, 74, 75, 76, 77, 78, 79, 80, 81, 82, 83, 84, 85, 86, 87, 88, 89, 90, 91, 92, 93, 94, 95, 96, 97, 98, 99, 100, 101, 102, 103, 104, 105, 106, 107, 108, 109, 110, 111, 112, 113, 114, 115, 116, 117, 118, 119, 120, 121, 122, 123, 124, 125, 126, 127, 128, 129, 130, 131, 132, 133, 134, 135, 136, 137, 138, 139, 140, 141, 142, 143, 144, 145, 146, 147, 148, 149, 150, 151, 152, 153, 154, 155, 156, 157, 158, 159, 160, 161, 162, 163, 164, 165, 166, 167, 168, 169, 170, 171, 172, 173, 174, 175, 176, 177, 178, 179, 180, 181, 182, 183, 184, 185, 186, 187, 188, 189, 190, 191, 192, 193, 194, 195, 196, 197, 198, 199, 200, 201, 202, 203, 204, 205, 206, 207, 208, 209, 210, 211, 212, 213, 214, 215, 216, 217, 218, 219, 220, 221, 222, 223, 224, 225, 226, 227, 228, 229, 230, 231, 232, 233, 234, 235, 236, 237, 238, 239, 240, 241, 242, 243, 244, 245, 246, 247, 248, 249, 250, 251, 252, 253, 254, 255, 256, 257, 258, 259, 260, 261, 262, 263, 264, 265, 266, 267, 268, 269, 270, 271, 272, 273, 274, 275, 276, 277, 278, 279, 280, 281, 282, 283, 284, 285, 286, 287, 288, 289, 290, 291, 292, 293, 294, 295, 296, 297, 298, 299, 300, 301, 302, 303, 304, 305, 306, 307, 308, 309, 310, 311, 312, 313, 314, 315, 316, 317, 318, 319, 320, 321, 322, 323, 324, 325, 326, 327, 328, 329, 330, 331, 332, 333, 334, 335, 336, 337, 338, 339, 340, 341, 342, 343, 344, 345, 346, 347, 348, 349, 350, 351, 352, 353, 354, 355, 356, 357, 358, 359, 360, 361, 362, 363, 364, 365, 366, 367, 368, 369, 370, 371, 372, 373, 374, 375, 376, 377, 378, 379, 380, 381, 382, 383, 384, 385, 386, 387, 388, 389, 390, 391, 392, 393, 394, 395, 396, 397, 398, 399, 400, 401, 402, 403, 404, 405, 406, 407, 408, 409, 410, 411, 412, 413, 414, 415, 416, 417, 418, 419, 420, 421, 422, 423, 424, 425, 426, 427, 428, 429, 430, 431, 432, 433, 434, 435, 436, 437, 438, 439, 440, 441, 442, 443, 444, 445, 446, 447, 448, 449, 450, 451, 452, 453, 454, 455, 456, 457, 458, 459, 460, 461, 462, 463, 464, 465, 466, 467, 468, 469, 470, 471, 472],
      "AcquisitionTime": ["161348.417500", "161349.907500", "161351.397500", "161352.887500", "161354.377500", "161355.867500", "161357.357500", "161358.847500", "161400.337500", "161401.827500", "161403.317500", "161404.807500", "161406.297500", "161407.787500", "161409.277500", "161410.767500", "161412.257500", "161413.747500", "161415.237500", "161416.727500", "161418.217500", "161419.707500", "161421.197500", "161422.687500", "161424.177500", "161425.667500", "161427.157500", "161428.647500", "161430.137500", "161431.627500", "161433.117500", "161434.607500", "161436.097500", "161437.587500", "161439.077500", "161440.567500", "161442.057500", "161443.547500", "161445.037500", "161446.527500", "161448.017500", "161449.507500", "161450.997500", "161452.487500", "161453.977500", "161455.467500", "161456.957500", "161458.447500", "161459.937500", "161501.427500", "161502.917500", "161504.407500", "161505.897500", "161507.387500", "161508.877500", "161510.367500", "161511.857500", "161513.347500", "161514.837500", "161516.327500", "161517.817500", "161519.307500", "161520.797500", "161522.287500", "161523.777500", "161525.267500", "161526.757500", "161528.247500", "161529.737500", "161531.227500", "161532.717500", "161534.207500", "161535.697500", "161537.187500", "161538.677500", "161540.167500", "161541.657500", "161543.147500", "161544.637500", "161546.127500", "161547.617500", "161549.107500", "161550.597500", "161552.087500", "161553.577500", "161555.067500", "161556.557500", "161558.047500", "161559.537500", "161601.027500", "161602.517500", "161604.007500", "161605.497500", "161606.987500", "161608.477500", "161609.967500", "161611.457500", "161612.947500", "161614.437500", "161615.927500", "161617.417500", "161618.907500", "161620.397500", "161621.887500", "161623.377500", "161624.867500", "161626.357500", "161627.847500", "161629.337500", "161630.827500", "161632.317500", "161633.807500", "161635.297500", "161636.787500", "161638.277500", "161639.767500", "161641.257500", "161642.747500", "161644.237500", "161645.727500", "161647.217500", "161648.707500", "161650.197500", "161651.687500", "161653.177500", "161654.667500", "161656.157500", "161657.647500", "161659.137500", "161700.627500", "161702.117500", "161703.607500", "161705.097500", "161706.587500", "161708.077500", "161709.567500", "161711.057500", "161712.547500", "161714.037500", "161715.527500", "161717.017500", "161718.507500", "161719.997500", "161721.487500", "161722.977500", "161724.467500", "161725.957500", "161727.447500", "161728.937500", "161730.427500", "161731.917500", "161733.407500", "161734.897500", "161736.387500", "161737.877500", "161739.367500", "161740.857500", "161742.347500", "161743.837500", "161745.327500", "161746.817500", "161748.307500", "161749.797500", "161751.287500", "161752.777500", "161754.267500", "161755.757500", "161757.247500", "161758.737500", "161800.227500", "161801.717500", "161803.207500", "161804.697500", "161806.187500", "161807.677500", "161809.167500", "161810.657500", "161812.147500", "161813.637500", "161815.127500", "161816.617500", "161818.107500", "161819.597500", "161821.087500", "161822.577500", "161824.067500", "161825.557500", "161827.047500", "161828.537500", "161830.027500", "161831.517500", "161833.007500", "161834.497500", "161835.987500", "161837.477500", "161838.967500", "161840.457500", "161841.947500", "161843.437500", "161844.927500", "161846.417500", "161847.907500", "161849.397500", "161850.887500", "161852.377500", "161853.867500", "161855.357500", "161856.847500", "161858.337500", "161859.827500", "161901.317500", "161902.807500", "161904.297500", "161905.787500", "161907.277500", "161908.767500", "161910.257500", "161911.747500", "161913.237500", "161914.727500", "161916.217500", "161917.707500", "161919.197500", "161920.687500", "161922.177500", "161923.667500", "161925.157500", "161926.647500", "161928.137500", "161929.627500", "161931.117500", "161932.607500", "161934.097500", "161935.587500", "161937.077500", "161938.567500", "161940.057500", "161941.547500", "161943.037500", "161944.527500", "161946.017500", "161947.507500", "161948.997500", "161950.487500", "161951.977500", "161953.467500", "161954.957500", "161956.447500", "161957.937500", "161959.427500", "162000.917500", "162002.407500", "162003.897500", "162005.387500", "162006.877500", "162008.367500", "162009.857500", "162011.347500", "162012.837500", "162014.327500", "162015.817500", "162017.307500", "162018.797500", "162020.287500", "162021.777500", "162023.267500", "162024.757500", "162026.247500", "162027.737500", "162029.227500", "162030.717500", "162032.207500", "162033.697500", "162035.187500", "162036.677500", "162038.167500", "162039.657500", "162041.147500", "162042.637500", "162044.127500", "162045.617500", "162047.107500", "162048.597500", "162050.087500", "162051.577500", "162053.067500", "162054.557500", "162056.047500", "162057.537500", "162059.027500", "162100.517500", "162102.007500", "162103.497500", "162104.987500", "162106.477500", "162107.967500", "162109.457500", "162110.947500", "162112.437500", "162113.927500", "162115.417500", "162116.907500", "162118.397500", "162119.887500", "162121.377500", "162122.867500", "162124.357500", "162125.847500", "162127.337500", "162128.827500", "162130.317500", "162131.807500", "162133.297500", "162134.787500", "162136.277500", "162137.767500", "162139.257500", "162140.747500", "162142.237500", "162143.727500", "162145.217500", "162146.707500", "162148.197500", "162149.687500", "162151.177500", "162152.667500", "162154.157500", "162155.647500", "162157.137500", "162158.627500", "162200.117500", "162201.607500", "162203.097500", "162204.587500", "162206.077500", "162207.567500", "162209.057500", "162210.547500", "162212.037500", "162213.527500", "162215.017500", "162216.507500", "162217.997500", "162219.487500", "162220.977500", "162222.467500", "162223.957500", "162225.447500", "162226.937500", "162228.427500", "162229.917500", "162231.407500", "162232.897500", "162234.387500", "162235.877500", "162237.367500", "162238.857500", "162240.347500", "162241.837500", "162243.327500", "162244.817500", "162246.307500", "162247.797500", "162249.287500", "162250.777500", "162252.267500", "162253.757500", "162255.247500", "162256.737500", "162258.227500", "162259.717500", "162301.207500", "162302.697500", "162304.187500", "162305.677500", "162307.167500", "162308.657500", "162310.147500", "162311.637500", "162313.127500", "162314.617500", "162316.107500", "162317.597500", "162319.087500", "162320.577500", "162322.067500", "162323.557500", "162325.047500", "162326.537500", "162328.027500", "162329.517500", "162331.007500", "162332.497500", "162333.987500", "162335.477500", "162336.967500", "162338.457500", "162339.947500", "162341.437500", "162342.927500", "162344.417500", "162345.907500", "162347.397500", "162348.887500", "162350.377500", "162351.867500", "162353.357500", "162354.847500", "162356.337500", "162357.827500", "162359.317500", "162400.807500", "162402.297500", "162403.787500", "162405.277500", "162406.767500", "162408.257500", "162409.747500", "162411.237500", "162412.727500", "162414.217500", "162415.707500", "162417.197500", "162418.687500", "162420.177500", "162421.667500", "162423.157500", "162424.647500", "162426.137500", "162427.627500", "162429.117500", "162430.607500", "162432.097500", "162433.587500", "162435.077500", "162436.567500", "162438.057500", "162439.547500", "162441.037500", "162442.527500", "162444.017500", "162445.507500", "162446.997500", "162448.487500", "162449.977500", "162451.467500", "162452.957500", "162454.447500", "162455.937500", "162457.427500", "162458.917500", "162500.407500", "162501.897500", "162503.387500", "162504.877500", "162506.367500", "162507.857500", "162509.347500", "162510.837500", "162512.327500", "162513.817500", "162515.307500", "162516.797500", "162518.287500", "162519.777500", "162521.267500", "162522.757500", "162524.247500", "162525.737500", "162527.227500", "162528.717500", "162530.207500"],
      "ContentTime": ["161448.346000", "161448.349000", "161448.353000", "161448.365000", "161508.308000", "161508.312000", "161508.315000", "161508.318000", "161508.321000", "161508.325000", "161508.328000", "161508.331000", "161508.334000", "161508.338000", "161508.341000", "161508.344000", "161508.347000", "161508.351000", "161508.354000", "161508.357000", "161508.360000", "161508.364000", "161508.367000", "161508.370000", "161508.373000", "161528.308000", "161528.312000", "161528.315000", "161528.318000", "161528.321000", "161528.325000", "161528.328000", "161528.331000", "161528.334000", "161528.338000", "161528.341000", "161528.344000", "161528.353000", "161528.356000", "161528.359000", "161528.362000", "161528.366000", "161528.369000", "161528.372000", "161528.376000", "161548.307000", "161548.311000", "161548.314000", "161548.317000", "161548.320000", "161548.324000", "161548.340000", "161548.343000", "161548.346000", "161548.350000", "161548.353000", "161548.356000", "161548.359000", "161548.363000", "161548.366000", "161548.369000", "161548.373000", "161548.376000", "161548.379000", "161548.382000", "161608.308000", "161608.312000", "161608.315000", "161608.318000", "161608.321000", "161608.325000", "161608.328000", "161608.331000", "161608.335000", "161608.338000", "161608.341000", "161608.345000", "161608.348000", "161608.352000", "161608.355000", "161608.359000", "161608.365000", "161608.368000", "161608.372000", "161608.375000", "161628.308000", "161628.312000", "161628.316000", "161628.319000", "161628.323000", "161628.326000", "161628.330000", "161628.333000", "161628.336000", "161628.339000", "161628.343000", "161628.346000", "161628.349000", "161628.353000", "161628.356000", "161628.359000", "161628.362000", "161628.366000", "161628.369000", "161628.372000", "161628.376000", "161708.308000", "161708.312000", "161708.315000", "161708.318000", "161708.322000", "161708.325000", "161708.328000", "161708.332000", "161708.335000", "161708.338000", "161708.341000", "161708.345000", "161708.348000", "161708.351000", "161708.354000", "161708.358000", "161708.361000", "161708.364000", "161708.368000", "161708.385000", "161708.389000", "161708.392000", "161708.395000", "161708.399000", "161708.402000", "161708.405000", "161708.408000", "161748.308000", "161748.312000", "161748.315000", "161748.318000", "161748.322000", "161748.325000", "161748.328000", "161748.332000", "161748.335000", "161748.338000", "161748.342000", "161748.345000", "161748.348000", "161748.352000", "161748.355000", "161748.358000", "161748.362000", "161748.376000", "161748.379000", "161748.382000", "161748.385000", "161748.389000", "161748.392000", "161748.395000", "161748.398000", "161748.402000", "161748.405000", "161828.308000", "161828.312000", "161828.315000", "161828.319000", "161828.322000", "161828.325000", "161828.328000", "161828.332000", "161828.335000", "161828.338000", "161828.342000", "161828.345000", "161828.348000", "161828.352000", "161828.355000", "161828.358000", "161828.362000", "161828.365000", "161828.369000", "161828.372000", "161828.375000", "161828.379000", "161828.382000", "161828.385000", "161828.388000", "161828.392000", "161828.395000", "161908.308000", "161908.312000", "161908.315000", "161908.318000", "161908.322000", "161908.325000", "161908.328000", "161908.331000", "161908.335000", "161908.338000", "161908.341000", "161908.345000", "161908.348000", "161908.351000", "161908.354000", "161908.358000", "161908.361000", "161908.364000", "161908.368000", "161908.371000", "161908.374000", "161908.377000", "161908.381000", "161908.384000", "161908.387000", "161908.391000", "161908.394000", "161948.308000", "161948.312000", "161948.315000", "161948.318000", "161948.321000", "161948.325000", "161948.328000", "161948.331000", "161948.335000", "161948.338000", "161948.341000", "161948.344000", "161948.348000", "161948.351000", "161948.354000", "161948.358000", "161948.361000", "161948.364000", "161948.367000", "161948.371000", "161948.374000", "161948.377000", "161948.380000", "161948.384000", "161948.387000", "161948.390000", "161948.394000", "162028.307000", "162028.311000", "162028.314000", "162028.317000", "162028.321000", "162028.324000", "162028.327000", "162028.331000", "162028.334000", "162028.338000", "162028.341000", "162028.345000", "162028.349000", "162028.353000", "162028.358000", "162028.362000", "162028.366000", "162028.376000", "162028.379000", "162028.383000", "162028.386000", "162028.390000", "162028.393000", "162028.396000", "162028.400000", "162028.403000", "162108.308000", "162108.312000", "162108.315000", "162108.319000", "162108.322000", "162108.325000", "162108.329000", "162108.332000", "162108.335000", "162108.339000", "162108.342000", "162108.345000", "162108.348000", "162108.352000", "162108.355000", "162108.358000", "162108.362000", "162108.365000", "162108.368000", "162108.371000", "162108.375000", "162108.378000", "162108.382000", "162108.385000", "162108.388000", "162108.392000", "162108.395000", "162148.308000", "162148.312000", "162148.315000", "162148.318000", "162148.322000", "162148.325000", "162148.328000", "162148.332000", "162148.335000", "162148.338000", "162148.342000", "162148.345000", "162148.348000", "162148.352000", "162148.355000", "162148.358000", "162148.361000", "162148.365000", "162148.368000", "162148.371000", "162148.375000", "162148.378000", "162148.381000", "162148.384000", "162148.388000", "162148.391000", "162148.394000", "162228.307000", "162228.311000", "162228.314000", "162228.318000", "162228.321000", "162228.325000", "162228.328000", "162228.331000", "162228.334000", "162228.338000", "162228.341000", "162228.358000", "162228.361000", "162228.364000", "162228.368000", "162228.371000", "162228.374000", "162228.377000", "162228.381000", "162228.384000", "162228.387000", "162228.390000", "162228.394000", "162228.397000", "162228.400000", "162228.404000", "162228.407000", "162308.308000", "162308.312000", "162308.315000", "162308.319000", "162308.322000", "162308.325000", "162308.329000", "162308.332000", "162308.335000", "162308.338000", "162308.342000", "162308.345000", "162308.348000", "162308.352000", "162308.355000", "162308.358000", "162308.361000", "162308.365000", "162308.370000", "162308.373000", "162308.376000", "162308.380000", "162308.383000", "162308.386000", "162308.389000", "162308.393000", "162308.396000", "162348.308000", "162348.312000", "162348.315000", "162348.318000", "162348.322000", "162348.325000", "162348.328000", "162348.331000", "162348.335000", "162348.338000", "162348.341000", "162348.345000", "162348.348000", "162348.351000", "162348.354000", "162348.358000", "162348.361000", "162348.364000", "162348.368000", "162348.371000", "162348.374000", "162348.378000", "162348.381000", "162348.384000", "162348.387000", "162348.391000", "162348.394000", "162428.308000", "162428.312000", "162428.315000", "162428.319000", "162428.322000", "162428.325000", "162428.329000", "162428.332000", "162428.335000", "162428.339000", "162428.342000", "162428.345000", "162428.348000", "162428.352000", "162428.355000", "162428.358000", "162428.362000", "162428.365000", "162428.368000", "162428.372000", "162428.375000", "162428.378000", "162428.381000", "162428.396000", "162428.399000", "162428.402000", "162428.406000", "162508.307000", "162508.311000", "162508.314000", "162508.317000", "162508.321000", "162508.325000", "162508.328000", "162508.332000", "162508.335000", "162508.338000", "162508.342000", "162508.345000", "162508.348000", "162508.351000", "162508.355000", "162508.358000", "162508.361000", "162508.365000", "162508.368000", "162508.371000", "162508.374000", "162508.378000", "162508.381000", "162508.385000", "162508.388000", "162508.391000", "162532.376000", "162532.380000", "162532.384000", "162532.387000", "162532.390000", "162532.394000", "162532.397000", "162532.400000", "162532.404000", "162532.407000", "162532.410000", "162532.413000", "162532.417000", "162532.420000", "162532.423000", "162532.426000", "162532.430000"],
