{
  "AcquisitionMatrixPE": 104,
  "AcquisitionNumber": 1,
  "AcquisitionTime": "16:26:55.095000",
  "BandwidthPerPixelPhaseEncode": 17.17,
  "BaseResolution": 104,
  "BodyPartExamined": "BRAIN",
  "CoilCombinationMethod": "Sum of Squares",
  "ConsistencyInfo": "N4_VE11C_LATEST_20160120",
  "ConversionSoftware": "dcm2niix",
  "ConversionSoftwareVersion": "v1.0.20211006",
  "DerivedVendorReportedEchoSpacing": 0.000560011,
  "DeviceSerialNumber": "167006",
  "DwellTime": 2.1e-06,
  "EchoTime": 0.037,
  "EchoTrainLength": 104,
  "EffectiveEchoSpacing": 0.000560011,
  "FlipAngle": 52,
  "HeudiconvVersion": "0.10.0",
  "ImageComments": "Unaliased MB4/PE3/LB",
  "ImageOrientationPatientDICOM": [0.999, 0.00456477, 0.0444699, 0.0193562, 0.852517, -0.52234],
  "ImageOrientationText": "Tra>Cor(-31.5)>Sag(2.3)",
  "ImageType": [
    "ORIGINAL",
    "PRIMARY",
    "M",
    "MB",
    "ND",
    "MOSAIC"
],
  "ImagingFrequency": 123.259,
  "InPlanePhaseEncodingDirectionDICOM": "COL",
  "InstitutionAddress": "Chemin Queen-Mary 4565,Montreal,District,CA,H3W 1W5",
  "InstitutionName": "IUGM",
  "InstitutionalDepartmentName": "Department",
  "MRAcquisitionType": "2D",
  "MagneticFieldStrength": 3,
  "Manufacturer": "Siemens",
  "ManufacturersModelName": "Prisma_fit",
  "MatrixCoilMode": "SENSE",
  "Modality": "MR",
  "MultibandAccelerationFactor": 4,
  "PartialFourier": 1,
  "PatientPosition": "HFS",
  "PercentPhaseFOV": 100,
  "PercentSampling": 100,
  "PhaseEncodingDirection": "j",
  "PhaseEncodingSteps": 104,
  "PhaseResolution": 1,
  "PixelBandwidth": 2290,
  "ProcedureStepDescription": "games^mario",
  "ProtocolName": "func_task-mario_run-04",
  "PulseSequenceDetails": "%CustomerSeq%\\cmrr_mbep2d_bold",
  "ReceiveCoilActiveElements": "HC1-7;NC1,2",
  "ReceiveCoilName": "HeadNeck_64",
  "ReconMatrixPE": 104,
  "RepetitionTime": 1.49,
  "SAR": 0.0511812,
  "ScanOptions": "FS",
  "ScanningSequence": "EP",
  "SequenceName": "epfid2d1_104",
  "SequenceVariant": "SK\\SS",
  "SeriesDescription": "func_task-mario_run-04",
  "SeriesNumber": 19,
  "ShimSetting": [624, -7181, -8866, 263, -5, -165, -35, 20],
  "SliceThickness": 2,
  "SliceTiming": [0, 0.7825, 0.0975, 0.88, 0.195, 0.98, 0.2925, 1.0775, 0.39, 1.175, 0.49, 1.2725, 0.5875, 1.37, 0.685, 0, 0.7825, 0.0975, 0.88, 0.195, 0.98, 0.2925, 1.0775, 0.39, 1.175, 0.49, 1.2725, 0.5875, 1.37, 0.685, 0, 0.7825, 0.0975, 0.88, 0.195, 0.98, 0.2925, 1.0775, 0.39, 1.175, 0.49, 1.2725, 0.5875, 1.37, 0.685, 0, 0.7825, 0.0975, 0.88, 0.195, 0.98, 0.2925, 1.0775, 0.39, 1.175, 0.49, 1.2725, 0.5875, 1.37, 0.685],
  "SoftwareVersions": "syngo MR E11",
  "SpacingBetweenSlices": 2,
  "StationName": "MRC35049",
  "TaskName": "mario",
  "TotalReadoutTime": 0.0576811,
  "TxRefAmp": 278.793,
  "WipMemBlock": "260da9e1-80af-4788-b688-22c7f438e235||Sequence: R016 ve11c/master r/e634e98; Dec 19 2017 11:00:25 by eja",
  "dcmmeta_affine": [
    [-1.9980006217956543, 0.03871241584420204, 0.08059140294790268, 103.43102264404297],
    [-0.009129537269473076, 1.705034852027893, -1.0453577041625977, -49.04905700683594],
    [0.08893974125385284, 1.0446804761886597, 1.7031536102294922, -98.24993133544922],
    [0.0, 0.0, 0.0, 1.0]
],
  "dcmmeta_reorient_transform": [
    [0.0, -1.0, 0.0, 103.0],
    [1.0, 0.0, 0.0, 0.0],
    [0.0, 0.0, 1.0, 0.0],
    [0.0, 0.0, 0.0, 1.0]
],
  "dcmmeta_shape": [104, 104, 60, 507],
  "dcmmeta_slice_dim": 2,
  "dcmmeta_version": 0.6,
  "global": {
    "const": {
      "AcquisitionMatrix": [104, 0, 0, 104],
      "AngioFlag": "N",
      "BitsAllocated": 16,
      "BitsStored": 16,
      "BodyPartExamined": "BRAIN",
      "Columns": 832,
      "EchoNumbers": 1,
      "EchoTime": 37.0,
      "EchoTrainLength": 104,
      "FlipAngle": 52.0,
      "HighBit": 15,
      "ImageOrientationPatient": [0.99900029708712, 0.00456476881953, 0.04446986963629, 0.01935620838636, 0.85251744650521, -0.5223402536672],
      "ImagePositionPatient": [-848.78193829666, -750.52539036332, 357.2418002608],
      "ImageType": [
        "ORIGINAL",
        "PRIMARY",
        "M",
        "MB",
        "ND",
        "MOSAIC"
],
      "ImagedNucleus": "1H",
      "ImagingFrequency": 123.258894,
      "InPlanePhaseEncodingDirection": "COL",
      "MRAcquisitionType": "2D",
      "MagneticFieldStrength": 3.0,
      "Manufacturer": "SIEMENS",
      "ManufacturerModelName": "Prisma_fit",
      "Modality": "MR",
      "NumberOfAverages": 1.0,
      "NumberOfPhaseEncodingSteps": 104,
      "PercentPhaseFieldOfView": 100.0,
      "PercentSampling": 100.0,
      "PerformedProcedureStepStartTime": "151634.378000",
      "PhotometricInterpretation": "MONOCHROME2",
      "PixelBandwidth": 2290.0,
      "PixelRepresentation": 0,
      "PixelSpacing": [2.0, 2.0],
      "ProtocolName": "func_task-mario_run-04",
      "RepetitionTime": 1490.0,
      "Rows": 832,
      "SAR": 0.05118123415914,
      "SamplesPerPixel": 1,
      "ScanOptions": "FS",
      "ScanningSequence": "EP",
      "SequenceName": "epfid2d1_104",
      "SequenceVariant": [
        "SK",
        "SS"
],
      "SeriesDescription": "func_task-mario_run-04",
      "SeriesNumber": 19,
      "SeriesTime": "162828.311000",
      "SliceLocation": -53.862635410248,
      "SliceThickness": 2.0,
      "SmallestImagePixelValue": 0,
      "SoftwareVersions": "syngo MR E11",
      "SpacingBetweenSlices": 1.9999999648367,
      "SpecificCharacterSet": "ISO_IR 100",
      "StudyID": "1",
      "StudyTime": "151634.299000",
      "TransmitCoilName": "Body",
      "VariableFlipAngleFlag": "N",
      "WindowCenterWidthExplanation": "Algo1",
      "dBdt": 0.0},
    "slices": {}
  },
  "time": {
    "samples": {
      "AcquisitionNumber": [1, 2, 3, 4, 5, 6, 7, 8, 9, 10, 11, 12, 13, 14, 15, 16, 17, 18, 19, 20, 21, 22, 23, 24, 25, 26, 27, 28, 29, 30, 31, 32, 33, 34, 35, 36, 37, 38, 39, 40, 41, 42, 43, 44, 45, 46, 47, 48, 49, 50, 51, 52, 53, 54, 55, 56, 57, 58, 59, 60, 61, 62, 63, 64, 65, 66, 67, 68, 69, 70, 71, 72, 73, 74, 75, 76, 77, 78, 79, 80, 81, 82, 83, 84, 85, 86, 87, 88, 89, 90, 91, 92, 93, 94, 95, 96, 97, 98, 99, 100, 101, 102, 103, 104, 105, 106, 107, 108, 109, 110, 111, 112, 113, 114, 115, 116, 117, 118, 119, 120, 121, 122, 123, 124, 125, 126, 127, 128, 129, 130, 131, 132, 133, 134, 135, 136, 137, 138, 139, 140, 141, 142, 143, 144, 145, 146, 147, 148, 149, 150, 151, 152, 153, 154, 155, 156, 157, 158, 159, 160, 161, 162, 163, 164, 165, 166, 167, 168, 169, 170, 171, 172, 173, 174, 175, 176, 177, 178, 179, 180, 181, 182, 183, 184, 185, 186, 187, 188, 189, 190, 191, 192, 193, 194, 195, 196, 197, 198, 199, 200, 201, 202, 203, 204, 205, 206, 207, 208, 209, 210, 211, 212, 213, 214, 215, 216, 217, 218, 219, 220, 221, 222, 223, 224, 225, 226, 227, 228, 229, 230, 231, 232, 233, 234, 235, 236, 237, 238, 239, 240, 241, 242, 243, 244, 245, 246, 247, 248, 249, 250, 251, 252, 253, 254, 255, 256, 257, 258, 259, 260, 261, 262, 263, 264, 265, 266, 267, 268, 269, 270, 271, 272, 273, 274, 275, 276, 277, 278, 279, 280, 281, 282, 283, 284, 285, 286, 287, 288, 289, 290, 291, 292, 293, 294, 295, 296, 297, 298, 299, 300, 301, 302, 303, 304, 305, 306, 307, 308, 309, 310, 311, 312, 313, 314, 315, 316, 317, 318, 319, 320, 321, 322, 323, 324, 325, 326, 327, 328, 329, 330, 331, 332, 333, 334, 335, 336, 337, 338, 339, 340, 341, 342, 343, 344, 345, 346, 347, 348, 349, 350, 351, 352, 353, 354, 355, 356, 357, 358, 359, 360, 361, 362, 363, 364, 365, 366, 367, 368, 369, 370, 371, 372, 373, 374, 375, 376, 377, 378, 379, 380, 381, 382, 383, 384, 385, 386, 387, 388, 389, 390, 391, 392, 393, 394, 395, 396, 397, 398, 399, 400, 401, 402, 403, 404, 405, 406, 407, 408, 409, 410, 411, 412, 413, 414, 415, 416, 417, 418, 419, 420, 421, 422, 423, 424, 425, 426, 427, 428, 429, 430, 431, 432, 433, 434, 435, 436, 437, 438, 439, 440, 441, 442, 443, 444, 445, 446, 447, 448, 449, 450, 451, 452, 453, 454, 455, 456, 457, 458, 459, 460, 461, 462, 463, 464, 465, 466, 467, 468, 469, 470, 471, 472, 473, 474, 475, 476, 477, 478, 479, 480, 481, 482, 483, 484, 485, 486, 487, 488, 489, 490, 491, 492, 493, 494, 495, 496, 497, 498, 499, 500, 501, 502, 503, 504, 505, 506, 507],
      "AcquisitionTime": ["162655.095000", "162656.585000", "162658.075000", "162659.565000", "162701.055000", "162702.545000", "162704.035000", "162705.525000", "162707.015000", "162708.505000", "162709.995000", "162711.485000", "162712.975000", "162714.465000", "162715.955000", "162717.445000", "162718.935000", "162720.425000", "162721.915000", "162723.405000", "162724.895000", "162726.385000", "162727.875000", "162729.365000", "162730.855000", "162732.345000", "162733.835000", "162735.325000", "162736.815000", "162738.305000", "162739.795000", "162741.285000", "162742.775000", "162744.265000", "162745.755000", "162747.245000", "162748.735000", "162750.225000", "162751.715000", "162753.205000", "162754.695000", "162756.185000", "162757.675000", "162759.165000", "162800.655000", "162802.145000", "162803.635000", "162805.125000", "162806.615000", "162808.105000", "162809.595000", "162811.085000", "162812.575000", "162814.065000", "162815.555000", "162817.045000", "162818.535000", "162820.025000", "162821.515000", "162823.005000", "162824.495000", "162825.985000", "162827.475000", "162828.965000", "162830.455000", "162831.945000", "162833.435000", "162834.925000", "162836.415000", "162837.905000", "162839.395000", "162840.885000", "162842.375000", "162843.865000", "162845.355000", "162846.845000", "162848.335000", "162849.825000", "162851.315000", "162852.805000", "162854.295000", "162855.785000", "162857.275000", "162858.765000", "162900.255000", "162901.745000", "162903.235000", "162904.725000", "162906.215000", "162907.705000", "162909.195000", "162910.685000", "162912.175000", "162913.665000", "162915.155000", "162916.645000", "162918.135000", "162919.625000", "162921.115000", "162922.605000", "162924.095000", "162925.585000", "162927.075000", "162928.565000", "162930.055000", "162931.545000", "162933.035000", "162934.525000", "162936.015000", "162937.505000", "162938.995000", "162940.485000", "162941.975000", "162943.465000", "162944.955000", "162946.445000", "162947.935000", "162949.425000", "162950.915000", "162952.405000", "162953.895000", "162955.385000", "162956.875000", "162958.365000", "162959.855000", "163001.345000", "163002.835000", "163004.325000", "163005.815000", "163007.305000", "163008.795000", "163010.285000", "163011.775000", "163013.265000", "163014.755000", "163016.245000", "163017.735000", "163019.225000", "163020.715000", "163022.205000", "163023.695000", "163025.185000", "163026.675000", "163028.165000", "163029.655000", "163031.145000", "163032.635000", "163034.125000", "163035.615000", "163037.105000", "163038.595000", "163040.085000", "163041.575000", "163043.065000", "163044.555000", "163046.045000", "163047.535000", "163049.025000", "163050.515000", "163052.005000", "163053.495000", "163054.985000", "163056.475000", "163057.965000", "163059.455000", "163100.945000", "163102.435000", "163103.925000", "163105.415000", "163106.905000", "163108.395000", "163109.885000", "163111.375000", "163112.865000", "163114.355000", "163115.845000", "163117.335000", "163118.825000", "163120.315000", "163121.805000", "163123.295000", "163124.785000", "163126.275000", "163127.765000", "163129.255000", "163130.745000", "163132.235000", "163133.725000", "163135.215000", "163136.705000", "163138.195000", "163139.685000", "163141.175000", "163142.665000", "163144.155000", "163145.645000", "163147.135000", "163148.625000", "163150.115000", "163151.605000", "163153.095000", "163154.585000", "163156.075000", "163157.565000", "163159.055000", "163200.545000", "163202.035000", "163203.525000", "163205.015000", "163206.505000", "163207.995000", "163209.485000", "163210.975000", "163212.465000", "163213.955000", "163215.445000", "163216.935000", "163218.425000", "163219.915000", "163221.405000", "163222.895000", "163224.385000", "163225.875000", "163227.365000", "163228.855000", "163230.345000", "163231.835000", "163233.325000", "163234.815000", "163236.305000", "163237.795000", "163239.285000", "163240.775000", "163242.265000", "163243.755000", "163245.245000", "163246.735000", "163248.225000", "163249.715000", "163251.205000", "163252.695000", "163254.185000", "163255.675000", "163257.165000", "163258.655000", "163300.145000", "163301.635000", "163303.125000", "163304.615000", "163306.105000", "163307.595000", "163309.085000", "163310.575000", "163312.065000", "163313.555000", "163315.045000", "163316.535000", "163318.025000", "163319.515000", "163321.005000", "163322.495000", "163323.985000", "163325.475000", "163326.965000", "163328.455000", "163329.945000", "163331.435000", "163332.925000", "163334.415000", "163335.905000", "163337.395000", "163338.885000", "163340.375000", "163341.865000", "163343.355000", "163344.845000", "163346.335000", "163347.825000", "163349.315000", "163350.805000", "163352.295000", "163353.785000", "163355.275000", "163356.765000", "163358.255000", "163359.745000", "163401.235000", "163402.725000", "163404.215000", "163405.705000", "163407.195000", "163408.685000", "163410.175000", "163411.665000", "163413.155000", "163414.645000", "163416.135000", "163417.625000", "163419.115000", "163420.605000", "163422.095000", "163423.585000", "163425.075000", "163426.565000", "163428.055000", "163429.545000", "163431.035000", "163432.525000", "163434.015000", "163435.505000", "163436.995000", "163438.485000", "163439.975000", "163441.465000", "163442.955000", "163444.445000", "163445.935000", "163447.425000", "163448.915000", "163450.405000", "163451.895000", "163453.385000", "163454.875000", "163456.365000", "163457.855000", "163459.345000", "163500.835000", "163502.325000", "163503.815000", "163505.305000", "163506.795000", "163508.285000", "163509.775000", "163511.265000", "163512.755000", "163514.245000", "163515.735000", "163517.225000", "163518.715000", "163520.205000", "163521.695000", "163523.185000", "163524.675000", "163526.165000", "163527.655000", "163529.145000", "163530.635000", "163532.125000", "163533.615000", "163535.105000", "163536.595000", "163538.085000", "163539.575000", "163541.065000", "163542.555000", "163544.045000", "163545.535000", "163547.025000", "163548.515000", "163550.005000", "163551.495000", "163552.985000", "163554.475000", "163555.965000", "163557.455000", "163558.945000", "163600.435000", "163601.925000", "163603.415000", "163604.905000", "163606.395000", "163607.885000", "163609.375000", "163610.865000", "163612.355000", "163613.845000", "163615.335000", "163616.825000", "163618.315000", "163619.805000", "163621.295000", "163622.785000", "163624.275000", "163625.765000", "163627.255000", "163628.745000", "163630.235000", "163631.725000", "163633.215000", "163634.705000", "163636.195000", "163637.685000", "163639.175000", "163640.665000", "163642.155000", "163643.645000", "163645.135000", "163646.625000", "163648.115000", "163649.605000", "163651.095000", "163652.585000", "163654.075000", "163655.565000", "163657.055000", "163658.545000", "163700.035000", "163701.525000", "163703.015000", "163704.505000", "163705.995000", "163707.485000", "163708.975000", "163710.465000", "163711.955000", "163713.445000", "163714.935000", "163716.425000", "163717.915000", "163719.405000", "163720.895000", "163722.385000", "163723.875000", "163725.365000", "163726.855000", "163728.345000", "163729.835000", "163731.325000", "163732.815000", "163734.305000", "163735.795000", "163737.285000", "163738.775000", "163740.265000", "163741.755000", "163743.245000", "163744.735000", "163746.225000", "163747.715000", "163749.205000", "163750.695000", "163752.185000", "163753.675000", "163755.165000", "163756.655000", "163758.145000", "163759.635000", "163801.125000", "163802.615000", "163804.105000", "163805.595000", "163807.085000", "163808.575000", "163810.065000", "163811.555000", "163813.045000", "163814.535000", "163816.025000", "163817.515000", "163819.005000", "163820.495000", "163821.985000", "163823.475000", "163824.965000", "163826.455000", "163827.945000", "163829.435000", "163830.925000", "163832.415000", "163833.905000", "163835.395000", "163836.885000", "163838.375000", "163839.865000", "163841.355000", "163842.845000", "163844.335000", "163845.825000", "163847.315000", "163848.805000", "163850.295000", "163851.785000", "163853.275000", "163854.765000", "163856.255000", "163857.745000", "163859.235000", "163900.725000", "163902.215000", "163903.705000", "163905.195000", "163906.685000", "163908.175000", "163909.665000", "163911.155000", "163912.645000", "163914.135000", "163915.625000", "163917.115000", "163918.605000", "163920.095000", "163921.585000", "163923.075000", "163924.565000", "163926.055000", "163927.545000", "163929.035000"],
      "ContentTime": ["162828.315000", "162828.318000", "162828.322000", "162828.325000", "162828.335000", "162828.339000", "162828.342000", "162828.345000", "162828.349000", "162828.352000", "162828.355000", "162828.359000", "162828.362000", "162828.365000", "162828.369000", "162828.372000", "162828.375000", "162828.379000", "162828.382000", "162828.385000", "162828.389000", "162828.392000", "162828.395000", "162828.398000", "162828.402000", "162828.405000", "162828.408000", "162828.412000", "162828.428000", "162828.431000", "162828.434000", "162828.444000", "162828.448000", "162828.458000", "162828.462000", "162828.465000", "162828.468000", "162828.472000", "162828.475000", "162848.271000", "162848.275000", "162848.279000", "162848.283000", "162848.286000", "162848.290000", "162848.293000", "162848.297000", "162848.300000", "162848.319000", "162848.323000", "162848.326000", "162848.329000", "162848.333000", "162848.336000", "162848.339000", "162848.343000", "162848.346000", "162848.349000", "162848.353000", "162908.271000", "162908.275000", "162908.278000", "162908.282000", "162908.285000", "162908.288000", "162908.291000", "162908.295000", "162908.298000", "162908.302000", "162908.305000", "162908.308000", "162908.311000", "162908.315000", "162908.318000", "162908.321000", "162908.325000", "162908.328000", "162908.331000", "162908.335000", "162908.338000", "162928.271000", "162928.275000", "162928.278000", "162928.282000", "162928.285000", "162928.288000", "162928.292000", "162928.295000", "162928.298000", "162928.302000", "162928.305000", "162928.308000", "162928.311000", "162928.315000", "162928.318000", "162928.321000", "162928.325000", "162928.328000", "162928.331000", "162928.334000", "163008.272000", "163008.276000", "163008.279000", "163008.283000", "163008.286000", "163008.289000", "163008.293000", "163008.296000", "163008.299000", "163008.303000", "163008.306000", "163008.309000", "163008.313000", "163008.316000", "163008.319000", "163008.323000", "163008.326000", "163008.329000", "163008.333000", "163008.336000", "163008.339000", "163008.343000", "163008.346000", "163008.349000", "163008.353000", "163008.356000", "163008.359000", "163008.363000", "163008.366000", "163048.271000", "163048.275000", "163048.278000", "163048.282000", "163048.285000", "163048.288000", "163048.292000", "163048.295000", "163048.298000", "163048.302000", "163048.305000", "163048.309000", "163048.312000", "163048.315000", "163048.318000", "163048.322000", "163048.325000", "163048.328000", "163048.332000", "163048.335000", "163048.338000", "163048.342000", "163048.345000", "163048.348000", "163048.352000", "163048.355000", "163048.358000", "163128.271000", "163128.275000", "163128.278000", "163128.282000", "163128.285000", "163128.289000", "163128.292000", "163128.295000", "163128.299000", "163128.302000", "163128.305000", "163128.309000", "163128.312000", "163128.315000", "163128.319000", "163128.322000", "163128.326000", "163128.329000", "163128.333000", "163128.336000", "163128.339000", "163128.343000", "163128.346000", "163128.349000", "163128.352000", "163128.356000", "163208.271000", "163208.275000", "163208.278000", "163208.282000", "163208.285000", "163208.289000", "163208.292000", "163208.295000", "163208.299000", "163208.302000", "163208.305000", "163208.309000", "163208.312000", "163208.315000", "163208.319000", "163208.322000", "163208.325000", "163208.329000", "163208.332000", "163208.335000", "163208.339000", "163208.342000", "163208.345000", "163208.349000", "163208.352000", "163208.355000", "163208.359000", "163228.272000", "163228.276000", "163228.279000", "163228.283000", "163228.286000", "163228.289000", "163228.293000", "163228.296000", "163228.299000", "163228.303000", "163228.306000", "163228.309000", "163228.313000", "163228.316000", "163308.271000", "163308.275000", "163308.278000", "163308.282000", "163308.286000", "163308.289000", "163308.292000", "163308.296000", "163308.299000", "163308.302000", "163308.306000", "163308.309000", "163308.312000", "163308.316000", "163308.319000", "163308.323000", "163308.326000", "163308.329000", "163308.332000", "163308.336000", "163308.339000", "163308.343000", "163308.346000", "163308.349000", "163308.353000", "163308.356000", "163308.359000", "163348.271000", "163348.275000", "163348.278000", "163348.282000", "163348.285000", "163348.289000", "163348.292000", "163348.295000", "163348.299000", "163348.302000", "163348.305000", "163348.309000", "163348.312000", "163348.315000", "163348.319000", "163348.322000", "163348.326000", "163348.330000", "163348.333000", "163348.337000", "163348.340000", "163348.343000", "163348.347000", "163348.350000", "163348.353000", "163348.357000", "163428.271000", "163428.275000", "163428.278000", "163428.282000", "163428.285000", "163428.288000", "163428.292000", "163428.295000", "163428.298000", "163428.302000", "163428.305000", "163428.308000", "163428.312000", "163428.315000", "163428.318000", "163428.322000", "163428.325000", "163428.328000", "163428.332000", "163428.335000", "163428.338000", "163428.342000", "163428.345000", "163428.348000", "163428.351000", "163428.363000", "163428.370000", "163508.271000", "163508.275000", "163508.278000", "163508.282000", "163508.285000", "163508.289000", "163508.292000", "163508.295000", "163508.299000", "163508.302000", "163508.305000", "163508.309000", "163508.312000", "163508.315000", "163508.319000", "163508.322000", "163508.325000", "163508.329000", "163508.332000", "163508.335000", "163508.339000", "163508.342000", "163508.346000", "163508.349000", "163508.353000", "163508.356000", "163508.359000", "163548.271000", "163548.275000", "163548.278000", "163548.282000", "163548.285000", "163548.289000", "163548.292000", "163548.296000", "163548.299000", "163548.303000", "163548.306000", "163548.309000", "163548.313000", "163548.316000", "163548.319000", "163548.323000", "163548.326000", "163548.330000", "163548.333000", "163548.336000", "163548.340000", "163548.343000", "163548.347000", "163548.350000", "163548.353000", "163548.357000", "163548.360000", "163628.271000", "163628.275000", "163628.278000", "163628.287000", "163628.291000", "163628.294000", "163628.297000", "163628.301000", "163628.304000", "163628.307000", "163628.310000", "163628.314000", "163628.317000", "163628.320000", "163628.324000", "163628.327000", "163628.330000", "163628.334000", "163628.337000", "163628.340000", "163628.344000", "163628.347000", "163628.350000", "163628.354000", "163628.357000", "163628.360000", "163628.363000", "163708.272000", "163708.276000", "163708.279000", "163708.283000", "163708.286000", "163708.290000", "163708.293000", "163708.296000", "163708.300000", "163708.303000", "163708.306000", "163708.310000", "163708.313000", "163708.316000", "163708.320000", "163708.323000", "163708.326000", "163708.330000", "163708.333000", "163708.336000", "163708.339000", "163708.343000", "163708.346000", "163708.350000", "163708.353000", "163708.356000", "163708.360000", "163748.272000", "163748.275000", "163748.279000", "163748.282000", "163748.286000", "163748.289000", "163748.292000", "163748.296000", "163748.299000", "163748.302000", "163748.306000", "163748.309000", "163748.312000", "163748.316000", "163748.319000", "163748.322000", "163748.326000", "163748.329000", "163748.333000", "163748.336000", "163748.339000", "163748.343000", "163748.347000", "163748.350000", "163748.354000", "163748.357000", "163828.271000", "163828.275000", "163828.278000", "163828.282000", "163828.285000", "163828.289000", "163828.292000", "163828.295000", "163828.299000", "163828.302000", "163828.305000", "163828.308000", "163828.312000", "163828.315000", "163828.318000", "163828.322000", "163828.325000", "163828.328000", "163828.332000", "163828.335000", "163828.338000", "163828.342000", "163828.345000", "163828.348000", "163828.352000", "163828.355000", "163828.358000", "163908.272000", "163908.276000", "163908.280000", "163908.283000", "163908.297000", "163908.300000", "163908.304000", "163908.307000", "163908.310000", "163908.314000", "163908.317000", "163908.320000", "163908.324000", "163908.327000", "163908.330000", "163908.334000", "163908.337000", "163908.340000", "163908.344000", "163908.347000", "163908.350000", "163908.354000", "163908.357000", "163908.360000", "163908.364000", "163908.367000", "163908.370000", "163932.460000", "163932.463000", "163932.467000", "163932.470000", "163932.474000", "163932.477000", "163932.480000", "163932.484000", "163932.487000", "163932.491000", "163932.494000", "163932.497000", "163932.501000", "163932.504000", "163932.507000", "163932.511000"],
