{
  "AcquisitionMatrixPE": 104,
  "AcquisitionNumber": 1,
  "AcquisitionTime": "16:00:19.602500",
  "BandwidthPerPixelPhaseEncode": 17.17,
  "BaseResolution": 104,
  "BodyPartExamined": "BRAIN",
  "CoilCombinationMethod": "Sum of Squares",
  "ConsistencyInfo": "N4_VE11C_LATEST_20160120",
  "ConversionSoftware": "dcm2niix",
  "ConversionSoftwareVersion": "v1.0.20211006",
  "DerivedVendorReportedEchoSpacing": 0.000560011,
  "DeviceSerialNumber": "167006",
  "DwellTime": 2.1e-06,
  "EchoTime": 0.037,
  "EchoTime1": 0.037,
  "EchoTime2": 0.001,
  "EchoTrainLength": 104,
  "EffectiveEchoSpacing": 0.000560011,
  "FlipAngle": 52,
  "HeudiconvVersion": "0.10.0",
  "ImageComments": "Unaliased MB4/PE3/LB",
  "ImageOrientationPatientDICOM": [0.999, 0.00456477, 0.0444699, 0.0193562, 0.852517, -0.52234],
  "ImageOrientationText": "Tra>Cor(-31.5)>Sag(2.3)",
  "ImageType": [
    "ORIGINAL",
    "PRIMARY",
    "P",
    "MB",
    "ND",
    "MOSAIC",
    "PHASE"
],
  "ImagingFrequency": 123.259,
  "InPlanePhaseEncodingDirectionDICOM": "COL",
  "InstitutionAddress": "Chemin Queen-Mary 4565,Montreal,District,CA,H3W 1W5",
  "InstitutionName": "IUGM",
  "InstitutionalDepartmentName": "Department",
  "MRAcquisitionType": "2D",
  "MagneticFieldStrength": 3,
  "Manufacturer": "Siemens",
  "ManufacturersModelName": "Prisma_fit",
  "MatrixCoilMode": "SENSE",
  "Modality": "MR",
  "MultibandAccelerationFactor": 4,
  "PartialFourier": 1,
  "PatientPosition": "HFS",
  "PercentPhaseFOV": 100,
  "PercentSampling": 100,
  "PhaseEncodingDirection": "j",
  "PhaseEncodingSteps": 104,
  "PhaseResolution": 1,
  "PixelBandwidth": 2290,
  "ProcedureStepDescription": "games^mario",
  "ProtocolName": "func_task-mario_run-02",
  "PulseSequenceDetails": "%CustomerSeq%\\cmrr_mbep2d_bold",
  "ReceiveCoilActiveElements": "HC1-7;NC1,2",
  "ReceiveCoilName": "HeadNeck_64",
  "ReconMatrixPE": 104,
  "RepetitionTime": 1.49,
  "SAR": 0.0511812,
  "ScanOptions": "FS",
  "ScanningSequence": "EP",
  "SequenceName": "epfid2d1_104",
  "SequenceVariant": "SK\\SS",
  "SeriesDescription": "func_task-mario_run-02",
  "SeriesNumber": 14,
  "ShimSetting": [624, -7181, -8866, 263, -5, -165, -35, 20],
  "SliceThickness": 2,
  "SliceTiming": [0, 0.7825, 0.0975, 0.8825, 0.195, 0.98, 0.295, 1.0775, 0.3925, 1.175, 0.49, 1.2725, 0.5875, 1.3725, 0.685, 0, 0.7825, 0.0975, 0.8825, 0.195, 0.98, 0.295, 1.0775, 0.3925, 1.175, 0.49, 1.2725, 0.5875, 1.3725, 0.685, 0, 0.7825, 0.0975, 0.8825, 0.195, 0.98, 0.295, 1.0775, 0.3925, 1.175, 0.49, 1.2725, 0.5875, 1.3725, 0.685, 0, 0.7825, 0.0975, 0.8825, 0.195, 0.98, 0.295, 1.0775, 0.3925, 1.175, 0.49, 1.2725, 0.5875, 1.3725, 0.685],
  "SoftwareVersions": "syngo MR E11",
  "SpacingBetweenSlices": 2,
  "StationName": "MRC35049",
  "TaskName": "mario",
  "TotalReadoutTime": 0.0576811,
  "TxRefAmp": 278.793,
  "WipMemBlock": "4f4eb07d-7f8b-4ba4-9a81-8f9a04990ba1||Sequence: R016 ve11c/master r/e634e98; Dec 19 2017 11:00:25 by eja",
  "dcmmeta_affine": [
    [-1.9980006217956543, 0.03871241584420204, 0.08059140294790268, 103.43102264404297],
    [-0.009129537269473076, 1.705034852027893, -1.0453577041625977, -49.04905700683594],
    [0.08893974125385284, 1.0446804761886597, 1.7031536102294922, -98.24993133544922],
    [0.0, 0.0, 0.0, 1.0]
],
  "dcmmeta_reorient_transform": [
    [0.0, -1.0, 0.0, 103.0],
    [1.0, 0.0, 0.0, 0.0],
    [0.0, 0.0, 1.0, 0.0],
    [0.0, 0.0, 0.0, 1.0]
],
  "dcmmeta_shape": [104, 104, 60, 486],
  "dcmmeta_slice_dim": 2,
  "dcmmeta_version": 0.6,
  "global": {
    "const": {
      "AcquisitionMatrix": [104, 0, 0, 104],
      "AngioFlag": "N",
      "BitsAllocated": 16,
      "BitsStored": 16,
      "BodyPartExamined": "BRAIN",
      "Columns": 832,
      "EchoNumbers": 1,
      "EchoTime": 37.0,
      "EchoTrainLength": 104,
      "FlipAngle": 52.0,
      "HighBit": 15,
      "ImageOrientationPatient": [0.99900029708712, 0.00456476881953, 0.04446986963629, 0.01935620838636, 0.85251744650521, -0.5223402536672],
      "ImagePositionPatient": [-848.78193829666, -750.52539036332, 357.2418002608],
      "ImageType": [
        "ORIGINAL",
        "PRIMARY",
        "P",
        "MB",
        "ND",
        "MOSAIC"
],
      "ImagedNucleus": "1H",
      "ImagingFrequency": 123.258884,
      "InPlanePhaseEncodingDirection": "COL",
      "LargestImagePixelValue": 4095,
      "MRAcquisitionType": "2D",
      "MagneticFieldStrength": 3.0,
      "Manufacturer": "SIEMENS",
      "ManufacturerModelName": "Prisma_fit",
      "Modality": "MR",
      "NumberOfAverages": 1.0,
      "NumberOfPhaseEncodingSteps": 104,
      "PercentPhaseFieldOfView": 100.0,
      "PercentSampling": 100.0,
      "PerformedProcedureStepStartTime": "151634.378000",
      "PhotometricInterpretation": "MONOCHROME2",
      "PixelBandwidth": 2290.0,
      "PixelRepresentation": 0,
      "PixelSpacing": [2.0, 2.0],
      "ProtocolName": "func_task-mario_run-02",
      "RepetitionTime": 1490.0,
      "RescaleIntercept": -4096.0,
      "RescaleSlope": 2.0,
      "RescaleType": "US",
      "Rows": 832,
      "SAR": 0.05118123415914,
      "SamplesPerPixel": 1,
      "ScanOptions": "FS",
      "ScanningSequence": "EP",
      "SequenceName": "epfid2d1_104",
      "SequenceVariant": [
        "SK",
        "SS"
],
      "SeriesDescription": "func_task-mario_run-02",
      "SeriesNumber": 14,
      "SeriesTime": "160139.699000",
      "SliceLocation": -53.862635410248,
      "SliceThickness": 2.0,
      "SmallestImagePixelValue": 0,
      "SoftwareVersions": "syngo MR E11",
      "SpacingBetweenSlices": 1.9999999648367,
      "SpecificCharacterSet": "ISO_IR 100",
      "StudyID": "1",
      "StudyTime": "151634.299000",
      "TransmitCoilName": "Body",
      "VariableFlipAngleFlag": "N",
      "WindowCenterWidthExplanation": "Algo1",
      "dBdt": 0.0},
    "slices": {}
  },
  "time": {
    "samples": {
      "AcquisitionNumber": [1, 2, 3, 4, 5, 6, 7, 8, 9, 10, 11, 12, 13, 14, 15, 16, 17, 18, 19, 20, 21, 22, 23, 24, 25, 26, 27, 28, 29, 30, 31, 32, 33, 34, 35, 36, 37, 38, 39, 40, 41, 42, 43, 44, 45, 46, 47, 48, 49, 50, 51, 52, 53, 54, 55, 56, 57, 58, 59, 60, 61, 62, 63, 64, 65, 66, 67, 68, 69, 70, 71, 72, 73, 74, 75, 76, 77, 78, 79, 80, 81, 82, 83, 84, 85, 86, 87, 88, 89, 90, 91, 92, 93, 94, 95, 96, 97, 98, 99, 100, 101, 102, 103, 104, 105, 106, 107, 108, 109, 110, 111, 112, 113, 114, 115, 116, 117, 118, 119, 120, 121, 122, 123, 124, 125, 126, 127, 128, 129, 130, 131, 132, 133, 134, 135, 136, 137, 138, 139, 140, 141, 142, 143, 144, 145, 146, 147, 148, 149, 150, 151, 152, 153, 154, 155, 156, 157, 158, 159, 160, 161, 162, 163, 164, 165, 166, 167, 168, 169, 170, 171, 172, 173, 174, 175, 176, 177, 178, 179, 180, 181, 182, 183, 184, 185, 186, 187, 188, 189, 190, 191, 192, 193, 194, 195, 196, 197, 198, 199, 200, 201, 202, 203, 204, 205, 206, 207, 208, 209, 210, 211, 212, 213, 214, 215, 216, 217, 218, 219, 220, 221, 222, 223, 224, 225, 226, 227, 228, 229, 230, 231, 232, 233, 234, 235, 236, 237, 238, 239, 240, 241, 242, 243, 244, 245, 246, 247, 248, 249, 250, 251, 252, 253, 254, 255, 256, 257, 258, 259, 260, 261, 262, 263, 264, 265, 266, 267, 268, 269, 270, 271, 272, 273, 274, 275, 276, 277, 278, 279, 280, 281, 282, 283, 284, 285, 286, 287, 288, 289, 290, 291, 292, 293, 294, 295, 296, 297, 298, 299, 300, 301, 302, 303, 304, 305, 306, 307, 308, 309, 310, 311, 312, 313, 314, 315, 316, 317, 318, 319, 320, 321, 322, 323, 324, 325, 326, 327, 328, 329, 330, 331, 332, 333, 334, 335, 336, 337, 338, 339, 340, 341, 342, 343, 344, 345, 346, 347, 348, 349, 350, 351, 352, 353, 354, 355, 356, 357, 358, 359, 360, 361, 362, 363, 364, 365, 366, 367, 368, 369, 370, 371, 372, 373, 374, 375, 376, 377, 378, 379, 380, 381, 382, 383, 384, 385, 386, 387, 388, 389, 390, 391, 392, 393, 394, 395, 396, 397, 398, 399, 400, 401, 402, 403, 404, 405, 406, 407, 408, 409, 410, 411, 412, 413, 414, 415, 416, 417, 418, 419, 420, 421, 422, 423, 424, 425, 426, 427, 428, 429, 430, 431, 432, 433, 434, 435, 436, 437, 438, 439, 440, 441, 442, 443, 444, 445, 446, 447, 448, 449, 450, 451, 452, 453, 454, 455, 456, 457, 458, 459, 460, 461, 462, 463, 464, 465, 466, 467, 468, 469, 470, 471, 472, 473, 474, 475, 476, 477, 478, 479, 480, 481, 482, 483, 484, 485, 486],
      "AcquisitionTime": ["160019.602500", "160021.092500", "160022.582500", "160024.072500", "160025.562500", "160027.052500", "160028.542500", "160030.032500", "160031.522500", "160033.012500", "160034.502500", "160035.992500", "160037.482500", "160038.972500", "160040.462500", "160041.952500", "160043.442500", "160044.932500", "160046.422500", "160047.912500", "160049.402500", "160050.892500", "160052.382500", "160053.872500", "160055.362500", "160056.852500", "160058.342500", "160059.832500", "160101.322500", "160102.812500", "160104.302500", "160105.792500", "160107.282500", "160108.772500", "160110.262500", "160111.752500", "160113.242500", "160114.732500", "160116.222500", "160117.712500", "160119.202500", "160120.692500", "160122.182500", "160123.672500", "160125.162500", "160126.652500", "160128.142500", "160129.632500", "160131.122500", "160132.612500", "160134.102500", "160135.592500", "160137.082500", "160138.572500", "160140.062500", "160141.552500", "160143.042500", "160144.532500", "160146.022500", "160147.512500", "160149.002500", "160150.492500", "160151.982500", "160153.472500", "160154.962500", "160156.452500", "160157.942500", "160159.432500", "160200.922500", "160202.412500", "160203.902500", "160205.392500", "160206.882500", "160208.372500", "160209.862500", "160211.352500", "160212.842500", "160214.332500", "160215.822500", "160217.312500", "160218.802500", "160220.292500", "160221.782500", "160223.272500", "160224.762500", "160226.252500", "160227.742500", "160229.232500", "160230.722500", "160232.212500", "160233.702500", "160235.192500", "160236.682500", "160238.172500", "160239.662500", "160241.152500", "160242.642500", "160244.132500", "160245.622500", "160247.112500", "160248.602500", "160250.092500", "160251.582500", "160253.072500", "160254.562500", "160256.052500", "160257.542500", "160259.032500", "160300.522500", "160302.012500", "160303.502500", "160304.992500", "160306.482500", "160307.972500", "160309.462500", "160310.952500", "160312.442500", "160313.932500", "160315.422500", "160316.912500", "160318.402500", "160319.892500", "160321.382500", "160322.872500", "160324.362500", "160325.852500", "160327.342500", "160328.832500", "160330.322500", "160331.812500", "160333.302500", "160334.792500", "160336.282500", "160337.772500", "160339.262500", "160340.752500", "160342.242500", "160343.732500", "160345.222500", "160346.712500", "160348.202500", "160349.692500", "160351.182500", "160352.672500", "160354.162500", "160355.652500", "160357.142500", "160358.632500", "160400.122500", "160401.612500", "160403.102500", "160404.592500", "160406.082500", "160407.572500", "160409.062500", "160410.552500", "160412.042500", "160413.532500", "160415.022500", "160416.512500", "160418.002500", "160419.492500", "160420.982500", "160422.472500", "160423.962500", "160425.452500", "160426.942500", "160428.432500", "160429.922500", "160431.412500", "160432.902500", "160434.392500", "160435.882500", "160437.372500", "160438.862500", "160440.352500", "160441.842500", "160443.332500", "160444.822500", "160446.312500", "160447.802500", "160449.292500", "160450.782500", "160452.272500", "160453.762500", "160455.252500", "160456.742500", "160458.232500", "160459.722500", "160501.212500", "160502.702500", "160504.192500", "160505.682500", "160507.172500", "160508.662500", "160510.152500", "160511.642500", "160513.132500", "160514.622500", "160516.112500", "160517.602500", "160519.092500", "160520.582500", "160522.072500", "160523.562500", "160525.052500", "160526.542500", "160528.032500", "160529.522500", "160531.012500", "160532.502500", "160533.992500", "160535.482500", "160536.972500", "160538.462500", "160539.952500", "160541.442500", "160542.932500", "160544.422500", "160545.912500", "160547.402500", "160548.892500", "160550.382500", "160551.872500", "160553.362500", "160554.852500", "160556.342500", "160557.832500", "160559.322500", "160600.812500", "160602.302500", "160603.792500", "160605.282500", "160606.772500", "160608.262500", "160609.752500", "160611.242500", "160612.732500", "160614.222500", "160615.712500", "160617.202500", "160618.692500", "160620.182500", "160621.672500", "160623.162500", "160624.652500", "160626.142500", "160627.632500", "160629.122500", "160630.612500", "160632.102500", "160633.592500", "160635.082500", "160636.572500", "160638.062500", "160639.552500", "160641.042500", "160642.532500", "160644.022500", "160645.512500", "160647.002500", "160648.492500", "160649.982500", "160651.472500", "160652.962500", "160654.452500", "160655.942500", "160657.432500", "160658.922500", "160700.412500", "160701.902500", "160703.392500", "160704.882500", "160706.372500", "160707.862500", "160709.352500", "160710.842500", "160712.332500", "160713.822500", "160715.312500", "160716.802500", "160718.292500", "160719.782500", "160721.272500", "160722.762500", "160724.252500", "160725.742500", "160727.232500", "160728.722500", "160730.212500", "160731.702500", "160733.192500", "160734.682500", "160736.172500", "160737.662500", "160739.152500", "160740.642500", "160742.132500", "160743.622500", "160745.112500", "160746.602500", "160748.092500", "160749.582500", "160751.072500", "160752.562500", "160754.052500", "160755.542500", "160757.032500", "160758.522500", "160800.012500", "160801.502500", "160802.992500", "160804.482500", "160805.972500", "160807.462500", "160808.952500", "160810.442500", "160811.932500", "160813.422500", "160814.912500", "160816.402500", "160817.892500", "160819.382500", "160820.872500", "160822.362500", "160823.852500", "160825.342500", "160826.832500", "160828.322500", "160829.812500", "160831.302500", "160832.792500", "160834.282500", "160835.772500", "160837.262500", "160838.752500", "160840.242500", "160841.732500", "160843.222500", "160844.712500", "160846.202500", "160847.692500", "160849.182500", "160850.672500", "160852.162500", "160853.652500", "160855.142500", "160856.632500", "160858.122500", "160859.612500", "160901.102500", "160902.592500", "160904.082500", "160905.572500", "160907.062500", "160908.552500", "160910.042500", "160911.532500", "160913.022500", "160914.512500", "160916.002500", "160917.492500", "160918.982500", "160920.472500", "160921.962500", "160923.452500", "160924.942500", "160926.432500", "160927.922500", "160929.412500", "160930.902500", "160932.392500", "160933.882500", "160935.372500", "160936.862500", "160938.352500", "160939.842500", "160941.332500", "160942.822500", "160944.312500", "160945.802500", "160947.292500", "160948.782500", "160950.272500", "160951.762500", "160953.252500", "160954.742500", "160956.232500", "160957.722500", "160959.212500", "161000.702500", "161002.192500", "161003.682500", "161005.172500", "161006.662500", "161008.152500", "161009.642500", "161011.132500", "161012.622500", "161014.112500", "161015.602500", "161017.092500", "161018.582500", "161020.072500", "161021.562500", "161023.052500", "161024.542500", "161026.032500", "161027.522500", "161029.012500", "161030.502500", "161031.992500", "161033.482500", "161034.972500", "161036.462500", "161037.952500", "161039.442500", "161040.932500", "161042.422500", "161043.912500", "161045.402500", "161046.892500", "161048.382500", "161049.872500", "161051.362500", "161052.852500", "161054.342500", "161055.832500", "161057.322500", "161058.812500", "161100.302500", "161101.792500", "161103.282500", "161104.772500", "161106.262500", "161107.752500", "161109.242500", "161110.732500", "161112.222500", "161113.712500", "161115.202500", "161116.692500", "161118.182500", "161119.672500", "161121.162500", "161122.652500", "161124.142500", "161125.632500", "161127.122500", "161128.612500", "161130.102500", "161131.592500", "161133.082500", "161134.572500", "161136.062500", "161137.552500", "161139.042500", "161140.532500", "161142.022500", "161143.512500", "161145.002500", "161146.492500", "161147.982500", "161149.472500", "161150.962500", "161152.452500", "161153.942500", "161155.432500", "161156.922500", "161158.412500", "161159.902500", "161201.392500", "161202.882500", "161204.372500", "161205.862500", "161207.352500", "161208.842500", "161210.332500", "161211.822500", "161213.312500", "161214.802500", "161216.292500", "161217.782500", "161219.272500", "161220.762500", "161222.252500"],
      "ContentTime": ["160139.701000", "160139.704000", "160139.706000", "160139.709000", "160139.711000", "160139.714000", "160139.716000", "160139.719000", "160139.721000", "160139.723000", "160139.726000", "160139.728000", "160139.731000", "160139.733000", "160139.736000", "160139.738000", "160139.740000", "160139.748000", "160139.751000", "160139.754000", "160139.756000", "160139.758000", "160139.761000", "160139.763000", "160139.766000", "160139.768000", "160159.623000", "160159.626000", "160159.628000", "160159.631000", "160159.639000", "160159.642000", "160159.644000", "160159.647000", "160159.649000", "160159.652000", "160159.654000", "160159.656000", "160159.659000", "160159.661000", "160159.664000", "160159.666000", "160159.669000", "160159.671000", "160159.674000", "160159.676000", "160219.645000", "160219.648000", "160219.650000", "160219.653000", "160219.656000", "160219.658000", "160219.661000", "160219.663000", "160219.666000", "160219.669000", "160219.672000", "160219.675000", "160219.704000", "160219.706000", "160219.709000", "160219.711000", "160219.714000", "160219.716000", "160219.718000", "160219.721000", "160239.644000", "160239.647000", "160239.649000", "160239.652000", "160239.654000", "160239.657000", "160239.659000", "160239.662000", "160239.673000", "160239.675000", "160239.678000", "160239.680000", "160239.683000", "160239.685000", "160239.688000", "160239.690000", "160239.693000", "160239.695000", "160239.697000", "160239.700000", "160239.702000", "160259.638000", "160259.640000", "160259.643000", "160259.645000", "160259.648000", "160259.650000", "160259.653000", "160259.655000", "160259.658000", "160259.660000", "160259.663000", "160259.665000", "160259.668000", "160259.670000", "160259.673000", "160259.675000", "160259.678000", "160259.680000", "160259.683000", "160259.685000", "160339.658000", "160339.660000", "160339.663000", "160339.665000", "160339.668000", "160339.671000", "160339.673000", "160339.676000", "160339.678000", "160339.681000", "160339.684000", "160339.687000", "160339.690000", "160339.693000", "160339.696000", "160339.698000", "160339.701000", "160339.704000", "160339.707000", "160339.709000", "160339.712000", "160339.714000", "160339.717000", "160339.719000", "160339.722000", "160339.724000", "160419.654000", "160419.656000", "160419.659000", "160419.661000", "160419.664000", "160419.666000", "160419.669000", "160419.671000", "160419.674000", "160419.676000", "160419.679000", "160419.681000", "160419.684000", "160419.686000", "160419.689000", "160419.692000", "160419.694000", "160419.697000", "160419.699000", "160419.702000", "160419.704000", "160419.707000", "160419.709000", "160419.711000", "160419.714000", "160419.716000", "160419.719000", "160459.981000", "160459.983000", "160459.986000", "160459.988000", "160459.991000", "160459.993000", "160459.996000", "160459.998000", "160500.002000", "160500.004000", "160500.007000", "160500.009000", "160500.012000", "160500.014000", "160500.017000", "160500.021000", "160500.023000", "160500.026000", "160500.028000", "160500.031000", "160500.033000", "160500.036000", "160500.038000", "160500.041000", "160500.043000", "160500.046000", "160500.048000", "160539.664000", "160539.667000", "160539.669000", "160539.672000", "160539.674000", "160539.677000", "160539.679000", "160539.682000", "160539.684000", "160539.687000", "160539.689000", "160539.692000", "160539.694000", "160539.697000", "160539.699000", "160539.702000", "160539.704000", "160539.707000", "160539.709000", "160539.712000", "160539.714000", "160539.716000", "160539.719000", "160539.721000", "160539.724000", "160539.726000", "160539.729000", "160619.660000", "160619.663000", "160619.666000", "160619.668000", "160619.671000", "160619.673000", "160619.676000", "160619.678000", "160619.681000", "160619.684000", "160619.686000", "160619.689000", "160619.691000", "160619.694000", "160619.696000", "160619.699000", "160619.701000", "160619.704000", "160619.706000", "160619.709000", "160619.711000", "160619.714000", "160619.716000", "160619.719000", "160619.721000", "160619.724000", "160619.727000", "160659.657000", "160659.659000", "160659.662000", "160659.664000", "160659.667000", "160659.669000", "160659.672000", "160659.674000", "160659.677000", "160659.680000", "160659.682000", "160659.685000", "160659.687000", "160659.690000", "160659.692000", "160659.695000", "160659.697000", "160659.700000", "160659.702000", "160659.705000", "160659.707000", "160659.710000", "160659.712000", "160659.715000", "160659.717000", "160659.720000", "160659.722000", "160739.659000", "160739.661000", "160739.664000", "160739.671000", "160739.673000", "160739.676000", "160739.678000", "160739.681000", "160739.683000", "160739.686000", "160739.688000", "160739.691000", "160739.694000", "160739.696000", "160739.698000", "160739.701000", "160739.704000", "160739.706000", "160739.709000", "160739.711000", "160739.714000", "160739.716000", "160739.719000", "160739.721000", "160739.724000", "160739.726000", "160819.669000", "160819.672000", "160819.675000", "160819.677000", "160819.680000", "160819.682000", "160819.685000", "160819.687000", "160819.690000", "160819.692000", "160819.695000", "160819.697000", "160819.700000", "160819.702000", "160819.705000", "160819.707000", "160819.710000", "160819.712000", "160819.715000", "160819.717000", "160819.720000", "160819.723000", "160819.725000", "160819.728000", "160819.730000", "160819.733000", "160819.735000", "160859.670000", "160859.673000", "160859.675000", "160859.678000", "160859.680000", "160859.683000", "160859.685000", "160859.688000", "160859.690000", "160859.693000", "160859.695000", "160859.698000", "160859.700000", "160859.703000", "160859.705000", "160859.708000", "160859.710000", "160859.713000", "160859.715000", "160859.718000", "160859.720000", "160859.723000", "160859.725000", "160859.728000", "160859.731000", "160859.733000", "160859.736000", "160939.684000", "160939.687000", "160939.689000", "160939.692000", "160939.694000", "160939.697000", "160939.700000", "160939.702000", "160939.705000", "160939.707000", "160939.710000", "160939.712000", "160939.715000", "160939.717000", "160939.720000", "160939.722000", "160939.725000", "160939.727000", "160939.730000", "160939.732000", "160939.735000", "160939.737000", "160939.740000", "160939.742000", "160939.745000", "160939.747000", "160939.750000", "161019.670000", "161019.673000", "161019.675000", "161019.678000", "161019.680000", "161019.683000", "161019.685000", "161019.688000", "161019.690000", "161019.693000", "161019.695000", "161019.698000", "161019.700000", "161019.703000", "161019.705000", "161019.707000", "161019.710000", "161019.712000", "161019.715000", "161019.717000", "161019.720000", "161019.722000", "161019.725000", "161019.727000", "161019.730000", "161019.732000", "161019.735000", "161059.661000", "161059.664000", "161059.666000", "161059.669000", "161059.671000", "161059.674000", "161059.676000", "161059.679000", "161059.681000", "161059.684000", "161059.686000", "161059.688000", "161059.691000", "161059.693000", "161059.696000", "161059.698000", "161059.701000", "161059.703000", "161059.706000", "161059.708000", "161059.711000", "161059.713000", "161059.716000", "161059.718000", "161059.721000", "161059.723000", "161059.726000", "161139.669000", "161139.672000", "161139.674000", "161139.677000", "161139.679000", "161139.682000", "161139.684000", "161139.687000", "161139.689000", "161139.692000", "161139.694000", "161139.697000", "161139.699000", "161139.702000", "161139.704000", "161139.707000", "161139.723000", "161139.725000", "161139.728000", "161139.730000", "161139.733000", "161139.735000", "161139.738000", "161139.740000", "161139.743000", "161139.745000", "161139.748000", "161219.649000", "161219.652000", "161219.654000", "161219.657000", "161219.659000", "161219.662000", "161219.664000", "161219.667000", "161219.669000", "161219.672000", "161219.674000", "161219.677000", "161219.679000", "161219.682000", "161219.685000", "161219.688000", "161219.691000", "161219.694000", "161219.696000", "161219.699000", "161219.702000", "161219.704000", "161219.707000", "161219.710000", "161219.712000", "161219.715000", "161224.306000", "161224.309000", "161224.312000", "161224.314000"],
