{
  "AcquisitionMatrixPE": 104,
  "AcquisitionNumber": 1,
  "AcquisitionTime": "16:07:16.565000",
  "BandwidthPerPixelPhaseEncode": 17.17,
  "BaseResolution": 104,
  "BodyPartExamined": "BRAIN",
  "CoilString": "HC1-7;NC1_2",
  "ConsistencyInfo": "N4_VE11C_LATEST_20160120",
  "ConversionSoftware": "dcm2niix",
  "ConversionSoftwareVersion": "v1.0.20190902",
  "DerivedVendorReportedEchoSpacing": 0.000560011,
  "DeviceSerialNumber": "167006",
  "DwellTime": 2.1e-06,
  "EchoTime": 0.037,
  "EchoTrainLength": 104,
  "EffectiveEchoSpacing": 0.000560011,
  "FlipAngle": 52,
  "HeudiconvVersion": "0.10.0",
  "ImageComments": "Unaliased_MB4_PE3_LB",
  "ImageOrientationPatientDICOM": [0.998895, -0.041305, 0.0224031, 0.0464078, 0.94197, -0.332473],
  "ImageType": [
    "ORIGINAL",
    "PRIMARY",
    "M",
    "MB",
    "ND",
    "MOSAIC"
],
  "ImagingFrequency": 123.259,
  "InPlanePhaseEncodingDirectionDICOM": "COL",
  "InstitutionAddress": "Chemin_Queen-Mary_4565_Montreal_District_CA_H3W_1W5",
  "InstitutionName": "IUGM",
  "InstitutionalDepartmentName": "Department",
  "MRAcquisitionType": "2D",
  "MagneticFieldStrength": 3,
  "Manufacturer": "Siemens",
  "ManufacturersModelName": "Prisma_fit",
  "Modality": "MR",
  "MultibandAccelerationFactor": 4,
  "PartialFourier": 1,
  "PatientPosition": "HFS",
  "PercentPhaseFOV": 100,
  "PhaseEncodingDirection": "j",
  "PhaseEncodingSteps": 104,
  "PhaseResolution": 1,
  "PixelBandwidth": 2290,
  "ProcedureStepDescription": "games_mario",
  "ProtocolName": "func_task-mario_run-04",
  "PulseSequenceDetails": "%CustomerSeq%_cmrr_mbep2d_bold",
  "ReceiveCoilActiveElements": "HC1-7;NC1,2",
  "ReceiveCoilName": "HeadNeck_64",
  "ReconMatrixPE": 104,
  "RepetitionTime": 1.49,
  "SAR": 0.034448,
  "ScanOptions": "FS",
  "ScanningSequence": "EP",
  "SequenceName": "epfid2d1_104",
  "SequenceVariant": "SK_SS",
  "SeriesDescription": "func_task-mario_run-04",
  "SeriesNumber": 22,
  "ShimSetting": [627, -7261, -8807, 676, 24, -220, -56, -23],
  "SliceThickness": 2,
  "SliceTiming": [0, 0.785, 0.0975, 0.8825, 0.195, 0.98, 0.295, 1.0775, 0.3925, 1.175, 0.49, 1.275, 0.5875, 1.3725, 0.685, 0, 0.785, 0.0975, 0.8825, 0.195, 0.98, 0.295, 1.0775, 0.3925, 1.175, 0.49, 1.275, 0.5875, 1.3725, 0.685, 0, 0.785, 0.0975, 0.8825, 0.195, 0.98, 0.295, 1.0775, 0.3925, 1.175, 0.49, 1.275, 0.5875, 1.3725, 0.685, 0, 0.785, 0.0975, 0.8825, 0.195, 0.98, 0.295, 1.0775, 0.3925, 1.175, 0.49, 1.275, 0.5875, 1.3725, 0.685],
  "SoftwareVersions": "syngo_MR_E11",
  "SpacingBetweenSlices": 2,
  "StationName": "MRC35049",
  "TaskName": "mario",
  "TotalReadoutTime": 0.0576811,
  "TxRefAmp": 222.044,
  "WipMemBlock": "d0221e65-fe13-4bf7-ad5c-a20c7ec54a51||Sequence: R016 ve11c/master r/e634e98; Dec 19 2017 11:00:25 by eja",
  "dcmmeta_affine": [
    [-1.997790813446045, 0.09281562268733978, 0.014740513637661934, 101.73567962646484],
    [0.08261008560657501, 1.8839408159255981, -0.666290283203125, -69.32781219482422],
    [0.04480620101094246, 0.6649454832077026, 1.8856934309005737, -60.207313537597656],
    [0.0, 0.0, 0.0, 1.0]
],
  "dcmmeta_reorient_transform": [
    [0.0, -1.0, 0.0, 103.0],
    [1.0, 0.0, 0.0, 0.0],
    [0.0, 0.0, 1.0, 0.0],
    [0.0, 0.0, 0.0, 1.0]
],
  "dcmmeta_shape": [104, 104, 60, 552],
  "dcmmeta_slice_dim": 2,
  "dcmmeta_version": 0.6,
  "global": {
    "const": {
      "AcquisitionMatrix": [104, 0, 0, 104],
      "AngioFlag": "N",
      "BitsAllocated": 16,
      "BitsStored": 16,
      "BodyPartExamined": "BRAIN",
      "Columns": 832,
      "EchoNumbers": 1,
      "EchoTime": 37.0,
      "EchoTrainLength": 104,
      "FlipAngle": 52.0,
      "HighBit": 15,
      "ImageOrientationPatient": [0.99889538709406, -0.0413050443593, 0.02240310140751, 0.0464078113421, 0.94197038049566, -0.3324727316868],
      "ImagePositionPatient": [-872.27641975786, -780.40245073294, 234.01275867106],
      "ImageType": [
        "ORIGINAL",
        "PRIMARY",
        "M",
        "MB",
        "ND",
        "MOSAIC"
],
      "ImagedNucleus": "1H",
      "ImagingFrequency": 123.258887,
      "InPlanePhaseEncodingDirection": "COL",
      "MRAcquisitionType": "2D",
      "MagneticFieldStrength": 3.0,
      "Manufacturer": "SIEMENS",
      "ManufacturerModelName": "Prisma_fit",
      "Modality": "MR",
      "NumberOfAverages": 1.0,
      "NumberOfPhaseEncodingSteps": 104,
      "PercentPhaseFieldOfView": 100.0,
      "PercentSampling": 100.0,
      "PerformedProcedureStepStartTime": "145911.773000",
      "PhotometricInterpretation": "MONOCHROME2",
      "PixelBandwidth": 2290.0,
      "PixelRepresentation": 0,
      "PixelSpacing": [2.0, 2.0],
      "ProtocolName": "func_task-mario_run-04",
      "RepetitionTime": 1490.0,
      "Rows": 832,
      "SAR": 0.03444799294017,
      "SamplesPerPixel": 1,
      "ScanOptions": "FS",
      "ScanningSequence": "EP",
      "SequenceName": "epfid2d1_104",
      "SequenceVariant": [
        "SK",
        "SS"
],
      "SeriesDescription": "func_task-mario_run-04",
      "SeriesNumber": 22,
      "SeriesTime": "160832.275000",
      "SliceLocation": -32.92022779938,
      "SliceThickness": 2.0,
      "SmallestImagePixelValue": 0,
      "SoftwareVersions": "syngo MR E11",
      "SpacingBetweenSlices": 1.9999999764286,
      "SpecificCharacterSet": "ISO_IR 100",
      "StudyID": "1",
      "StudyTime": "145911.667000",
      "TransmitCoilName": "Body",
      "VariableFlipAngleFlag": "N",
      "WindowCenterWidthExplanation": "Algo1",
      "dBdt": 0.0},
    "slices": {}
  },
  "time": {
    "samples": {
      "AcquisitionNumber": [1, 2, 3, 4, 5, 6, 7, 8, 9, 10, 11, 12, 13, 14, 15, 16, 17, 18, 19, 20, 21, 22, 23, 24, 25, 26, 27, 28, 29, 30, 31, 32, 33, 34, 35, 36, 37, 38, 39, 40, 41, 42, 43, 44, 45, 46, 47, 48, 49, 50, 51, 52, 53, 54, 55, 56, 57, 58, 59, 60, 61, 62, 63, 64, 65, 66, 67, 68, 69, 70, 71, 72, 73, 74, 75, 76, 77, 78, 79, 80, 81, 82, 83, 84, 85, 86, 87, 88, 89, 90, 91, 92, 93, 94, 95, 96, 97, 98, 99, 100, 101, 102, 103, 104, 105, 106, 107, 108, 109, 110, 111, 112, 113, 114, 115, 116, 117, 118, 119, 120, 121, 122, 123, 124, 125, 126, 127, 128, 129, 130, 131, 132, 133, 134, 135, 136, 137, 138, 139, 140, 141, 142, 143, 144, 145, 146, 147, 148, 149, 150, 151, 152, 153, 154, 155, 156, 157, 158, 159, 160, 161, 162, 163, 164, 165, 166, 167, 168, 169, 170, 171, 172, 173, 174, 175, 176, 177, 178, 179, 180, 181, 182, 183, 184, 185, 186, 187, 188, 189, 190, 191, 192, 193, 194, 195, 196, 197, 198, 199, 200, 201, 202, 203, 204, 205, 206, 207, 208, 209, 210, 211, 212, 213, 214, 215, 216, 217, 218, 219, 220, 221, 222, 223, 224, 225, 226, 227, 228, 229, 230, 231, 232, 233, 234, 235, 236, 237, 238, 239, 240, 241, 242, 243, 244, 245, 246, 247, 248, 249, 250, 251, 252, 253, 254, 255, 256, 257, 258, 259, 260, 261, 262, 263, 264, 265, 266, 267, 268, 269, 270, 271, 272, 273, 274, 275, 276, 277, 278, 279, 280, 281, 282, 283, 284, 285, 286, 287, 288, 289, 290, 291, 292, 293, 294, 295, 296, 297, 298, 299, 300, 301, 302, 303, 304, 305, 306, 307, 308, 309, 310, 311, 312, 313, 314, 315, 316, 317, 318, 319, 320, 321, 322, 323, 324, 325, 326, 327, 328, 329, 330, 331, 332, 333, 334, 335, 336, 337, 338, 339, 340, 341, 342, 343, 344, 345, 346, 347, 348, 349, 350, 351, 352, 353, 354, 355, 356, 357, 358, 359, 360, 361, 362, 363, 364, 365, 366, 367, 368, 369, 370, 371, 372, 373, 374, 375, 376, 377, 378, 379, 380, 381, 382, 383, 384, 385, 386, 387, 388, 389, 390, 391, 392, 393, 394, 395, 396, 397, 398, 399, 400, 401, 402, 403, 404, 405, 406, 407, 408, 409, 410, 411, 412, 413, 414, 415, 416, 417, 418, 419, 420, 421, 422, 423, 424, 425, 426, 427, 428, 429, 430, 431, 432, 433, 434, 435, 436, 437, 438, 439, 440, 441, 442, 443, 444, 445, 446, 447, 448, 449, 450, 451, 452, 453, 454, 455, 456, 457, 458, 459, 460, 461, 462, 463, 464, 465, 466, 467, 468, 469, 470, 471, 472, 473, 474, 475, 476, 477, 478, 479, 480, 481, 482, 483, 484, 485, 486, 487, 488, 489, 490, 491, 492, 493, 494, 495, 496, 497, 498, 499, 500, 501, 502, 503, 504, 505, 506, 507, 508, 509, 510, 511, 512, 513, 514, 515, 516, 517, 518, 519, 520, 521, 522, 523, 524, 525, 526, 527, 528, 529, 530, 531, 532, 533, 534, 535, 536, 537, 538, 539, 540, 541, 542, 543, 544, 545, 546, 547, 548, 549, 550, 551, 552],
      "AcquisitionTime": ["160716.565000", "160718.055000", "160719.545000", "160721.035000", "160722.525000", "160724.015000", "160725.505000", "160726.995000", "160728.485000", "160729.975000", "160731.465000", "160732.955000", "160734.445000", "160735.935000", "160737.425000", "160738.915000", "160740.405000", "160741.895000", "160743.385000", "160744.875000", "160746.365000", "160747.855000", "160749.345000", "160750.835000", "160752.325000", "160753.815000", "160755.305000", "160756.795000", "160758.285000", "160759.775000", "160801.265000", "160802.755000", "160804.245000", "160805.735000", "160807.225000", "160808.715000", "160810.205000", "160811.695000", "160813.185000", "160814.675000", "160816.165000", "160817.655000", "160819.145000", "160820.635000", "160822.125000", "160823.615000", "160825.105000", "160826.595000", "160828.085000", "160829.575000", "160831.065000", "160832.555000", "160834.045000", "160835.535000", "160837.025000", "160838.515000", "160840.005000", "160841.495000", "160842.985000", "160844.475000", "160845.965000", "160847.455000", "160848.945000", "160850.435000", "160851.925000", "160853.415000", "160854.905000", "160856.395000", "160857.885000", "160859.375000", "160900.865000", "160902.355000", "160903.845000", "160905.335000", "160906.825000", "160908.315000", "160909.805000", "160911.295000", "160912.785000", "160914.275000", "160915.765000", "160917.255000", "160918.745000", "160920.235000", "160921.725000", "160923.215000", "160924.705000", "160926.195000", "160927.685000", "160929.175000", "160930.665000", "160932.155000", "160933.645000", "160935.135000", "160936.625000", "160938.115000", "160939.605000", "160941.095000", "160942.585000", "160944.075000", "160945.565000", "160947.055000", "160948.545000", "160950.035000", "160951.525000", "160953.015000", "160954.505000", "160955.995000", "160957.485000", "160958.975000", "161000.465000", "161001.955000", "161003.445000", "161004.935000", "161006.425000", "161007.915000", "161009.405000", "161010.895000", "161012.385000", "161013.875000", "161015.365000", "161016.855000", "161018.345000", "161019.835000", "161021.325000", "161022.815000", "161024.305000", "161025.795000", "161027.285000", "161028.775000", "161030.265000", "161031.755000", "161033.245000", "161034.735000", "161036.225000", "161037.715000", "161039.205000", "161040.695000", "161042.185000", "161043.675000", "161045.165000", "161046.655000", "161048.145000", "161049.635000", "161051.125000", "161052.615000", "161054.105000", "161055.595000", "161057.085000", "161058.575000", "161100.065000", "161101.555000", "161103.045000", "161104.535000", "161106.025000", "161107.515000", "161109.005000", "161110.495000", "161111.985000", "161113.475000", "161114.965000", "161116.455000", "161117.945000", "161119.435000", "161120.925000", "161122.415000", "161123.905000", "161125.395000", "161126.885000", "161128.375000", "161129.865000", "161131.355000", "161132.845000", "161134.335000", "161135.825000", "161137.315000", "161138.805000", "161140.295000", "161141.785000", "161143.275000", "161144.765000", "161146.255000", "161147.745000", "161149.235000", "161150.725000", "161152.215000", "161153.705000", "161155.195000", "161156.685000", "161158.175000", "161159.665000", "161201.155000", "161202.645000", "161204.135000", "161205.625000", "161207.115000", "161208.605000", "161210.095000", "161211.585000", "161213.075000", "161214.565000", "161216.055000", "161217.545000", "161219.035000", "161220.525000", "161222.015000", "161223.505000", "161224.995000", "161226.485000", "161227.975000", "161229.465000", "161230.955000", "161232.445000", "161233.935000", "161235.425000", "161236.915000", "161238.405000", "161239.895000", "161241.385000", "161242.875000", "161244.365000", "161245.855000", "161247.345000", "161248.835000", "161250.325000", "161251.815000", "161253.305000", "161254.795000", "161256.285000", "161257.775000", "161259.265000", "161300.755000", "161302.245000", "161303.735000", "161305.225000", "161306.715000", "161308.205000", "161309.695000", "161311.185000", "161312.675000", "161314.165000", "161315.655000", "161317.145000", "161318.635000", "161320.125000", "161321.615000", "161323.105000", "161324.595000", "161326.085000", "161327.575000", "161329.065000", "161330.555000", "161332.045000", "161333.535000", "161335.025000", "161336.515000", "161338.005000", "161339.495000", "161340.985000", "161342.475000", "161343.965000", "161345.455000", "161346.945000", "161348.435000", "161349.925000", "161351.415000", "161352.905000", "161354.395000", "161355.885000", "161357.375000", "161358.865000", "161400.355000", "161401.845000", "161403.335000", "161404.825000", "161406.315000", "161407.805000", "161409.295000", "161410.785000", "161412.275000", "161413.765000", "161415.255000", "161416.745000", "161418.235000", "161419.725000", "161421.215000", "161422.705000", "161424.195000", "161425.685000", "161427.175000", "161428.665000", "161430.155000", "161431.645000", "161433.135000", "161434.625000", "161436.115000", "161437.605000", "161439.095000", "161440.585000", "161442.075000", "161443.565000", "161445.055000", "161446.545000", "161448.035000", "161449.525000", "161451.015000", "161452.505000", "161453.995000", "161455.485000", "161456.975000", "161458.465000", "161459.955000", "161501.445000", "161502.935000", "161504.425000", "161505.915000", "161507.405000", "161508.895000", "161510.385000", "161511.875000", "161513.365000", "161514.855000", "161516.345000", "161517.835000", "161519.325000", "161520.815000", "161522.305000", "161523.795000", "161525.285000", "161526.775000", "161528.265000", "161529.755000", "161531.245000", "161532.735000", "161534.225000", "161535.715000", "161537.205000", "161538.695000", "161540.185000", "161541.675000", "161543.165000", "161544.655000", "161546.145000", "161547.635000", "161549.125000", "161550.615000", "161552.105000", "161553.595000", "161555.085000", "161556.575000", "161558.065000", "161559.555000", "161601.045000", "161602.535000", "161604.025000", "161605.515000", "161607.005000", "161608.495000", "161609.985000", "161611.475000", "161612.965000", "161614.455000", "161615.945000", "161617.435000", "161618.925000", "161620.415000", "161621.905000", "161623.395000", "161624.885000", "161626.375000", "161627.865000", "161629.355000", "161630.845000", "161632.335000", "161633.825000", "161635.315000", "161636.805000", "161638.295000", "161639.785000", "161641.275000", "161642.765000", "161644.255000", "161645.745000", "161647.235000", "161648.725000", "161650.215000", "161651.705000", "161653.195000", "161654.685000", "161656.175000", "161657.665000", "161659.155000", "161700.645000", "161702.135000", "161703.625000", "161705.115000", "161706.605000", "161708.095000", "161709.585000", "161711.075000", "161712.565000", "161714.055000", "161715.545000", "161717.035000", "161718.525000", "161720.015000", "161721.505000", "161722.995000", "161724.485000", "161725.975000", "161727.465000", "161728.955000", "161730.445000", "161731.935000", "161733.425000", "161734.915000", "161736.405000", "161737.895000", "161739.385000", "161740.875000", "161742.365000", "161743.855000", "161745.345000", "161746.835000", "161748.325000", "161749.815000", "161751.305000", "161752.795000", "161754.285000", "161755.775000", "161757.265000", "161758.755000", "161800.245000", "161801.735000", "161803.225000", "161804.715000", "161806.205000", "161807.695000", "161809.185000", "161810.675000", "161812.165000", "161813.655000", "161815.145000", "161816.635000", "161818.125000", "161819.615000", "161821.105000", "161822.595000", "161824.085000", "161825.575000", "161827.065000", "161828.555000", "161830.045000", "161831.535000", "161833.025000", "161834.515000", "161836.005000", "161837.495000", "161838.985000", "161840.475000", "161841.965000", "161843.455000", "161844.945000", "161846.435000", "161847.925000", "161849.415000", "161850.905000", "161852.395000", "161853.885000", "161855.375000", "161856.865000", "161858.355000", "161859.845000", "161901.335000", "161902.825000", "161904.315000", "161905.805000", "161907.295000", "161908.785000", "161910.275000", "161911.765000", "161913.255000", "161914.745000", "161916.235000", "161917.725000", "161919.215000", "161920.705000", "161922.195000", "161923.685000", "161925.175000", "161926.665000", "161928.155000", "161929.645000", "161931.135000", "161932.625000", "161934.115000", "161935.605000", "161937.095000", "161938.585000", "161940.075000", "161941.565000", "161943.055000", "161944.545000", "161946.035000", "161947.525000", "161949.015000", "161950.505000", "161951.995000", "161953.485000", "161954.975000", "161956.465000", "161957.955000", "161959.445000", "162000.935000", "162002.425000", "162003.915000", "162005.405000", "162006.895000", "162008.385000", "162009.875000", "162011.365000", "162012.855000", "162014.345000", "162015.835000", "162017.325000", "162018.815000", "162020.305000", "162021.795000", "162023.285000", "162024.775000", "162026.265000", "162027.755000", "162029.245000", "162030.735000", "162032.225000", "162033.715000", "162035.205000", "162036.695000", "162038.185000", "162039.675000", "162041.165000", "162042.655000", "162044.145000", "162045.635000", "162047.125000", "162048.615000", "162050.105000", "162051.595000", "162053.085000", "162054.575000", "162056.065000", "162057.555000"],
      "ContentTime": ["160832.278000", "160832.282000", "160832.285000", "160832.289000", "160832.292000", "160832.295000", "160832.299000", "160832.302000", "160832.305000", "160832.308000", "160832.312000", "160832.315000", "160832.318000", "160832.322000", "160832.325000", "160832.328000", "160832.331000", "160832.334000", "160832.338000", "160832.341000", "160832.344000", "160832.367000", "160832.371000", "160852.234000", "160852.238000", "160852.241000", "160852.244000", "160852.247000", "160852.251000", "160852.259000", "160852.262000", "160852.266000", "160852.269000", "160852.272000", "160852.275000", "160852.279000", "160852.282000", "160852.285000", "160852.288000", "160852.292000", "160852.295000", "160852.298000", "160852.301000", "160912.234000", "160912.238000", "160912.241000", "160912.244000", "160912.248000", "160912.251000", "160912.254000", "160912.257000", "160912.261000", "160912.264000", "160912.268000", "160912.271000", "160912.274000", "160912.277000", "160912.281000", "160912.284000", "160912.287000", "160912.290000", "160912.294000", "160912.297000", "160932.234000", "160932.238000", "160932.241000", "160932.244000", "160932.248000", "160932.251000", "160932.254000", "160932.257000", "160932.261000", "160932.264000", "160932.268000", "160932.271000", "160932.274000", "160932.278000", "160932.281000", "160932.284000", "160932.288000", "160932.291000", "160932.294000", "160932.298000", "160952.235000", "160952.239000", "160952.243000", "160952.246000", "160952.249000", "160952.252000", "160952.256000", "160952.259000", "160952.262000", "160952.265000", "160952.269000", "160952.272000", "160952.275000", "160952.279000", "160952.282000", "160952.285000", "160952.289000", "160952.292000", "160952.296000", "160952.299000", "161032.234000", "161032.238000", "161032.241000", "161032.244000", "161032.248000", "161032.251000", "161032.254000", "161032.258000", "161032.261000", "161032.264000", "161032.268000", "161032.271000", "161032.274000", "161032.277000", "161032.281000", "161032.284000", "161032.287000", "161032.290000", "161032.309000", "161032.312000", "161032.315000", "161032.319000", "161032.322000", "161032.325000", "161032.329000", "161032.332000", "161032.335000", "161112.234000", "161112.238000", "161112.241000", "161112.244000", "161112.248000", "161112.251000", "161112.254000", "161112.258000", "161112.261000", "161112.264000", "161112.268000", "161112.271000", "161112.275000", "161112.278000", "161112.281000", "161112.284000", "161112.288000", "161112.291000", "161112.294000", "161112.298000", "161112.301000", "161112.304000", "161112.308000", "161112.311000", "161112.314000", "161112.317000", "161112.321000", "161152.234000", "161152.238000", "161152.241000", "161152.245000", "161152.248000", "161152.251000", "161152.255000", "161152.258000", "161152.261000", "161152.264000", "161152.268000", "161152.271000", "161152.275000", "161152.278000", "161152.281000", "161152.285000", "161152.288000", "161152.291000", "161152.295000", "161152.298000", "161152.301000", "161152.304000", "161152.308000", "161152.311000", "161152.314000", "161152.317000", "161152.321000", "161232.234000", "161232.238000", "161232.241000", "161232.244000", "161232.262000", "161232.265000", "161232.269000", "161232.272000", "161232.275000", "161232.279000", "161232.282000", "161232.285000", "161232.288000", "161232.292000", "161232.295000", "161232.298000", "161232.302000", "161232.305000", "161232.308000", "161232.311000", "161232.315000", "161232.318000", "161232.321000", "161232.324000", "161232.328000", "161232.331000", "161232.334000", "161312.234000", "161312.238000", "161312.241000", "161312.245000", "161312.248000", "161312.251000", "161312.254000", "161312.258000", "161312.261000", "161312.277000", "161312.290000", "161312.293000", "161312.296000", "161312.299000", "161312.303000", "161312.306000", "161312.309000", "161312.313000", "161312.318000", "161312.321000", "161312.324000", "161312.328000", "161312.331000", "161312.334000", "161312.338000", "161312.341000", "161312.344000", "161352.234000", "161352.238000", "161352.241000", "161352.244000", "161352.248000", "161352.251000", "161352.254000", "161352.258000", "161352.261000", "161352.264000", "161352.268000", "161352.271000", "161352.275000", "161352.278000", "161352.282000", "161352.285000", "161352.289000", "161352.292000", "161352.295000", "161352.298000", "161352.302000", "161352.305000", "161352.308000", "161352.311000", "161352.315000", "161352.318000", "161432.233000", "161432.237000", "161432.240000", "161432.243000", "161432.247000", "161432.250000", "161432.253000", "161432.257000", "161432.260000", "161432.263000", "161432.267000", "161432.270000", "161432.273000", "161432.277000", "161432.280000", "161432.283000", "161432.287000", "161432.290000", "161432.293000", "161432.297000", "161432.300000", "161432.303000", "161432.306000", "161432.310000", "161432.313000", "161432.316000", "161432.320000", "161512.234000", "161512.238000", "161512.241000", "161512.245000", "161512.248000", "161512.251000", "161512.255000", "161512.258000", "161512.261000", "161512.265000", "161512.268000", "161512.271000", "161512.274000", "161512.278000", "161512.281000", "161512.284000", "161512.288000", "161512.291000", "161512.295000", "161512.299000", "161512.302000", "161512.305000", "161512.309000", "161512.312000", "161512.315000", "161512.319000", "161512.322000", "161552.234000", "161552.238000", "161552.241000", "161552.244000", "161552.248000", "161552.262000", "161552.265000", "161552.269000", "161552.272000", "161552.275000", "161552.279000", "161552.282000", "161552.285000", "161552.289000", "161552.292000", "161552.295000", "161552.304000", "161552.307000", "161552.310000", "161552.313000", "161552.317000", "161552.320000", "161552.323000", "161552.326000", "161552.330000", "161552.333000", "161552.336000", "161632.234000", "161632.238000", "161632.241000", "161632.245000", "161632.248000", "161632.251000", "161632.255000", "161632.258000", "161632.261000", "161632.264000", "161632.268000", "161632.271000", "161632.274000", "161632.278000", "161632.281000", "161632.284000", "161632.288000", "161632.291000", "161632.294000", "161632.298000", "161632.301000", "161632.304000", "161632.307000", "161632.311000", "161632.314000", "161632.319000", "161632.322000", "161652.233000", "161652.237000", "161652.240000", "161652.243000", "161652.247000", "161652.250000", "161652.253000", "161652.257000", "161652.260000", "161652.264000", "161652.267000", "161652.270000", "161652.274000", "161732.234000", "161732.238000", "161732.241000", "161732.245000", "161732.248000", "161732.251000", "161732.255000", "161732.258000", "161732.261000", "161732.264000", "161732.268000", "161732.271000", "161732.274000", "161732.278000", "161732.281000", "161732.284000", "161732.288000", "161732.291000", "161732.294000", "161732.297000", "161732.301000", "161732.304000", "161732.307000", "161732.310000", "161732.331000", "161732.342000", "161732.345000", "161812.234000", "161812.238000", "161812.241000", "161812.245000", "161812.248000", "161812.251000", "161812.254000", "161812.258000", "161812.261000", "161812.264000", "161812.268000", "161812.271000", "161812.274000", "161812.278000", "161812.281000", "161812.284000", "161812.288000", "161812.291000", "161812.294000", "161812.298000", "161812.301000", "161812.304000", "161812.307000", "161812.311000", "161812.314000", "161812.317000", "161812.320000", "161852.234000", "161852.238000", "161852.241000", "161852.245000", "161852.248000", "161852.251000", "161852.255000", "161852.258000", "161852.261000", "161852.265000", "161852.268000", "161852.271000", "161852.274000", "161852.278000", "161852.281000", "161852.284000", "161852.288000", "161852.291000", "161852.294000", "161852.298000", "161852.301000", "161852.304000", "161852.307000", "161852.311000", "161852.314000", "161852.317000", "161852.321000", "161932.234000", "161932.238000", "161932.241000", "161932.245000", "161932.248000", "161932.251000", "161932.254000", "161932.258000", "161932.261000", "161932.265000", "161932.268000", "161932.271000", "161932.274000", "161932.278000", "161932.281000", "161932.284000", "161932.288000", "161932.291000", "161932.294000", "161932.297000", "161932.301000", "161932.304000", "161932.307000", "161932.311000", "161932.314000", "161932.317000", "161932.320000", "162012.234000", "162012.238000", "162012.241000", "162012.245000", "162012.248000", "162012.251000", "162012.255000", "162012.258000", "162012.261000", "162012.265000", "162012.268000", "162012.271000", "162012.275000", "162012.278000", "162012.281000", "162012.285000", "162012.288000", "162012.291000", "162012.295000", "162012.298000", "162012.301000", "162012.304000", "162012.308000", "162012.311000", "162012.314000", "162012.318000", "162052.234000", "162052.238000", "162052.241000", "162052.245000", "162052.248000", "162052.251000", "162052.255000", "162052.258000", "162052.261000", "162052.265000", "162052.268000", "162052.271000", "162052.274000", "162052.278000", "162052.281000", "162052.284000", "162052.288000", "162052.291000", "162052.294000", "162052.298000", "162052.301000", "162052.304000", "162052.307000", "162052.311000", "162052.314000", "162052.317000", "162052.320000", "162101.340000", "162101.343000", "162101.347000", "162101.350000", "162101.353000", "162101.356000"],
