{
  "AcquisitionMatrixPE": 104,
  "AcquisitionNumber": 1,
  "AcquisitionTime": "15:29:32.705000",
  "BandwidthPerPixelPhaseEncode": 17.17,
  "BaseResolution": 104,
  "BodyPartExamined": "BRAIN",
  "CoilString": "HC1-7;NC1_2",
  "ConsistencyInfo": "N4_VE11C_LATEST_20160120",
  "ConversionSoftware": "dcm2niix",
  "ConversionSoftwareVersion": "v1.0.20190902",
  "DerivedVendorReportedEchoSpacing": 0.000560011,
  "DeviceSerialNumber": "167006",
  "DwellTime": 2.1e-06,
  "EchoTime": 0.037,
  "EchoTrainLength": 104,
  "EffectiveEchoSpacing": 0.000560011,
  "FlipAngle": 52,
  "HeudiconvVersion": "0.10.0",
  "ImageComments": "Unaliased_MB4_PE3_LB",
  "ImageOrientationPatientDICOM": [0.998895, -0.041305, 0.0224031, 0.0464078, 0.94197, -0.332473],
  "ImageType": [
    "ORIGINAL",
    "PRIMARY",
    "M",
    "MB",
    "ND",
    "MOSAIC"
],
  "ImagingFrequency": 123.259,
  "InPlanePhaseEncodingDirectionDICOM": "COL",
  "InstitutionAddress": "Chemin_Queen-Mary_4565_Montreal_District_CA_H3W_1W5",
  "InstitutionName": "IUGM",
  "InstitutionalDepartmentName": "Department",
  "MRAcquisitionType": "2D",
  "MagneticFieldStrength": 3,
  "Manufacturer": "Siemens",
  "ManufacturersModelName": "Prisma_fit",
  "Modality": "MR",
  "MultibandAccelerationFactor": 4,
  "PartialFourier": 1,
  "PatientPosition": "HFS",
  "PercentPhaseFOV": 100,
  "PhaseEncodingDirection": "j",
  "PhaseEncodingSteps": 104,
  "PhaseResolution": 1,
  "PixelBandwidth": 2290,
  "ProcedureStepDescription": "games_mario",
  "ProtocolName": "func_task-mario_run-01",
  "PulseSequenceDetails": "%CustomerSeq%_cmrr_mbep2d_bold",
  "ReceiveCoilActiveElements": "HC1-7;NC1,2",
  "ReceiveCoilName": "HeadNeck_64",
  "ReconMatrixPE": 104,
  "RepetitionTime": 1.49,
  "SAR": 0.034448,
  "ScanOptions": "FS",
  "ScanningSequence": "EP",
  "SequenceName": "epfid2d1_104",
  "SequenceVariant": "SK_SS",
  "SeriesDescription": "func_task-mario_run-01",
  "SeriesNumber": 13,
  "ShimSetting": [627, -7261, -8807, 676, 24, -220, -56, -23],
  "SliceThickness": 2,
  "SliceTiming": [0, 0.785, 0.0975, 0.8825, 0.1975, 0.98, 0.295, 1.0775, 0.3925, 1.1775, 0.49, 1.275, 0.5875, 1.3725, 0.6875, 0, 0.785, 0.0975, 0.8825, 0.1975, 0.98, 0.295, 1.0775, 0.3925, 1.1775, 0.49, 1.275, 0.5875, 1.3725, 0.6875, 0, 0.785, 0.0975, 0.8825, 0.1975, 0.98, 0.295, 1.0775, 0.3925, 1.1775, 0.49, 1.275, 0.5875, 1.3725, 0.6875, 0, 0.785, 0.0975, 0.8825, 0.1975, 0.98, 0.295, 1.0775, 0.3925, 1.1775, 0.49, 1.275, 0.5875, 1.3725, 0.6875],
  "SoftwareVersions": "syngo_MR_E11",
  "SpacingBetweenSlices": 2,
  "StationName": "MRC35049",
  "TaskName": "mario",
  "TotalReadoutTime": 0.0576811,
  "TxRefAmp": 222.044,
  "WipMemBlock": "b726ef86-eae2-43d3-a74a-bac49506e659||Sequence: R016 ve11c/master r/e634e98; Dec 19 2017 11:00:25 by eja",
  "dcmmeta_affine": [
    [-1.997790813446045, 0.09281562268733978, 0.014740513637661934, 101.73567962646484],
    [0.08261008560657501, 1.8839408159255981, -0.666290283203125, -69.32781219482422],
    [0.04480620101094246, 0.6649454832077026, 1.8856934309005737, -60.207313537597656],
    [0.0, 0.0, 0.0, 1.0]
],
  "dcmmeta_reorient_transform": [
    [0.0, -1.0, 0.0, 103.0],
    [1.0, 0.0, 0.0, 0.0],
    [0.0, 0.0, 1.0, 0.0],
    [0.0, 0.0, 0.0, 1.0]
],
  "dcmmeta_shape": [104, 104, 60, 450],
  "dcmmeta_slice_dim": 2,
  "dcmmeta_version": 0.6,
  "global": {
    "const": {
      "AcquisitionMatrix": [104, 0, 0, 104],
      "AngioFlag": "N",
      "BitsAllocated": 16,
      "BitsStored": 16,
      "BodyPartExamined": "BRAIN",
      "Columns": 832,
      "EchoNumbers": 1,
      "EchoTime": 37.0,
      "EchoTrainLength": 104,
      "FlipAngle": 52.0,
      "HighBit": 15,
      "ImageOrientationPatient": [0.99889538709406, -0.0413050443593, 0.02240310140751, 0.0464078113421, 0.94197038049566, -0.3324727316868],
      "ImagePositionPatient": [-872.27641975786, -780.40245073294, 234.01275867106],
      "ImageType": [
        "ORIGINAL",
        "PRIMARY",
        "M",
        "MB",
        "ND",
        "MOSAIC"
],
      "ImagedNucleus": "1H",
      "ImagingFrequency": 123.25887,
      "InPlanePhaseEncodingDirection": "COL",
      "MRAcquisitionType": "2D",
      "MagneticFieldStrength": 3.0,
      "Manufacturer": "SIEMENS",
      "ManufacturerModelName": "Prisma_fit",
      "Modality": "MR",
      "NumberOfAverages": 1.0,
      "NumberOfPhaseEncodingSteps": 104,
      "PercentPhaseFieldOfView": 100.0,
      "PercentSampling": 100.0,
      "PerformedProcedureStepStartTime": "145911.773000",
      "PhotometricInterpretation": "MONOCHROME2",
      "PixelBandwidth": 2290.0,
      "PixelRepresentation": 0,
      "PixelSpacing": [2.0, 2.0],
      "ProtocolName": "func_task-mario_run-01",
      "RepetitionTime": 1490.0,
      "Rows": 832,
      "SAR": 0.03444799294017,
      "SamplesPerPixel": 1,
      "ScanOptions": "FS",
      "ScanningSequence": "EP",
      "SequenceName": "epfid2d1_104",
      "SequenceVariant": [
        "SK",
        "SS"
],
      "SeriesDescription": "func_task-mario_run-01",
      "SeriesNumber": 13,
      "SeriesTime": "153052.268000",
      "SliceLocation": -32.92022779938,
      "SliceThickness": 2.0,
      "SmallestImagePixelValue": 0,
      "SoftwareVersions": "syngo MR E11",
      "SpacingBetweenSlices": 1.9999999764286,
      "SpecificCharacterSet": "ISO_IR 100",
      "StudyID": "1",
      "StudyTime": "145911.667000",
      "TransmitCoilName": "Body",
      "VariableFlipAngleFlag": "N",
      "WindowCenterWidthExplanation": "Algo1",
      "dBdt": 0.0},
    "slices": {}
  },
  "time": {
    "samples": {
      "AcquisitionNumber": [1, 2, 3, 4, 5, 6, 7, 8, 9, 10, 11, 12, 13, 14, 15, 16, 17, 18, 19, 20, 21, 22, 23, 24, 25, 26, 27, 28, 29, 30, 31, 32, 33, 34, 35, 36, 37, 38, 39, 40, 41, 42, 43, 44, 45, 46, 47, 48, 49, 50, 51, 52, 53, 54, 55, 56, 57, 58, 59, 60, 61, 62, 63, 64, 65, 66, 67, 68, 69, 70, 71, 72, 73, 74, 75, 76, 77, 78, 79, 80, 81, 82, 83, 84, 85, 86, 87, 88, 89, 90, 91, 92, 93, 94, 95, 96, 97, 98, 99, 100, 101, 102, 103, 104, 105, 106, 107, 108, 109, 110, 111, 112, 113, 114, 115, 116, 117, 118, 119, 120, 121, 122, 123, 124, 125, 126, 127, 128, 129, 130, 131, 132, 133, 134, 135, 136, 137, 138, 139, 140, 141, 142, 143, 144, 145, 146, 147, 148, 149, 150, 151, 152, 153, 154, 155, 156, 157, 158, 159, 160, 161, 162, 163, 164, 165, 166, 167, 168, 169, 170, 171, 172, 173, 174, 175, 176, 177, 178, 179, 180, 181, 182, 183, 184, 185, 186, 187, 188, 189, 190, 191, 192, 193, 194, 195, 196, 197, 198, 199, 200, 201, 202, 203, 204, 205, 206, 207, 208, 209, 210, 211, 212, 213, 214, 215, 216, 217, 218, 219, 220, 221, 222, 223, 224, 225, 226, 227, 228, 229, 230, 231, 232, 233, 234, 235, 236, 237, 238, 239, 240, 241, 242, 243, 244, 245, 246, 247, 248, 249, 250, 251, 252, 253, 254, 255, 256, 257, 258, 259, 260, 261, 262, 263, 264, 265, 266, 267, 268, 269, 270, 271, 272, 273, 274, 275, 276, 277, 278, 279, 280, 281, 282, 283, 284, 285, 286, 287, 288, 289, 290, 291, 292, 293, 294, 295, 296, 297, 298, 299, 300, 301, 302, 303, 304, 305, 306, 307, 308, 309, 310, 311, 312, 313, 314, 315, 316, 317, 318, 319, 320, 321, 322, 323, 324, 325, 326, 327, 328, 329, 330, 331, 332, 333, 334, 335, 336, 337, 338, 339, 340, 341, 342, 343, 344, 345, 346, 347, 348, 349, 350, 351, 352, 353, 354, 355, 356, 357, 358, 359, 360, 361, 362, 363, 364, 365, 366, 367, 368, 369, 370, 371, 372, 373, 374, 375, 376, 377, 378, 379, 380, 381, 382, 383, 384, 385, 386, 387, 388, 389, 390, 391, 392, 393, 394, 395, 396, 397, 398, 399, 400, 401, 402, 403, 404, 405, 406, 407, 408, 409, 410, 411, 412, 413, 414, 415, 416, 417, 418, 419, 420, 421, 422, 423, 424, 425, 426, 427, 428, 429, 430, 431, 432, 433, 434, 435, 436, 437, 438, 439, 440, 441, 442, 443, 444, 445, 446, 447, 448, 449, 450],
      "AcquisitionTime": ["152932.705000", "152934.195000", "152935.685000", "152937.175000", "152938.665000", "152940.155000", "152941.645000", "152943.135000", "152944.625000", "152946.115000", "152947.605000", "152949.095000", "152950.585000", "152952.075000", "152953.565000", "152955.055000", "152956.545000", "152958.035000", "152959.525000", "153001.015000", "153002.505000", "153003.995000", "153005.485000", "153006.975000", "153008.465000", "153009.955000", "153011.445000", "153012.935000", "153014.425000", "153015.915000", "153017.405000", "153018.895000", "153020.385000", "153021.875000", "153023.365000", "153024.855000", "153026.345000", "153027.835000", "153029.325000", "153030.815000", "153032.305000", "153033.795000", "153035.285000", "153036.775000", "153038.265000", "153039.755000", "153041.245000", "153042.735000", "153044.225000", "153045.715000", "153047.205000", "153048.695000", "153050.185000", "153051.675000", "153053.165000", "153054.655000", "153056.145000", "153057.635000", "153059.125000", "153100.615000", "153102.105000", "153103.595000", "153105.085000", "153106.575000", "153108.065000", "153109.555000", "153111.045000", "153112.535000", "153114.025000", "153115.515000", "153117.005000", "153118.495000", "153119.985000", "153121.475000", "153122.965000", "153124.455000", "153125.945000", "153127.435000", "153128.925000", "153130.415000", "153131.905000", "153133.395000", "153134.885000", "153136.375000", "153137.865000", "153139.355000", "153140.845000", "153142.335000", "153143.825000", "153145.315000", "153146.805000", "153148.295000", "153149.785000", "153151.275000", "153152.765000", "153154.255000", "153155.745000", "153157.235000", "153158.725000", "153200.215000", "153201.705000", "153203.195000", "153204.685000", "153206.175000", "153207.665000", "153209.155000", "153210.645000", "153212.135000", "153213.625000", "153215.115000", "153216.605000", "153218.095000", "153219.585000", "153221.075000", "153222.565000", "153224.055000", "153225.545000", "153227.035000", "153228.525000", "153230.015000", "153231.505000", "153232.995000", "153234.485000", "153235.975000", "153237.465000", "153238.955000", "153240.445000", "153241.935000", "153243.425000", "153244.915000", "153246.405000", "153247.895000", "153249.385000", "153250.875000", "153252.365000", "153253.855000", "153255.345000", "153256.835000", "153258.325000", "153259.815000", "153301.305000", "153302.795000", "153304.285000", "153305.775000", "153307.265000", "153308.755000", "153310.245000", "153311.735000", "153313.225000", "153314.715000", "153316.205000", "153317.695000", "153319.185000", "153320.675000", "153322.165000", "153323.655000", "153325.145000", "153326.635000", "153328.125000", "153329.615000", "153331.105000", "153332.595000", "153334.085000", "153335.575000", "153337.065000", "153338.555000", "153340.045000", "153341.535000", "153343.025000", "153344.515000", "153346.005000", "153347.495000", "153348.985000", "153350.475000", "153351.965000", "153353.455000", "153354.945000", "153356.435000", "153357.925000", "153359.415000", "153400.905000", "153402.395000", "153403.885000", "153405.375000", "153406.865000", "153408.355000", "153409.845000", "153411.335000", "153412.825000", "153414.315000", "153415.805000", "153417.295000", "153418.785000", "153420.275000", "153421.765000", "153423.255000", "153424.745000", "153426.235000", "153427.725000", "153429.215000", "153430.705000", "153432.195000", "153433.685000", "153435.175000", "153436.665000", "153438.155000", "153439.645000", "153441.135000", "153442.625000", "153444.115000", "153445.605000", "153447.095000", "153448.585000", "153450.075000", "153451.565000", "153453.055000", "153454.545000", "153456.035000", "153457.525000", "153459.015000", "153500.505000", "153501.995000", "153503.485000", "153504.975000", "153506.465000", "153507.955000", "153509.445000", "153510.935000", "153512.425000", "153513.915000", "153515.405000", "153516.895000", "153518.385000", "153519.875000", "153521.365000", "153522.855000", "153524.345000", "153525.835000", "153527.325000", "153528.815000", "153530.305000", "153531.795000", "153533.285000", "153534.775000", "153536.265000", "153537.755000", "153539.245000", "153540.735000", "153542.225000", "153543.715000", "153545.205000", "153546.695000", "153548.185000", "153549.675000", "153551.165000", "153552.655000", "153554.145000", "153555.635000", "153557.125000", "153558.615000", "153600.105000", "153601.595000", "153603.085000", "153604.575000", "153606.065000", "153607.555000", "153609.045000", "153610.535000", "153612.025000", "153613.515000", "153615.005000", "153616.495000", "153617.985000", "153619.475000", "153620.965000", "153622.455000", "153623.945000", "153625.435000", "153626.925000", "153628.415000", "153629.905000", "153631.395000", "153632.885000", "153634.375000", "153635.865000", "153637.355000", "153638.845000", "153640.335000", "153641.825000", "153643.315000", "153644.805000", "153646.295000", "153647.785000", "153649.275000", "153650.765000", "153652.255000", "153653.745000", "153655.235000", "153656.725000", "153658.215000", "153659.705000", "153701.195000", "153702.685000", "153704.175000", "153705.665000", "153707.155000", "153708.645000", "153710.135000", "153711.625000", "153713.115000", "153714.605000", "153716.095000", "153717.585000", "153719.075000", "153720.565000", "153722.055000", "153723.545000", "153725.035000", "153726.525000", "153728.015000", "153729.505000", "153730.995000", "153732.485000", "153733.975000", "153735.465000", "153736.955000", "153738.445000", "153739.935000", "153741.425000", "153742.915000", "153744.405000", "153745.895000", "153747.385000", "153748.875000", "153750.365000", "153751.855000", "153753.345000", "153754.835000", "153756.325000", "153757.815000", "153759.305000", "153800.795000", "153802.285000", "153803.775000", "153805.265000", "153806.755000", "153808.245000", "153809.735000", "153811.225000", "153812.715000", "153814.205000", "153815.695000", "153817.185000", "153818.675000", "153820.165000", "153821.655000", "153823.145000", "153824.635000", "153826.125000", "153827.615000", "153829.105000", "153830.595000", "153832.085000", "153833.575000", "153835.065000", "153836.555000", "153838.045000", "153839.535000", "153841.025000", "153842.515000", "153844.005000", "153845.495000", "153846.985000", "153848.475000", "153849.965000", "153851.455000", "153852.945000", "153854.435000", "153855.925000", "153857.415000", "153858.905000", "153900.395000", "153901.885000", "153903.375000", "153904.865000", "153906.355000", "153907.845000", "153909.335000", "153910.825000", "153912.315000", "153913.805000", "153915.295000", "153916.785000", "153918.275000", "153919.765000", "153921.255000", "153922.745000", "153924.235000", "153925.725000", "153927.215000", "153928.705000", "153930.195000", "153931.685000", "153933.175000", "153934.665000", "153936.155000", "153937.645000", "153939.135000", "153940.625000", "153942.115000", "153943.605000", "153945.095000", "153946.585000", "153948.075000", "153949.565000", "153951.055000", "153952.545000", "153954.035000", "153955.525000", "153957.015000", "153958.505000", "153959.995000", "154001.485000", "154002.975000", "154004.465000", "154005.955000", "154007.445000", "154008.935000", "154010.425000", "154011.915000", "154013.405000", "154014.895000", "154016.385000", "154017.875000", "154019.365000", "154020.855000", "154022.345000", "154023.835000", "154025.325000", "154026.815000", "154028.305000", "154029.795000", "154031.285000", "154032.775000", "154034.265000", "154035.755000", "154037.245000", "154038.735000", "154040.225000", "154041.715000"],
      "ContentTime": ["153052.271000", "153052.275000", "153052.278000", "153052.281000", "153052.285000", "153052.288000", "153052.291000", "153052.295000", "153052.298000", "153052.306000", "153052.309000", "153052.313000", "153052.316000", "153052.319000", "153052.323000", "153052.326000", "153052.329000", "153052.332000", "153052.336000", "153052.339000", "153052.342000", "153052.345000", "153052.349000", "153112.234000", "153112.238000", "153112.241000", "153112.244000", "153112.248000", "153112.251000", "153112.254000", "153112.257000", "153112.261000", "153112.264000", "153112.267000", "153112.271000", "153112.274000", "153112.277000", "153112.281000", "153112.284000", "153112.287000", "153112.290000", "153112.294000", "153112.297000", "153132.234000", "153132.237000", "153132.241000", "153132.244000", "153132.247000", "153132.251000", "153132.254000", "153132.257000", "153132.260000", "153132.264000", "153132.267000", "153132.270000", "153132.274000", "153132.277000", "153132.280000", "153132.283000", "153132.287000", "153132.290000", "153132.293000", "153132.296000", "153132.300000", "153152.234000", "153152.251000", "153152.254000", "153152.257000", "153152.261000", "153152.264000", "153152.267000", "153152.271000", "153152.274000", "153152.277000", "153152.280000", "153152.284000", "153152.287000", "153152.290000", "153152.294000", "153152.297000", "153152.300000", "153152.303000", "153152.307000", "153152.310000", "153212.234000", "153212.238000", "153212.241000", "153212.244000", "153212.248000", "153212.251000", "153212.254000", "153212.257000", "153212.261000", "153212.264000", "153212.268000", "153212.271000", "153212.275000", "153212.278000", "153212.281000", "153212.284000", "153212.288000", "153212.291000", "153212.294000", "153212.298000", "153252.233000", "153252.237000", "153252.240000", "153252.243000", "153252.247000", "153252.250000", "153252.253000", "153252.256000", "153252.260000", "153252.263000", "153252.266000", "153252.270000", "153252.273000", "153252.276000", "153252.279000", "153252.283000", "153252.286000", "153252.289000", "153252.293000", "153252.296000", "153252.299000", "153252.303000", "153252.306000", "153252.309000", "153252.312000", "153252.316000", "153252.319000", "153252.322000", "153252.325000", "153332.234000", "153332.238000", "153332.241000", "153332.244000", "153332.247000", "153332.251000", "153332.254000", "153332.258000", "153332.261000", "153332.264000", "153332.267000", "153332.271000", "153332.274000", "153332.277000", "153332.281000", "153332.284000", "153332.287000", "153332.291000", "153332.294000", "153332.297000", "153332.300000", "153332.304000", "153332.307000", "153332.310000", "153332.313000", "153332.317000", "153332.320000", "153412.234000", "153412.238000", "153412.241000", "153412.244000", "153412.248000", "153412.251000", "153412.265000", "153412.269000", "153412.272000", "153412.275000", "153412.279000", "153412.282000", "153412.285000", "153412.289000", "153412.292000", "153412.295000", "153412.299000", "153412.302000", "153412.305000", "153412.308000", "153412.312000", "153412.315000", "153412.318000", "153412.322000", "153412.325000", "153412.328000", "153412.331000", "153452.234000", "153452.238000", "153452.241000", "153452.245000", "153452.248000", "153452.251000", "153452.262000", "153452.266000", "153452.270000", "153452.275000", "153452.278000", "153452.281000", "153452.285000", "153452.288000", "153452.291000", "153452.295000", "153452.298000", "153452.301000", "153452.305000", "153452.308000", "153452.311000", "153452.314000", "153452.318000", "153452.321000", "153452.324000", "153452.328000", "153532.234000", "153532.238000", "153532.241000", "153532.245000", "153532.248000", "153532.251000", "153532.254000", "153532.258000", "153532.261000", "153532.264000", "153532.268000", "153532.271000", "153532.274000", "153532.277000", "153532.281000", "153532.284000", "153532.288000", "153532.291000", "153532.294000", "153532.297000", "153532.301000", "153532.304000", "153532.307000", "153532.311000", "153532.314000", "153532.317000", "153532.320000", "153612.234000", "153612.238000", "153612.241000", "153612.244000", "153612.248000", "153612.251000", "153612.255000", "153612.258000", "153612.261000", "153612.265000", "153612.268000", "153612.271000", "153612.275000", "153612.278000", "153612.281000", "153612.284000", "153612.288000", "153612.291000", "153612.294000", "153612.298000", "153612.301000", "153612.317000", "153612.320000", "153612.323000", "153612.327000", "153612.330000", "153612.333000", "153652.235000", "153652.238000", "153652.241000", "153652.245000", "153652.248000", "153652.251000", "153652.255000", "153652.258000", "153652.262000", "153652.265000", "153652.268000", "153652.272000", "153652.275000", "153652.278000", "153652.282000", "153652.285000", "153652.288000", "153652.291000", "153652.295000", "153652.298000", "153652.301000", "153652.304000", "153652.308000", "153652.311000", "153652.314000", "153652.318000", "153652.321000", "153732.233000", "153732.237000", "153732.240000", "153732.243000", "153732.247000", "153732.250000", "153732.253000", "153732.258000", "153732.261000", "153732.264000", "153732.268000", "153732.271000", "153732.275000", "153732.278000", "153732.281000", "153732.284000", "153732.288000", "153732.291000", "153732.294000", "153732.297000", "153732.301000", "153732.304000", "153732.307000", "153732.311000", "153732.314000", "153732.317000", "153732.320000", "153812.234000", "153812.238000", "153812.241000", "153812.244000", "153812.248000", "153812.251000", "153812.255000", "153812.258000", "153812.261000", "153812.264000", "153812.268000", "153812.271000", "153812.274000", "153812.278000", "153812.281000", "153812.284000", "153812.288000", "153812.291000", "153812.294000", "153812.298000", "153812.301000", "153812.304000", "153812.308000", "153812.311000", "153812.314000", "153812.317000", "153812.321000", "153852.234000", "153852.238000", "153852.241000", "153852.244000", "153852.248000", "153852.270000", "153852.273000", "153852.277000", "153852.280000", "153852.283000", "153852.287000", "153852.290000", "153852.293000", "153852.296000", "153852.300000", "153852.303000", "153852.306000", "153852.310000", "153852.313000", "153852.316000", "153852.320000", "153852.323000", "153852.326000", "153852.329000", "153852.333000", "153852.336000", "153852.339000", "153932.234000", "153932.238000", "153932.242000", "153932.245000", "153932.249000", "153932.252000", "153932.258000", "153932.261000", "153932.265000", "153932.268000", "153932.271000", "153932.275000", "153932.278000", "153932.281000", "153932.285000", "153932.288000", "153932.291000", "153932.294000", "153932.298000", "153932.301000", "153932.305000", "153932.308000", "153932.312000", "153932.315000", "153932.318000", "153932.321000", "154012.234000", "154012.238000", "154012.241000", "154012.245000", "154012.248000", "154012.251000", "154012.255000", "154012.258000", "154012.261000", "154012.265000", "154012.268000", "154012.271000", "154012.275000", "154012.278000", "154012.281000", "154012.284000", "154012.288000", "154012.291000", "154012.294000", "154012.298000", "154012.301000", "154012.304000", "154012.308000", "154012.311000", "154012.314000", "154012.317000", "154012.321000", "154044.616000", "154044.619000", "154044.622000", "154044.626000", "154044.629000", "154044.632000", "154044.636000", "154044.639000", "154044.642000", "154044.646000", "154044.649000", "154044.652000", "154044.656000", "154044.670000", "154044.673000", "154044.676000", "154044.679000", "154044.683000", "154044.686000", "154044.689000", "154044.693000", "154044.696000"],
