{
  "AcquisitionMatrixPE": 104,
  "AcquisitionNumber": 1,
  "AcquisitionTime": "15:42:10.765000",
  "BandwidthPerPixelPhaseEncode": 17.17,
  "BaseResolution": 104,
  "BodyPartExamined": "BRAIN",
  "CoilString": "HC1-7;NC1_2",
  "ConsistencyInfo": "N4_VE11C_LATEST_20160120",
  "ConversionSoftware": "dcm2niix",
  "ConversionSoftwareVersion": "v1.0.20190902",
  "DerivedVendorReportedEchoSpacing": 0.000560011,
  "DeviceSerialNumber": "167006",
  "DwellTime": 2.1e-06,
  "EchoTime": 0.037,
  "EchoTrainLength": 104,
  "EffectiveEchoSpacing": 0.000560011,
  "FlipAngle": 52,
  "HeudiconvVersion": "0.10.0",
  "ImageComments": "Unaliased_MB4_PE3_LB",
  "ImageOrientationPatientDICOM": [0.998895, -0.041305, 0.0224031, 0.0464078, 0.94197, -0.332473],
  "ImageType": [
    "ORIGINAL",
    "PRIMARY",
    "M",
    "MB",
    "ND",
    "MOSAIC"
],
  "ImagingFrequency": 123.259,
  "InPlanePhaseEncodingDirectionDICOM": "COL",
  "InstitutionAddress": "Chemin_Queen-Mary_4565_Montreal_District_CA_H3W_1W5",
  "InstitutionName": "IUGM",
  "InstitutionalDepartmentName": "Department",
  "MRAcquisitionType": "2D",
  "MagneticFieldStrength": 3,
  "Manufacturer": "Siemens",
  "ManufacturersModelName": "Prisma_fit",
  "Modality": "MR",
  "MultibandAccelerationFactor": 4,
  "PartialFourier": 1,
  "PatientPosition": "HFS",
  "PercentPhaseFOV": 100,
  "PhaseEncodingDirection": "j",
  "PhaseEncodingSteps": 104,
  "PhaseResolution": 1,
  "PixelBandwidth": 2290,
  "ProcedureStepDescription": "games_mario",
  "ProtocolName": "func_task-mario_run-02",
  "PulseSequenceDetails": "%CustomerSeq%_cmrr_mbep2d_bold",
  "ReceiveCoilActiveElements": "HC1-7;NC1,2",
  "ReceiveCoilName": "HeadNeck_64",
  "ReconMatrixPE": 104,
  "RepetitionTime": 1.49,
  "SAR": 0.034448,
  "ScanOptions": "FS",
  "ScanningSequence": "EP",
  "SequenceName": "epfid2d1_104",
  "SequenceVariant": "SK_SS",
  "SeriesDescription": "func_task-mario_run-02",
  "SeriesNumber": 16,
  "ShimSetting": [627, -7261, -8807, 676, 24, -220, -56, -23],
  "SliceThickness": 2,
  "SliceTiming": [0, 0.7825, 0.0975, 0.8825, 0.195, 0.98, 0.2925, 1.0775, 0.3925, 1.175, 0.49, 1.2725, 0.5875, 1.3725, 0.685, 0, 0.7825, 0.0975, 0.8825, 0.195, 0.98, 0.2925, 1.0775, 0.3925, 1.175, 0.49, 1.2725, 0.5875, 1.3725, 0.685, 0, 0.7825, 0.0975, 0.8825, 0.195, 0.98, 0.2925, 1.0775, 0.3925, 1.175, 0.49, 1.2725, 0.5875, 1.3725, 0.685, 0, 0.7825, 0.0975, 0.8825, 0.195, 0.98, 0.2925, 1.0775, 0.3925, 1.175, 0.49, 1.2725, 0.5875, 1.3725, 0.685],
  "SoftwareVersions": "syngo_MR_E11",
  "SpacingBetweenSlices": 2,
  "StationName": "MRC35049",
  "TaskName": "mario",
  "TotalReadoutTime": 0.0576811,
  "TxRefAmp": 222.044,
  "WipMemBlock": "0ca6dcab-c7b0-4da1-a5d5-1704e1eb84cc||Sequence: R016 ve11c/master r/e634e98; Dec 19 2017 11:00:25 by eja",
  "dcmmeta_affine": [
    [-1.997790813446045, 0.09281562268733978, 0.014740513637661934, 101.73567962646484],
    [0.08261008560657501, 1.8839408159255981, -0.666290283203125, -69.32781219482422],
    [0.04480620101094246, 0.6649454832077026, 1.8856934309005737, -60.207313537597656],
    [0.0, 0.0, 0.0, 1.0]
],
  "dcmmeta_reorient_transform": [
    [0.0, -1.0, 0.0, 103.0],
    [1.0, 0.0, 0.0, 0.0],
    [0.0, 0.0, 1.0, 0.0],
    [0.0, 0.0, 0.0, 1.0]
],
  "dcmmeta_shape": [104, 104, 60, 447],
  "dcmmeta_slice_dim": 2,
  "dcmmeta_version": 0.6,
  "global": {
    "const": {
      "AcquisitionMatrix": [104, 0, 0, 104],
      "AngioFlag": "N",
      "BitsAllocated": 16,
      "BitsStored": 16,
      "BodyPartExamined": "BRAIN",
      "Columns": 832,
      "EchoNumbers": 1,
      "EchoTime": 37.0,
      "EchoTrainLength": 104,
      "FlipAngle": 52.0,
      "HighBit": 15,
      "ImageOrientationPatient": [0.99889538709406, -0.0413050443593, 0.02240310140751, 0.0464078113421, 0.94197038049566, -0.3324727316868],
      "ImagePositionPatient": [-872.27641975786, -780.40245073294, 234.01275867106],
      "ImageType": [
        "ORIGINAL",
        "PRIMARY",
        "M",
        "MB",
        "ND",
        "MOSAIC"
],
      "ImagedNucleus": "1H",
      "ImagingFrequency": 123.258876,
      "InPlanePhaseEncodingDirection": "COL",
      "MRAcquisitionType": "2D",
      "MagneticFieldStrength": 3.0,
      "Manufacturer": "SIEMENS",
      "ManufacturerModelName": "Prisma_fit",
      "Modality": "MR",
      "NumberOfAverages": 1.0,
      "NumberOfPhaseEncodingSteps": 104,
      "PercentPhaseFieldOfView": 100.0,
      "PercentSampling": 100.0,
      "PerformedProcedureStepStartTime": "145911.773000",
      "PhotometricInterpretation": "MONOCHROME2",
      "PixelBandwidth": 2290.0,
      "PixelRepresentation": 0,
      "PixelSpacing": [2.0, 2.0],
      "ProtocolName": "func_task-mario_run-02",
      "RepetitionTime": 1490.0,
      "Rows": 832,
      "SAR": 0.03444799294017,
      "SamplesPerPixel": 1,
      "ScanOptions": "FS",
      "ScanningSequence": "EP",
      "SequenceName": "epfid2d1_104",
      "SequenceVariant": [
        "SK",
        "SS"
],
      "SeriesDescription": "func_task-mario_run-02",
      "SeriesNumber": 16,
      "SeriesTime": "154340.677000",
      "SliceLocation": -32.92022779938,
      "SliceThickness": 2.0,
      "SmallestImagePixelValue": 0,
      "SoftwareVersions": "syngo MR E11",
      "SpacingBetweenSlices": 1.9999999764286,
      "SpecificCharacterSet": "ISO_IR 100",
      "StudyID": "1",
      "StudyTime": "145911.667000",
      "TransmitCoilName": "Body",
      "VariableFlipAngleFlag": "N",
      "WindowCenterWidthExplanation": "Algo1",
      "dBdt": 0.0},
    "slices": {}
  },
  "time": {
    "samples": {
      "AcquisitionNumber": [1, 2, 3, 4, 5, 6, 7, 8, 9, 10, 11, 12, 13, 14, 15, 16, 17, 18, 19, 20, 21, 22, 23, 24, 25, 26, 27, 28, 29, 30, 31, 32, 33, 34, 35, 36, 37, 38, 39, 40, 41, 42, 43, 44, 45, 46, 47, 48, 49, 50, 51, 52, 53, 54, 55, 56, 57, 58, 59, 60, 61, 62, 63, 64, 65, 66, 67, 68, 69, 70, 71, 72, 73, 74, 75, 76, 77, 78, 79, 80, 81, 82, 83, 84, 85, 86, 87, 88, 89, 90, 91, 92, 93, 94, 95, 96, 97, 98, 99, 100, 101, 102, 103, 104, 105, 106, 107, 108, 109, 110, 111, 112, 113, 114, 115, 116, 117, 118, 119, 120, 121, 122, 123, 124, 125, 126, 127, 128, 129, 130, 131, 132, 133, 134, 135, 136, 137, 138, 139, 140, 141, 142, 143, 144, 145, 146, 147, 148, 149, 150, 151, 152, 153, 154, 155, 156, 157, 158, 159, 160, 161, 162, 163, 164, 165, 166, 167, 168, 169, 170, 171, 172, 173, 174, 175, 176, 177, 178, 179, 180, 181, 182, 183, 184, 185, 186, 187, 188, 189, 190, 191, 192, 193, 194, 195, 196, 197, 198, 199, 200, 201, 202, 203, 204, 205, 206, 207, 208, 209, 210, 211, 212, 213, 214, 215, 216, 217, 218, 219, 220, 221, 222, 223, 224, 225, 226, 227, 228, 229, 230, 231, 232, 233, 234, 235, 236, 237, 238, 239, 240, 241, 242, 243, 244, 245, 246, 247, 248, 249, 250, 251, 252, 253, 254, 255, 256, 257, 258, 259, 260, 261, 262, 263, 264, 265, 266, 267, 268, 269, 270, 271, 272, 273, 274, 275, 276, 277, 278, 279, 280, 281, 282, 283, 284, 285, 286, 287, 288, 289, 290, 291, 292, 293, 294, 295, 296, 297, 298, 299, 300, 301, 302, 303, 304, 305, 306, 307, 308, 309, 310, 311, 312, 313, 314, 315, 316, 317, 318, 319, 320, 321, 322, 323, 324, 325, 326, 327, 328, 329, 330, 331, 332, 333, 334, 335, 336, 337, 338, 339, 340, 341, 342, 343, 344, 345, 346, 347, 348, 349, 350, 351, 352, 353, 354, 355, 356, 357, 358, 359, 360, 361, 362, 363, 364, 365, 366, 367, 368, 369, 370, 371, 372, 373, 374, 375, 376, 377, 378, 379, 380, 381, 382, 383, 384, 385, 386, 387, 388, 389, 390, 391, 392, 393, 394, 395, 396, 397, 398, 399, 400, 401, 402, 403, 404, 405, 406, 407, 408, 409, 410, 411, 412, 413, 414, 415, 416, 417, 418, 419, 420, 421, 422, 423, 424, 425, 426, 427, 428, 429, 430, 431, 432, 433, 434, 435, 436, 437, 438, 439, 440, 441, 442, 443, 444, 445, 446, 447],
      "AcquisitionTime": ["154210.765000", "154212.255000", "154213.745000", "154215.235000", "154216.725000", "154218.215000", "154219.705000", "154221.195000", "154222.685000", "154224.175000", "154225.665000", "154227.155000", "154228.645000", "154230.135000", "154231.625000", "154233.115000", "154234.605000", "154236.095000", "154237.585000", "154239.075000", "154240.565000", "154242.055000", "154243.545000", "154245.035000", "154246.525000", "154248.015000", "154249.505000", "154250.995000", "154252.485000", "154253.975000", "154255.465000", "154256.955000", "154258.445000", "154259.935000", "154301.425000", "154302.915000", "154304.405000", "154305.895000", "154307.385000", "154308.875000", "154310.365000", "154311.855000", "154313.345000", "154314.835000", "154316.325000", "154317.815000", "154319.305000", "154320.795000", "154322.285000", "154323.775000", "154325.265000", "154326.755000", "154328.245000", "154329.735000", "154331.225000", "154332.715000", "154334.205000", "154335.695000", "154337.185000", "154338.675000", "154340.165000", "154341.655000", "154343.145000", "154344.635000", "154346.125000", "154347.615000", "154349.105000", "154350.595000", "154352.085000", "154353.575000", "154355.065000", "154356.555000", "154358.045000", "154359.535000", "154401.025000", "154402.515000", "154404.005000", "154405.495000", "154406.985000", "154408.475000", "154409.965000", "154411.455000", "154412.945000", "154414.435000", "154415.925000", "154417.415000", "154418.905000", "154420.395000", "154421.885000", "154423.375000", "154424.865000", "154426.355000", "154427.845000", "154429.335000", "154430.825000", "154432.315000", "154433.805000", "154435.295000", "154436.785000", "154438.275000", "154439.765000", "154441.255000", "154442.745000", "154444.235000", "154445.725000", "154447.215000", "154448.705000", "154450.195000", "154451.685000", "154453.175000", "154454.665000", "154456.155000", "154457.645000", "154459.135000", "154500.625000", "154502.115000", "154503.605000", "154505.095000", "154506.585000", "154508.075000", "154509.565000", "154511.055000", "154512.545000", "154514.035000", "154515.525000", "154517.015000", "154518.505000", "154519.995000", "154521.485000", "154522.975000", "154524.465000", "154525.955000", "154527.445000", "154528.935000", "154530.425000", "154531.915000", "154533.405000", "154534.895000", "154536.385000", "154537.875000", "154539.365000", "154540.855000", "154542.345000", "154543.835000", "154545.325000", "154546.815000", "154548.305000", "154549.795000", "154551.285000", "154552.775000", "154554.265000", "154555.755000", "154557.245000", "154558.735000", "154600.225000", "154601.715000", "154603.205000", "154604.695000", "154606.185000", "154607.675000", "154609.165000", "154610.655000", "154612.145000", "154613.635000", "154615.125000", "154616.615000", "154618.105000", "154619.595000", "154621.085000", "154622.575000", "154624.065000", "154625.555000", "154627.045000", "154628.535000", "154630.025000", "154631.515000", "154633.005000", "154634.495000", "154635.985000", "154637.475000", "154638.965000", "154640.455000", "154641.945000", "154643.435000", "154644.925000", "154646.415000", "154647.905000", "154649.395000", "154650.885000", "154652.375000", "154653.865000", "154655.355000", "154656.845000", "154658.335000", "154659.825000", "154701.315000", "154702.805000", "154704.295000", "154705.785000", "154707.275000", "154708.765000", "154710.255000", "154711.745000", "154713.235000", "154714.725000", "154716.215000", "154717.705000", "154719.195000", "154720.685000", "154722.175000", "154723.665000", "154725.155000", "154726.645000", "154728.135000", "154729.625000", "154731.115000", "154732.605000", "154734.095000", "154735.585000", "154737.075000", "154738.565000", "154740.055000", "154741.545000", "154743.035000", "154744.525000", "154746.015000", "154747.505000", "154748.995000", "154750.485000", "154751.975000", "154753.465000", "154754.955000", "154756.445000", "154757.935000", "154759.425000", "154800.915000", "154802.405000", "154803.895000", "154805.385000", "154806.875000", "154808.365000", "154809.855000", "154811.345000", "154812.835000", "154814.325000", "154815.815000", "154817.305000", "154818.795000", "154820.285000", "154821.775000", "154823.265000", "154824.755000", "154826.245000", "154827.735000", "154829.225000", "154830.715000", "154832.205000", "154833.695000", "154835.185000", "154836.675000", "154838.165000", "154839.655000", "154841.145000", "154842.635000", "154844.125000", "154845.615000", "154847.105000", "154848.595000", "154850.085000", "154851.575000", "154853.065000", "154854.555000", "154856.045000", "154857.535000", "154859.025000", "154900.515000", "154902.005000", "154903.495000", "154904.985000", "154906.475000", "154907.965000", "154909.455000", "154910.945000", "154912.435000", "154913.925000", "154915.415000", "154916.905000", "154918.395000", "154919.885000", "154921.375000", "154922.865000", "154924.355000", "154925.845000", "154927.335000", "154928.825000", "154930.315000", "154931.805000", "154933.295000", "154934.785000", "154936.275000", "154937.765000", "154939.255000", "154940.745000", "154942.235000", "154943.725000", "154945.215000", "154946.705000", "154948.195000", "154949.685000", "154951.175000", "154952.665000", "154954.155000", "154955.645000", "154957.135000", "154958.625000", "155000.115000", "155001.605000", "155003.095000", "155004.585000", "155006.075000", "155007.565000", "155009.055000", "155010.545000", "155012.035000", "155013.525000", "155015.015000", "155016.505000", "155017.995000", "155019.485000", "155020.975000", "155022.465000", "155023.955000", "155025.445000", "155026.935000", "155028.425000", "155029.915000", "155031.405000", "155032.895000", "155034.385000", "155035.875000", "155037.365000", "155038.855000", "155040.345000", "155041.835000", "155043.325000", "155044.815000", "155046.305000", "155047.795000", "155049.285000", "155050.775000", "155052.265000", "155053.755000", "155055.245000", "155056.735000", "155058.225000", "155059.715000", "155101.205000", "155102.695000", "155104.185000", "155105.675000", "155107.165000", "155108.655000", "155110.145000", "155111.635000", "155113.125000", "155114.615000", "155116.105000", "155117.595000", "155119.085000", "155120.575000", "155122.065000", "155123.555000", "155125.045000", "155126.535000", "155128.025000", "155129.515000", "155131.005000", "155132.495000", "155133.985000", "155135.475000", "155136.965000", "155138.455000", "155139.945000", "155141.435000", "155142.925000", "155144.415000", "155145.905000", "155147.395000", "155148.885000", "155150.375000", "155151.865000", "155153.355000", "155154.845000", "155156.335000", "155157.825000", "155159.315000", "155200.805000", "155202.295000", "155203.785000", "155205.275000", "155206.765000", "155208.255000", "155209.745000", "155211.235000", "155212.725000", "155214.215000", "155215.705000", "155217.195000", "155218.685000", "155220.175000", "155221.665000", "155223.155000", "155224.645000", "155226.135000", "155227.625000", "155229.115000", "155230.605000", "155232.095000", "155233.585000", "155235.075000", "155236.565000", "155238.055000", "155239.545000", "155241.035000", "155242.525000", "155244.015000", "155245.505000", "155246.995000", "155248.485000", "155249.975000", "155251.465000", "155252.955000", "155254.445000", "155255.935000", "155257.425000", "155258.915000", "155300.405000", "155301.895000", "155303.385000", "155304.875000", "155306.365000", "155307.855000", "155309.345000", "155310.835000", "155312.325000", "155313.815000", "155315.305000"],
      "ContentTime": ["154340.680000", "154340.684000", "154340.687000", "154340.691000", "154340.694000", "154340.697000", "154340.701000", "154340.704000", "154340.707000", "154340.711000", "154340.714000", "154340.717000", "154340.720000", "154340.724000", "154340.727000", "154340.731000", "154340.734000", "154340.737000", "154340.740000", "154340.744000", "154340.747000", "154340.750000", "154340.754000", "154340.757000", "154340.760000", "154340.764000", "154340.767000", "154340.770000", "154340.774000", "154340.777000", "154340.789000", "154340.792000", "154340.795000", "154340.799000", "154340.802000", "154400.631000", "154400.635000", "154400.639000", "154400.642000", "154400.645000", "154400.649000", "154400.652000", "154400.656000", "154400.659000", "154400.662000", "154400.666000", "154400.669000", "154400.672000", "154400.676000", "154400.679000", "154400.682000", "154400.686000", "154400.689000", "154400.692000", "154400.695000", "154420.631000", "154420.635000", "154420.638000", "154420.641000", "154420.652000", "154420.655000", "154420.658000", "154420.662000", "154420.665000", "154420.668000", "154420.671000", "154420.675000", "154420.678000", "154420.681000", "154420.685000", "154420.688000", "154420.691000", "154420.695000", "154420.698000", "154420.701000", "154440.631000", "154440.635000", "154440.646000", "154440.649000", "154440.653000", "154440.656000", "154440.659000", "154440.663000", "154440.666000", "154440.669000", "154440.673000", "154440.676000", "154440.679000", "154440.683000", "154440.686000", "154440.689000", "154440.692000", "154440.696000", "154440.699000", "154440.702000", "154440.706000", "154520.631000", "154520.635000", "154520.638000", "154520.642000", "154520.645000", "154520.648000", "154520.652000", "154520.655000", "154520.658000", "154520.661000", "154520.665000", "154520.668000", "154520.672000", "154520.675000", "154520.678000", "154520.682000", "154520.685000", "154520.688000", "154520.692000", "154520.695000", "154520.698000", "154520.701000", "154520.705000", "154520.708000", "154520.711000", "154520.715000", "154520.718000", "154520.721000", "154520.725000", "154520.728000", "154520.740000", "154600.631000", "154600.635000", "154600.638000", "154600.642000", "154600.645000", "154600.648000", "154600.651000", "154600.655000", "154600.658000", "154600.661000", "154600.665000", "154600.668000", "154600.671000", "154600.675000", "154600.678000", "154600.681000", "154600.685000", "154600.689000", "154600.692000", "154600.695000", "154600.699000", "154600.702000", "154600.705000", "154600.708000", "154600.712000", "154600.715000", "154600.718000", "154640.631000", "154640.635000", "154640.639000", "154640.643000", "154640.646000", "154640.649000", "154640.653000", "154640.656000", "154640.659000", "154640.663000", "154640.666000", "154640.669000", "154640.673000", "154640.676000", "154640.679000", "154640.683000", "154640.686000", "154640.689000", "154640.693000", "154640.696000", "154640.699000", "154640.702000", "154640.706000", "154640.724000", "154640.728000", "154640.731000", "154700.631000", "154700.635000", "154700.638000", "154700.642000", "154700.645000", "154700.648000", "154700.652000", "154700.655000", "154700.658000", "154700.661000", "154700.665000", "154700.668000", "154700.671000", "154700.675000", "154740.631000", "154740.635000", "154740.638000", "154740.642000", "154740.645000", "154740.648000", "154740.652000", "154740.655000", "154740.658000", "154740.662000", "154740.665000", "154740.668000", "154740.671000", "154740.675000", "154740.678000", "154740.682000", "154740.685000", "154740.688000", "154740.692000", "154740.695000", "154740.698000", "154740.701000", "154740.705000", "154740.708000", "154740.711000", "154740.715000", "154740.718000", "154820.632000", "154820.636000", "154820.639000", "154820.642000", "154820.646000", "154820.649000", "154820.652000", "154820.656000", "154820.659000", "154820.662000", "154820.666000", "154820.669000", "154820.672000", "154820.676000", "154820.679000", "154820.682000", "154820.686000", "154820.689000", "154820.692000", "154820.695000", "154820.699000", "154820.702000", "154820.705000", "154820.709000", "154820.712000", "154820.715000", "154820.719000", "154900.631000", "154900.635000", "154900.638000", "154900.642000", "154900.645000", "154900.648000", "154900.652000", "154900.655000", "154900.658000", "154900.661000", "154900.665000", "154900.668000", "154900.671000", "154900.675000", "154900.678000", "154900.682000", "154900.685000", "154900.689000", "154900.692000", "154900.696000", "154900.713000", "154900.716000", "154900.720000", "154900.723000", "154900.726000", "154900.729000", "154940.631000", "154940.635000", "154940.638000", "154940.642000", "154940.645000", "154940.648000", "154940.652000", "154940.655000", "154940.658000", "154940.662000", "154940.665000", "154940.668000", "154940.672000", "154940.675000", "154940.678000", "154940.682000", "154940.685000", "154940.688000", "154940.692000", "154940.695000", "154940.698000", "154940.701000", "154940.705000", "154940.708000", "154940.711000", "154940.715000", "154940.718000", "155020.631000", "155020.635000", "155020.638000", "155020.641000", "155020.645000", "155020.648000", "155020.652000", "155020.655000", "155020.658000", "155020.662000", "155020.665000", "155020.668000", "155020.672000", "155020.675000", "155020.678000", "155020.682000", "155020.685000", "155020.688000", "155020.691000", "155020.695000", "155020.698000", "155020.701000", "155020.705000", "155020.708000", "155020.711000", "155020.715000", "155020.718000", "155100.631000", "155100.635000", "155100.638000", "155100.642000", "155100.645000", "155100.648000", "155100.652000", "155100.655000", "155100.658000", "155100.662000", "155100.665000", "155100.668000", "155100.672000", "155100.675000", "155100.678000", "155100.682000", "155100.685000", "155100.688000", "155100.692000", "155100.695000", "155100.698000", "155100.702000", "155100.705000", "155100.708000", "155100.711000", "155100.715000", "155100.718000", "155140.631000", "155140.635000", "155140.654000", "155140.658000", "155140.661000", "155140.664000", "155140.668000", "155140.671000", "155140.674000", "155140.678000", "155140.681000", "155140.685000", "155140.689000", "155140.692000", "155140.697000", "155140.700000", "155140.704000", "155140.707000", "155140.710000", "155140.714000", "155140.717000", "155140.720000", "155140.724000", "155140.727000", "155140.730000", "155140.734000", "155140.737000", "155220.631000", "155220.635000", "155220.638000", "155220.642000", "155220.645000", "155220.648000", "155220.652000", "155220.655000", "155220.658000", "155220.662000", "155220.665000", "155220.668000", "155220.671000", "155220.675000", "155220.678000", "155220.681000", "155220.685000", "155220.688000", "155220.691000", "155220.695000", "155220.698000", "155220.701000", "155220.704000", "155220.708000", "155220.711000", "155220.714000", "155220.718000", "155300.632000", "155300.636000", "155300.639000", "155300.642000", "155300.646000", "155300.649000", "155300.652000", "155300.656000", "155300.659000", "155300.662000", "155300.666000", "155300.669000", "155300.672000", "155300.676000", "155300.679000", "155300.682000", "155300.686000", "155300.689000", "155300.692000", "155300.695000", "155300.699000", "155300.702000", "155300.705000", "155300.709000", "155300.712000", "155300.715000", "155300.719000", "155318.183000", "155318.187000", "155318.190000", "155318.194000", "155318.197000", "155318.200000", "155318.204000", "155318.207000", "155318.210000", "155318.214000", "155318.217000"],
