{
  "AcquisitionMatrixPE": 104,
  "AcquisitionNumber": 1,
  "AcquisitionTime": "11:47:11.720000",
  "BandwidthPerPixelPhaseEncode": 17.17,
  "BaseResolution": 104,
  "BodyPartExamined": "BRAIN",
  "CoilString": "HC1-7;NC1_2",
  "ConsistencyInfo": "N4_VE11C_LATEST_20160120",
  "ConversionSoftware": "dcm2niix",
  "ConversionSoftwareVersion": "v1.0.20190902",
  "DerivedVendorReportedEchoSpacing": 0.000560011,
  "DeviceSerialNumber": "167006",
  "DwellTime": 2.1e-06,
  "EchoTime": 0.037,
  "EchoTrainLength": 104,
  "EffectiveEchoSpacing": 0.000560011,
  "FlipAngle": 52,
  "HeudiconvVersion": "0.10.0",
  "ImageComments": "Unaliased_MB4_PE3_LB",
  "ImageOrientationPatientDICOM": [0.999072, 0.0305903, 0.0303267, -0.014997, 0.907011, -0.420839],
  "ImageType": [
    "ORIGINAL",
    "PRIMARY",
    "P",
    "MB",
    "ND",
    "MOSAIC"
],
  "ImagingFrequency": 123.259,
  "InPlanePhaseEncodingDirectionDICOM": "COL",
  "InstitutionAddress": "Chemin_Queen-Mary_4565_Montreal_District_CA_H3W_1W5",
  "InstitutionName": "IUGM",
  "InstitutionalDepartmentName": "Department",
  "MRAcquisitionType": "2D",
  "MagneticFieldStrength": 3,
  "Manufacturer": "Siemens",
  "ManufacturersModelName": "Prisma_fit",
  "Modality": "MR",
  "MultibandAccelerationFactor": 4,
  "PartialFourier": 1,
  "PatientPosition": "HFS",
  "PercentPhaseFOV": 100,
  "PhaseEncodingDirection": "j",
  "PhaseEncodingSteps": 104,
  "PhaseResolution": 1,
  "PixelBandwidth": 2290,
  "ProcedureStepDescription": "games_mario",
  "ProtocolName": "func_task-mario_run-04",
  "PulseSequenceDetails": "%CustomerSeq%_cmrr_mbep2d_bold",
  "ReceiveCoilActiveElements": "HC1-7;NC1,2",
  "ReceiveCoilName": "HeadNeck_64",
  "ReconMatrixPE": 104,
  "RepetitionTime": 1.49,
  "SAR": 0.0532522,
  "ScanOptions": "FS",
  "ScanningSequence": "EP",
  "SequenceName": "epfid2d1_104",
  "SequenceVariant": "SK_SS",
  "SeriesDescription": "func_task-mario_run-04",
  "SeriesNumber": 20,
  "ShimSetting": [626, -7148, -8860, 593, 60, 132, -52, -21],
  "SliceThickness": 2,
  "SliceTiming": [0, 0.7825, 0.0975, 0.8825, 0.195, 0.98, 0.2925, 1.0775, 0.3925, 1.175, 0.49, 1.2725, 0.5875, 1.3725, 0.685, 0, 0.7825, 0.0975, 0.8825, 0.195, 0.98, 0.2925, 1.0775, 0.3925, 1.175, 0.49, 1.2725, 0.5875, 1.3725, 0.685, 0, 0.7825, 0.0975, 0.8825, 0.195, 0.98, 0.2925, 1.0775, 0.3925, 1.175, 0.49, 1.2725, 0.5875, 1.3725, 0.685, 0, 0.7825, 0.0975, 0.8825, 0.195, 0.98, 0.2925, 1.0775, 0.3925, 1.175, 0.49, 1.2725, 0.5875, 1.3725, 0.685],
  "SoftwareVersions": "syngo_MR_E11",
  "SpacingBetweenSlices": 2,
  "StationName": "MRC35049",
  "TaskName": "mario",
  "TotalReadoutTime": 0.0576811,
  "TxRefAmp": 275.247,
  "WipMemBlock": "0d1e292a-cd61-4d4d-b186-eb66c3ac0e98||Sequence: R016 ve11c/master r/e634e98; Dec 19 2017 11:00:25 by eja",
  "dcmmeta_affine": [
    [-1.9981436729431152, -0.02999393455684185, 0.08076050132513046, 107.12235260009766],
    [-0.06118052825331688, 1.8140225410461426, -0.8399875164031982, -52.242469787597656],
    [0.06065342202782631, 0.8416783213615417, 1.8132563829421997, -78.87796783447266],
    [0.0, 0.0, 0.0, 1.0]
],
  "dcmmeta_reorient_transform": [
    [0.0, -1.0, 0.0, 103.0],
    [1.0, 0.0, 0.0, 0.0],
    [0.0, 0.0, 1.0, 0.0],
    [0.0, 0.0, 0.0, 1.0]
],
  "dcmmeta_shape": [104, 104, 60, 460],
  "dcmmeta_slice_dim": 2,
  "dcmmeta_version": 0.6,
  "global": {
    "const": {
      "AcquisitionMatrix": [104, 0, 0, 104],
      "AngioFlag": "N",
      "BitsAllocated": 16,
      "BitsStored": 16,
      "BodyPartExamined": "BRAIN",
      "Columns": 832,
      "EchoNumbers": 1,
      "EchoTime": 37.0,
      "EchoTrainLength": 104,
      "FlipAngle": 52.0,
      "HighBit": 15,
      "ImageOrientationPatient": [0.99907183239155, 0.030590264881, 0.03032671126743, -0.0149969672749, 0.90701129103425, -0.4208391722606],
      "ImagePositionPatient": [-820.43947971452, -817.17578785645, 292.10797048206],
      "ImageType": [
        "ORIGINAL",
        "PRIMARY",
        "P",
        "MB",
        "ND",
        "MOSAIC"
],
      "ImagedNucleus": "1H",
      "ImagingFrequency": 123.258969,
      "InPlanePhaseEncodingDirection": "COL",
      "LargestImagePixelValue": 4095,
      "MRAcquisitionType": "2D",
      "MagneticFieldStrength": 3.0,
      "Manufacturer": "SIEMENS",
      "ManufacturerModelName": "Prisma_fit",
      "Modality": "MR",
      "NumberOfAverages": 1.0,
      "NumberOfPhaseEncodingSteps": 104,
      "PercentPhaseFieldOfView": 100.0,
      "PercentSampling": 100.0,
      "PerformedProcedureStepStartTime": "101109.451000",
      "PhotometricInterpretation": "MONOCHROME2",
      "PixelBandwidth": 2290.0,
      "PixelRepresentation": 0,
      "PixelSpacing": [2.0, 2.0],
      "ProtocolName": "func_task-mario_run-04",
      "RepetitionTime": 1490.0,
      "RescaleIntercept": -4096.0,
      "RescaleSlope": 2.0,
      "RescaleType": "US",
      "Rows": 832,
      "SAR": 0.0532522048217,
      "SamplesPerPixel": 1,
      "ScanOptions": "FS",
      "ScanningSequence": "EP",
      "SequenceName": "epfid2d1_104",
      "SequenceVariant": [
        "SK",
        "SS"
],
      "SeriesDescription": "func_task-mario_run-04",
      "SeriesNumber": 20,
      "SeriesTime": "114828.698000",
      "SliceLocation": -45.245853031511,
      "SliceThickness": 2.0,
      "SmallestImagePixelValue": 0,
      "SoftwareVersions": "syngo MR E11",
      "SpacingBetweenSlices": 2.0000000147912,
      "SpecificCharacterSet": "ISO_IR 100",
      "StudyID": "1",
      "StudyTime": "101109.357000",
      "TransmitCoilName": "Body",
      "VariableFlipAngleFlag": "N",
      "WindowCenterWidthExplanation": "Algo1",
      "dBdt": 0.0},
    "slices": {}
  },
  "time": {
    "samples": {
      "AcquisitionNumber": [1, 2, 3, 4, 5, 6, 7, 8, 9, 10, 11, 12, 13, 14, 15, 16, 17, 18, 19, 20, 21, 22, 23, 24, 25, 26, 27, 28, 29, 30, 31, 32, 33, 34, 35, 36, 37, 38, 39, 40, 41, 42, 43, 44, 45, 46, 47, 48, 49, 50, 51, 52, 53, 54, 55, 56, 57, 58, 59, 60, 61, 62, 63, 64, 65, 66, 67, 68, 69, 70, 71, 72, 73, 74, 75, 76, 77, 78, 79, 80, 81, 82, 83, 84, 85, 86, 87, 88, 89, 90, 91, 92, 93, 94, 95, 96, 97, 98, 99, 100, 101, 102, 103, 104, 105, 106, 107, 108, 109, 110, 111, 112, 113, 114, 115, 116, 117, 118, 119, 120, 121, 122, 123, 124, 125, 126, 127, 128, 129, 130, 131, 132, 133, 134, 135, 136, 137, 138, 139, 140, 141, 142, 143, 144, 145, 146, 147, 148, 149, 150, 151, 152, 153, 154, 155, 156, 157, 158, 159, 160, 161, 162, 163, 164, 165, 166, 167, 168, 169, 170, 171, 172, 173, 174, 175, 176, 177, 178, 179, 180, 181, 182, 183, 184, 185, 186, 187, 188, 189, 190, 191, 192, 193, 194, 195, 196, 197, 198, 199, 200, 201, 202, 203, 204, 205, 206, 207, 208, 209, 210, 211, 212, 213, 214, 215, 216, 217, 218, 219, 220, 221, 222, 223, 224, 225, 226, 227, 228, 229, 230, 231, 232, 233, 234, 235, 236, 237, 238, 239, 240, 241, 242, 243, 244, 245, 246, 247, 248, 249, 250, 251, 252, 253, 254, 255, 256, 257, 258, 259, 260, 261, 262, 263, 264, 265, 266, 267, 268, 269, 270, 271, 272, 273, 274, 275, 276, 277, 278, 279, 280, 281, 282, 283, 284, 285, 286, 287, 288, 289, 290, 291, 292, 293, 294, 295, 296, 297, 298, 299, 300, 301, 302, 303, 304, 305, 306, 307, 308, 309, 310, 311, 312, 313, 314, 315, 316, 317, 318, 319, 320, 321, 322, 323, 324, 325, 326, 327, 328, 329, 330, 331, 332, 333, 334, 335, 336, 337, 338, 339, 340, 341, 342, 343, 344, 345, 346, 347, 348, 349, 350, 351, 352, 353, 354, 355, 356, 357, 358, 359, 360, 361, 362, 363, 364, 365, 366, 367, 368, 369, 370, 371, 372, 373, 374, 375, 376, 377, 378, 379, 380, 381, 382, 383, 384, 385, 386, 387, 388, 389, 390, 391, 392, 393, 394, 395, 396, 397, 398, 399, 400, 401, 402, 403, 404, 405, 406, 407, 408, 409, 410, 411, 412, 413, 414, 415, 416, 417, 418, 419, 420, 421, 422, 423, 424, 425, 426, 427, 428, 429, 430, 431, 432, 433, 434, 435, 436, 437, 438, 439, 440, 441, 442, 443, 444, 445, 446, 447, 448, 449, 450, 451, 452, 453, 454, 455, 456, 457, 458, 459, 460],
      "AcquisitionTime": ["114711.720000", "114713.210000", "114714.700000", "114716.190000", "114717.680000", "114719.170000", "114720.660000", "114722.150000", "114723.640000", "114725.130000", "114726.620000", "114728.110000", "114729.600000", "114731.090000", "114732.580000", "114734.070000", "114735.560000", "114737.050000", "114738.540000", "114740.030000", "114741.520000", "114743.010000", "114744.500000", "114745.990000", "114747.480000", "114748.970000", "114750.460000", "114751.950000", "114753.440000", "114754.930000", "114756.420000", "114757.910000", "114759.400000", "114800.890000", "114802.380000", "114803.870000", "114805.360000", "114806.850000", "114808.340000", "114809.830000", "114811.320000", "114812.810000", "114814.300000", "114815.790000", "114817.280000", "114818.770000", "114820.260000", "114821.750000", "114823.240000", "114824.730000", "114826.220000", "114827.710000", "114829.200000", "114830.690000", "114832.180000", "114833.670000", "114835.160000", "114836.650000", "114838.140000", "114839.630000", "114841.120000", "114842.610000", "114844.100000", "114845.590000", "114847.080000", "114848.570000", "114850.060000", "114851.550000", "114853.040000", "114854.530000", "114856.020000", "114857.510000", "114859.000000", "114900.490000", "114901.980000", "114903.470000", "114904.960000", "114906.450000", "114907.940000", "114909.430000", "114910.920000", "114912.410000", "114913.900000", "114915.390000", "114916.880000", "114918.370000", "114919.860000", "114921.350000", "114922.840000", "114924.330000", "114925.820000", "114927.310000", "114928.800000", "114930.290000", "114931.780000", "114933.270000", "114934.760000", "114936.250000", "114937.740000", "114939.230000", "114940.720000", "114942.210000", "114943.700000", "114945.190000", "114946.680000", "114948.170000", "114949.660000", "114951.150000", "114952.640000", "114954.130000", "114955.620000", "114957.110000", "114958.600000", "115000.090000", "115001.580000", "115003.070000", "115004.560000", "115006.050000", "115007.540000", "115009.030000", "115010.520000", "115012.010000", "115013.500000", "115014.990000", "115016.480000", "115017.970000", "115019.460000", "115020.950000", "115022.440000", "115023.930000", "115025.420000", "115026.910000", "115028.400000", "115029.890000", "115031.380000", "115032.870000", "115034.360000", "115035.850000", "115037.340000", "115038.830000", "115040.320000", "115041.810000", "115043.300000", "115044.790000", "115046.280000", "115047.770000", "115049.260000", "115050.750000", "115052.240000", "115053.730000", "115055.220000", "115056.710000", "115058.200000", "115059.690000", "115101.180000", "115102.670000", "115104.160000", "115105.650000", "115107.140000", "115108.630000", "115110.120000", "115111.610000", "115113.100000", "115114.590000", "115116.080000", "115117.570000", "115119.060000", "115120.550000", "115122.040000", "115123.530000", "115125.020000", "115126.510000", "115128.000000", "115129.490000", "115130.980000", "115132.470000", "115133.960000", "115135.450000", "115136.940000", "115138.430000", "115139.920000", "115141.410000", "115142.900000", "115144.390000", "115145.880000", "115147.370000", "115148.860000", "115150.350000", "115151.840000", "115153.330000", "115154.820000", "115156.310000", "115157.800000", "115159.290000", "115200.780000", "115202.270000", "115203.760000", "115205.250000", "115206.740000", "115208.230000", "115209.720000", "115211.210000", "115212.700000", "115214.190000", "115215.680000", "115217.170000", "115218.660000", "115220.150000", "115221.640000", "115223.130000", "115224.620000", "115226.110000", "115227.600000", "115229.090000", "115230.580000", "115232.070000", "115233.560000", "115235.050000", "115236.540000", "115238.030000", "115239.520000", "115241.010000", "115242.500000", "115243.990000", "115245.480000", "115246.970000", "115248.460000", "115249.950000", "115251.440000", "115252.930000", "115254.420000", "115255.910000", "115257.400000", "115258.890000", "115300.380000", "115301.870000", "115303.360000", "115304.850000", "115306.340000", "115307.830000", "115309.320000", "115310.810000", "115312.300000", "115313.790000", "115315.280000", "115316.770000", "115318.260000", "115319.750000", "115321.240000", "115322.730000", "115324.220000", "115325.710000", "115327.200000", "115328.690000", "115330.180000", "115331.670000", "115333.160000", "115334.650000", "115336.140000", "115337.630000", "115339.120000", "115340.610000", "115342.100000", "115343.590000", "115345.080000", "115346.570000", "115348.060000", "115349.550000", "115351.040000", "115352.530000", "115354.020000", "115355.510000", "115357.000000", "115358.490000", "115359.980000", "115401.470000", "115402.960000", "115404.450000", "115405.940000", "115407.430000", "115408.920000", "115410.410000", "115411.900000", "115413.390000", "115414.880000", "115416.370000", "115417.860000", "115419.350000", "115420.840000", "115422.330000", "115423.820000", "115425.310000", "115426.800000", "115428.290000", "115429.780000", "115431.270000", "115432.760000", "115434.250000", "115435.740000", "115437.230000", "115438.720000", "115440.210000", "115441.700000", "115443.190000", "115444.680000", "115446.170000", "115447.660000", "115449.150000", "115450.640000", "115452.130000", "115453.620000", "115455.110000", "115456.600000", "115458.090000", "115459.580000", "115501.070000", "115502.560000", "115504.050000", "115505.540000", "115507.030000", "115508.520000", "115510.010000", "115511.500000", "115512.990000", "115514.480000", "115515.970000", "115517.460000", "115518.950000", "115520.440000", "115521.930000", "115523.420000", "115524.910000", "115526.400000", "115527.890000", "115529.380000", "115530.870000", "115532.360000", "115533.850000", "115535.340000", "115536.830000", "115538.320000", "115539.810000", "115541.300000", "115542.790000", "115544.280000", "115545.770000", "115547.260000", "115548.750000", "115550.240000", "115551.730000", "115553.220000", "115554.710000", "115556.200000", "115557.690000", "115559.180000", "115600.670000", "115602.160000", "115603.650000", "115605.140000", "115606.630000", "115608.120000", "115609.610000", "115611.100000", "115612.590000", "115614.080000", "115615.570000", "115617.060000", "115618.550000", "115620.040000", "115621.530000", "115623.020000", "115624.510000", "115626.000000", "115627.490000", "115628.980000", "115630.470000", "115631.960000", "115633.450000", "115634.940000", "115636.430000", "115637.920000", "115639.410000", "115640.900000", "115642.390000", "115643.880000", "115645.370000", "115646.860000", "115648.350000", "115649.840000", "115651.330000", "115652.820000", "115654.310000", "115655.800000", "115657.290000", "115658.780000", "115700.270000", "115701.760000", "115703.250000", "115704.740000", "115706.230000", "115707.720000", "115709.210000", "115710.700000", "115712.190000", "115713.680000", "115715.170000", "115716.660000", "115718.150000", "115719.640000", "115721.130000", "115722.620000", "115724.110000", "115725.600000", "115727.090000", "115728.580000", "115730.070000", "115731.560000", "115733.050000", "115734.540000", "115736.030000", "115737.520000", "115739.010000", "115740.500000", "115741.990000", "115743.480000", "115744.970000", "115746.460000", "115747.950000", "115749.440000", "115750.930000", "115752.420000", "115753.910000", "115755.400000", "115756.890000", "115758.380000", "115759.870000", "115801.360000", "115802.850000", "115804.340000", "115805.830000", "115807.320000", "115808.810000", "115810.300000", "115811.790000", "115813.280000", "115814.770000", "115816.260000", "115817.750000", "115819.240000", "115820.730000", "115822.220000", "115823.710000", "115825.200000", "115826.690000", "115828.180000", "115829.670000", "115831.160000", "115832.650000", "115834.140000", "115835.630000"],
      "ContentTime": ["114828.700000", "114828.703000", "114828.706000", "114828.708000", "114828.711000", "114828.713000", "114828.716000", "114828.719000", "114828.721000", "114828.724000", "114828.726000", "114828.738000", "114828.740000", "114828.743000", "114828.745000", "114828.748000", "114828.750000", "114828.753000", "114828.755000", "114828.758000", "114828.760000", "114848.691000", "114848.694000", "114848.697000", "114848.699000", "114848.702000", "114848.704000", "114848.707000", "114848.709000", "114848.712000", "114848.715000", "114848.717000", "114848.720000", "114848.722000", "114848.725000", "114848.727000", "114848.730000", "114848.732000", "114848.735000", "114848.737000", "114848.740000", "114908.673000", "114908.676000", "114908.679000", "114908.681000", "114908.684000", "114908.686000", "114908.689000", "114908.691000", "114908.694000", "114908.696000", "114908.699000", "114908.702000", "114908.704000", "114908.707000", "114908.709000", "114908.712000", "114908.714000", "114908.717000", "114908.719000", "114908.722000", "114908.724000", "114928.667000", "114928.669000", "114928.672000", "114928.675000", "114928.677000", "114928.680000", "114928.682000", "114928.685000", "114928.687000", "114928.690000", "114928.692000", "114928.695000", "114928.697000", "114928.700000", "114928.702000", "114928.705000", "114928.708000", "114928.711000", "114928.713000", "114928.716000", "114948.677000", "114948.680000", "114948.683000", "114948.685000", "114948.688000", "114948.690000", "114948.693000", "114948.695000", "114948.698000", "114948.700000", "114948.703000", "114948.705000", "114948.708000", "114948.711000", "114948.713000", "114948.716000", "114948.718000", "114948.721000", "114948.724000", "114948.727000", "115028.703000", "115028.706000", "115028.708000", "115028.711000", "115028.714000", "115028.716000", "115028.719000", "115028.721000", "115028.724000", "115028.726000", "115028.729000", "115028.731000", "115028.734000", "115028.737000", "115028.740000", "115028.743000", "115028.745000", "115028.748000", "115028.751000", "115028.753000", "115028.756000", "115028.758000", "115028.761000", "115028.764000", "115028.766000", "115028.769000", "115028.772000", "115028.774000", "115028.777000", "115108.699000", "115108.702000", "115108.705000", "115108.707000", "115108.710000", "115108.712000", "115108.715000", "115108.717000", "115108.720000", "115108.723000", "115108.725000", "115108.728000", "115108.730000", "115108.733000", "115108.735000", "115108.738000", "115108.740000", "115108.743000", "115108.745000", "115108.748000", "115108.751000", "115108.753000", "115108.756000", "115108.758000", "115108.761000", "115108.763000", "115108.766000", "115148.707000", "115148.709000", "115148.712000", "115148.715000", "115148.717000", "115148.720000", "115148.722000", "115148.725000", "115148.727000", "115148.730000", "115148.732000", "115148.735000", "115148.737000", "115148.740000", "115148.743000", "115148.745000", "115148.748000", "115148.758000", "115148.760000", "115148.763000", "115148.766000", "115148.768000", "115148.771000", "115148.774000", "115148.776000", "115148.779000", "115148.781000", "115228.704000", "115228.707000", "115228.709000", "115228.712000", "115228.714000", "115228.717000", "115228.719000", "115228.722000", "115228.725000", "115228.727000", "115228.730000", "115228.732000", "115228.735000", "115228.737000", "115228.740000", "115228.742000", "115228.745000", "115228.748000", "115228.750000", "115228.753000", "115228.755000", "115228.758000", "115228.760000", "115228.763000", "115228.771000", "115228.774000", "115228.776000", "115309.174000", "115309.176000", "115309.179000", "115309.182000", "115309.184000", "115309.187000", "115309.189000", "115309.192000", "115309.194000", "115309.197000", "115309.200000", "115309.202000", "115309.205000", "115309.207000", "115309.210000", "115309.212000", "115309.215000", "115309.217000", "115309.220000", "115309.223000", "115309.225000", "115309.228000", "115309.231000", "115309.233000", "115309.236000", "115309.238000", "115309.241000", "115348.718000", "115348.721000", "115348.723000", "115348.726000", "115348.729000", "115348.731000", "115348.734000", "115348.736000", "115348.739000", "115348.741000", "115348.744000", "115348.746000", "115348.749000", "115348.751000", "115348.754000", "115348.757000", "115348.759000", "115348.762000", "115348.764000", "115348.767000", "115348.769000", "115348.772000", "115348.774000", "115348.777000", "115348.779000", "115348.782000", "115428.697000", "115428.700000", "115428.703000", "115428.705000", "115428.708000", "115428.710000", "115428.713000", "115428.716000", "115428.718000", "115428.721000", "115428.723000", "115428.726000", "115428.729000", "115428.731000", "115428.734000", "115428.736000", "115428.739000", "115428.741000", "115428.744000", "115428.747000", "115428.749000", "115428.752000", "115428.754000", "115428.757000", "115428.760000", "115428.763000", "115428.766000", "115508.701000", "115508.703000", "115508.706000", "115508.708000", "115508.711000", "115508.714000", "115508.716000", "115508.719000", "115508.721000", "115508.724000", "115508.726000", "115508.729000", "115508.731000", "115508.734000", "115508.737000", "115508.739000", "115508.742000", "115508.744000", "115508.747000", "115508.749000", "115508.752000", "115508.754000", "115508.757000", "115508.760000", "115508.762000", "115508.765000", "115508.767000", "115548.703000", "115548.706000", "115548.708000", "115548.711000", "115548.713000", "115548.716000", "115548.718000", "115548.721000", "115548.724000", "115548.726000", "115548.729000", "115548.731000", "115548.734000", "115548.736000", "115548.739000", "115548.742000", "115548.744000", "115548.747000", "115548.749000", "115548.752000", "115548.754000", "115548.757000", "115548.759000", "115548.762000", "115548.765000", "115548.767000", "115548.770000", "115628.688000", "115628.691000", "115628.693000", "115628.696000", "115628.698000", "115628.701000", "115628.703000", "115628.706000", "115628.709000", "115628.711000", "115628.714000", "115628.716000", "115628.719000", "115628.721000", "115628.724000", "115628.726000", "115628.729000", "115628.731000", "115628.734000", "115628.737000", "115628.739000", "115628.742000", "115628.744000", "115628.747000", "115628.749000", "115628.752000", "115628.754000", "115708.691000", "115708.694000", "115708.697000", "115708.699000", "115708.702000", "115708.704000", "115708.707000", "115708.710000", "115708.712000", "115708.715000", "115708.717000", "115708.720000", "115708.722000", "115708.725000", "115708.727000", "115708.730000", "115708.733000", "115708.735000", "115708.738000", "115708.740000", "115708.743000", "115708.745000", "115708.748000", "115708.750000", "115708.753000", "115708.755000", "115708.758000", "115748.700000", "115748.703000", "115748.705000", "115748.708000", "115748.710000", "115748.713000", "115748.716000", "115748.718000", "115748.721000", "115748.723000", "115748.726000", "115748.728000", "115748.731000", "115748.734000", "115748.736000", "115748.739000", "115748.741000", "115748.744000", "115748.746000", "115748.749000", "115748.751000", "115748.754000", "115748.763000", "115748.765000", "115748.768000", "115748.771000", "115748.773000", "115828.702000", "115828.705000", "115828.708000", "115828.710000", "115828.713000", "115828.716000", "115828.718000", "115828.721000", "115828.723000", "115828.726000", "115828.728000", "115828.731000", "115828.733000", "115828.736000", "115828.738000", "115828.741000", "115828.744000", "115828.746000", "115828.749000", "115828.751000", "115828.754000", "115828.756000", "115828.759000", "115828.762000", "115828.764000", "115828.767000", "115837.977000", "115837.980000", "115837.983000", "115837.985000", "115837.988000", "115837.991000", "115837.993000"],
