{
  "AcquisitionMatrixPE": 104,
  "AcquisitionNumber": 1,
  "AcquisitionTime": "11:09:54.350000",
  "BandwidthPerPixelPhaseEncode": 17.17,
  "BaseResolution": 104,
  "BodyPartExamined": "BRAIN",
  "CoilString": "HC1-7;NC1_2",
  "ConsistencyInfo": "N4_VE11C_LATEST_20160120",
  "ConversionSoftware": "dcm2niix",
  "ConversionSoftwareVersion": "v1.0.20190902",
  "DerivedVendorReportedEchoSpacing": 0.000560011,
  "DeviceSerialNumber": "167006",
  "DwellTime": 2.1e-06,
  "EchoTime": 0.037,
  "EchoTrainLength": 104,
  "EffectiveEchoSpacing": 0.000560011,
  "FlipAngle": 52,
  "HeudiconvVersion": "0.10.0",
  "ImageComments": "Unaliased_MB4_PE3_LB",
  "ImageOrientationPatientDICOM": [0.999072, 0.0305903, 0.0303267, -0.014997, 0.907011, -0.420839],
  "ImageType": [
    "ORIGINAL",
    "PRIMARY",
    "P",
    "MB",
    "ND",
    "MOSAIC"
],
  "ImagingFrequency": 123.259,
  "InPlanePhaseEncodingDirectionDICOM": "COL",
  "InstitutionAddress": "Chemin_Queen-Mary_4565_Montreal_District_CA_H3W_1W5",
  "InstitutionName": "IUGM",
  "InstitutionalDepartmentName": "Department",
  "MRAcquisitionType": "2D",
  "MagneticFieldStrength": 3,
  "Manufacturer": "Siemens",
  "ManufacturersModelName": "Prisma_fit",
  "Modality": "MR",
  "MultibandAccelerationFactor": 4,
  "PartialFourier": 1,
  "PatientPosition": "HFS",
  "PercentPhaseFOV": 100,
  "PhaseEncodingDirection": "j",
  "PhaseEncodingSteps": 104,
  "PhaseResolution": 1,
  "PixelBandwidth": 2290,
  "ProcedureStepDescription": "games_mario",
  "ProtocolName": "func_task-mario_run-01",
  "PulseSequenceDetails": "%CustomerSeq%_cmrr_mbep2d_bold",
  "ReceiveCoilActiveElements": "HC1-7;NC1,2",
  "ReceiveCoilName": "HeadNeck_64",
  "ReconMatrixPE": 104,
  "RepetitionTime": 1.49,
  "SAR": 0.0532522,
  "ScanOptions": "FS",
  "ScanningSequence": "EP",
  "SequenceName": "epfid2d1_104",
  "SequenceVariant": "SK_SS",
  "SeriesDescription": "func_task-mario_run-01",
  "SeriesNumber": 11,
  "ShimSetting": [626, -7148, -8860, 593, 60, 132, -52, -21],
  "SliceThickness": 2,
  "SliceTiming": [0, 0.7825, 0.0975, 0.88, 0.195, 0.98, 0.2925, 1.0775, 0.39, 1.175, 0.49, 1.2725, 0.5875, 1.37, 0.685, 0, 0.7825, 0.0975, 0.88, 0.195, 0.98, 0.2925, 1.0775, 0.39, 1.175, 0.49, 1.2725, 0.5875, 1.37, 0.685, 0, 0.7825, 0.0975, 0.88, 0.195, 0.98, 0.2925, 1.0775, 0.39, 1.175, 0.49, 1.2725, 0.5875, 1.37, 0.685, 0, 0.7825, 0.0975, 0.88, 0.195, 0.98, 0.2925, 1.0775, 0.39, 1.175, 0.49, 1.2725, 0.5875, 1.37, 0.685],
  "SoftwareVersions": "syngo_MR_E11",
  "SpacingBetweenSlices": 2,
  "StationName": "MRC35049",
  "TaskName": "mario",
  "TotalReadoutTime": 0.0576811,
  "TxRefAmp": 275.247,
  "WipMemBlock": "c07c7964-1197-467a-b62a-a63403260307||Sequence: R016 ve11c/master r/e634e98; Dec 19 2017 11:00:25 by eja",
  "dcmmeta_affine": [
    [-1.9981436729431152, -0.02999393455684185, 0.08076050132513046, 107.12235260009766],
    [-0.06118052825331688, 1.8140225410461426, -0.8399875164031982, -52.242469787597656],
    [0.06065342202782631, 0.8416783213615417, 1.8132563829421997, -78.87796783447266],
    [0.0, 0.0, 0.0, 1.0]
],
  "dcmmeta_reorient_transform": [
    [0.0, -1.0, 0.0, 103.0],
    [1.0, 0.0, 0.0, 0.0],
    [0.0, 0.0, 1.0, 0.0],
    [0.0, 0.0, 0.0, 1.0]
],
  "dcmmeta_shape": [104, 104, 60, 433],
  "dcmmeta_slice_dim": 2,
  "dcmmeta_version": 0.6,
  "global": {
    "const": {
      "AcquisitionMatrix": [104, 0, 0, 104],
      "AngioFlag": "N",
      "BitsAllocated": 16,
      "BitsStored": 16,
      "BodyPartExamined": "BRAIN",
      "Columns": 832,
      "EchoNumbers": 1,
      "EchoTime": 37.0,
      "EchoTrainLength": 104,
      "FlipAngle": 52.0,
      "HighBit": 15,
      "ImageOrientationPatient": [0.99907183239155, 0.030590264881, 0.03032671126743, -0.0149969672749, 0.90701129103425, -0.4208391722606],
      "ImagePositionPatient": [-820.43947971452, -817.17578785645, 292.10797048206],
      "ImageType": [
        "ORIGINAL",
        "PRIMARY",
        "P",
        "MB",
        "ND",
        "MOSAIC"
],
      "ImagedNucleus": "1H",
      "ImagingFrequency": 123.258946,
      "InPlanePhaseEncodingDirection": "COL",
      "LargestImagePixelValue": 4095,
      "MRAcquisitionType": "2D",
      "MagneticFieldStrength": 3.0,
      "Manufacturer": "SIEMENS",
      "ManufacturerModelName": "Prisma_fit",
      "Modality": "MR",
      "NumberOfAverages": 1.0,
      "NumberOfPhaseEncodingSteps": 104,
      "PercentPhaseFieldOfView": 100.0,
      "PercentSampling": 100.0,
      "PerformedProcedureStepStartTime": "101109.451000",
      "PhotometricInterpretation": "MONOCHROME2",
      "PixelBandwidth": 2290.0,
      "PixelRepresentation": 0,
      "PixelSpacing": [2.0, 2.0],
      "ProtocolName": "func_task-mario_run-01",
      "RepetitionTime": 1490.0,
      "RescaleIntercept": -4096.0,
      "RescaleSlope": 2.0,
      "RescaleType": "US",
      "Rows": 832,
      "SAR": 0.0532522048217,
      "SamplesPerPixel": 1,
      "ScanOptions": "FS",
      "ScanningSequence": "EP",
      "SequenceName": "epfid2d1_104",
      "SequenceVariant": [
        "SK",
        "SS"
],
      "SeriesDescription": "func_task-mario_run-01",
      "SeriesNumber": 11,
      "SeriesTime": "111048.621000",
      "SliceLocation": -45.245853031511,
      "SliceThickness": 2.0,
      "SmallestImagePixelValue": 0,
      "SoftwareVersions": "syngo MR E11",
      "SpacingBetweenSlices": 2.0000000147912,
      "SpecificCharacterSet": "ISO_IR 100",
      "StudyID": "1",
      "StudyTime": "101109.357000",
      "TransmitCoilName": "Body",
      "VariableFlipAngleFlag": "N",
      "WindowCenterWidthExplanation": "Algo1",
      "dBdt": 0.0},
    "slices": {}
  },
  "time": {
    "samples": {
      "AcquisitionNumber": [1, 2, 3, 4, 5, 6, 7, 8, 9, 10, 11, 12, 13, 14, 15, 16, 17, 18, 19, 20, 21, 22, 23, 24, 25, 26, 27, 28, 29, 30, 31, 32, 33, 34, 35, 36, 37, 38, 39, 40, 41, 42, 43, 44, 45, 46, 47, 48, 49, 50, 51, 52, 53, 54, 55, 56, 57, 58, 59, 60, 61, 62, 63, 64, 65, 66, 67, 68, 69, 70, 71, 72, 73, 74, 75, 76, 77, 78, 79, 80, 81, 82, 83, 84, 85, 86, 87, 88, 89, 90, 91, 92, 93, 94, 95, 96, 97, 98, 99, 100, 101, 102, 103, 104, 105, 106, 107, 108, 109, 110, 111, 112, 113, 114, 115, 116, 117, 118, 119, 120, 121, 122, 123, 124, 125, 126, 127, 128, 129, 130, 131, 132, 133, 134, 135, 136, 137, 138, 139, 140, 141, 142, 143, 144, 145, 146, 147, 148, 149, 150, 151, 152, 153, 154, 155, 156, 157, 158, 159, 160, 161, 162, 163, 164, 165, 166, 167, 168, 169, 170, 171, 172, 173, 174, 175, 176, 177, 178, 179, 180, 181, 182, 183, 184, 185, 186, 187, 188, 189, 190, 191, 192, 193, 194, 195, 196, 197, 198, 199, 200, 201, 202, 203, 204, 205, 206, 207, 208, 209, 210, 211, 212, 213, 214, 215, 216, 217, 218, 219, 220, 221, 222, 223, 224, 225, 226, 227, 228, 229, 230, 231, 232, 233, 234, 235, 236, 237, 238, 239, 240, 241, 242, 243, 244, 245, 246, 247, 248, 249, 250, 251, 252, 253, 254, 255, 256, 257, 258, 259, 260, 261, 262, 263, 264, 265, 266, 267, 268, 269, 270, 271, 272, 273, 274, 275, 276, 277, 278, 279, 280, 281, 282, 283, 284, 285, 286, 287, 288, 289, 290, 291, 292, 293, 294, 295, 296, 297, 298, 299, 300, 301, 302, 303, 304, 305, 306, 307, 308, 309, 310, 311, 312, 313, 314, 315, 316, 317, 318, 319, 320, 321, 322, 323, 324, 325, 326, 327, 328, 329, 330, 331, 332, 333, 334, 335, 336, 337, 338, 339, 340, 341, 342, 343, 344, 345, 346, 347, 348, 349, 350, 351, 352, 353, 354, 355, 356, 357, 358, 359, 360, 361, 362, 363, 364, 365, 366, 367, 368, 369, 370, 371, 372, 373, 374, 375, 376, 377, 378, 379, 380, 381, 382, 383, 384, 385, 386, 387, 388, 389, 390, 391, 392, 393, 394, 395, 396, 397, 398, 399, 400, 401, 402, 403, 404, 405, 406, 407, 408, 409, 410, 411, 412, 413, 414, 415, 416, 417, 418, 419, 420, 421, 422, 423, 424, 425, 426, 427, 428, 429, 430, 431, 432, 433],
      "AcquisitionTime": ["110954.350000", "110955.840000", "110957.330000", "110958.820000", "111000.310000", "111001.800000", "111003.290000", "111004.780000", "111006.270000", "111007.760000", "111009.250000", "111010.740000", "111012.230000", "111013.720000", "111015.210000", "111016.700000", "111018.190000", "111019.680000", "111021.170000", "111022.660000", "111024.150000", "111025.640000", "111027.130000", "111028.620000", "111030.110000", "111031.600000", "111033.090000", "111034.580000", "111036.070000", "111037.560000", "111039.050000", "111040.540000", "111042.030000", "111043.520000", "111045.010000", "111046.500000", "111047.990000", "111049.480000", "111050.970000", "111052.460000", "111053.950000", "111055.440000", "111056.930000", "111058.420000", "111059.910000", "111101.400000", "111102.890000", "111104.380000", "111105.870000", "111107.360000", "111108.850000", "111110.340000", "111111.830000", "111113.320000", "111114.810000", "111116.300000", "111117.790000", "111119.280000", "111120.770000", "111122.260000", "111123.750000", "111125.240000", "111126.730000", "111128.220000", "111129.710000", "111131.200000", "111132.690000", "111134.180000", "111135.670000", "111137.160000", "111138.650000", "111140.140000", "111141.630000", "111143.120000", "111144.610000", "111146.100000", "111147.590000", "111149.080000", "111150.570000", "111152.060000", "111153.550000", "111155.040000", "111156.530000", "111158.020000", "111159.510000", "111201.000000", "111202.490000", "111203.980000", "111205.470000", "111206.960000", "111208.450000", "111209.940000", "111211.430000", "111212.920000", "111214.410000", "111215.900000", "111217.390000", "111218.880000", "111220.370000", "111221.860000", "111223.350000", "111224.840000", "111226.330000", "111227.820000", "111229.310000", "111230.800000", "111232.290000", "111233.780000", "111235.270000", "111236.760000", "111238.250000", "111239.740000", "111241.230000", "111242.720000", "111244.210000", "111245.700000", "111247.190000", "111248.680000", "111250.170000", "111251.660000", "111253.150000", "111254.640000", "111256.130000", "111257.620000", "111259.110000", "111300.600000", "111302.090000", "111303.580000", "111305.070000", "111306.560000", "111308.050000", "111309.540000", "111311.030000", "111312.520000", "111314.010000", "111315.500000", "111316.990000", "111318.480000", "111319.970000", "111321.460000", "111322.950000", "111324.440000", "111325.930000", "111327.420000", "111328.910000", "111330.400000", "111331.890000", "111333.380000", "111334.870000", "111336.360000", "111337.850000", "111339.340000", "111340.830000", "111342.320000", "111343.810000", "111345.300000", "111346.790000", "111348.280000", "111349.770000", "111351.260000", "111352.750000", "111354.240000", "111355.730000", "111357.220000", "111358.710000", "111400.200000", "111401.690000", "111403.180000", "111404.670000", "111406.160000", "111407.650000", "111409.140000", "111410.630000", "111412.120000", "111413.610000", "111415.100000", "111416.590000", "111418.080000", "111419.570000", "111421.060000", "111422.550000", "111424.040000", "111425.530000", "111427.020000", "111428.510000", "111430.000000", "111431.490000", "111432.980000", "111434.470000", "111435.960000", "111437.450000", "111438.940000", "111440.430000", "111441.920000", "111443.410000", "111444.900000", "111446.390000", "111447.880000", "111449.370000", "111450.860000", "111452.350000", "111453.840000", "111455.330000", "111456.820000", "111458.310000", "111459.800000", "111501.290000", "111502.780000", "111504.270000", "111505.760000", "111507.250000", "111508.740000", "111510.230000", "111511.720000", "111513.210000", "111514.700000", "111516.190000", "111517.680000", "111519.170000", "111520.660000", "111522.150000", "111523.640000", "111525.130000", "111526.620000", "111528.110000", "111529.600000", "111531.090000", "111532.580000", "111534.070000", "111535.560000", "111537.050000", "111538.540000", "111540.030000", "111541.520000", "111543.010000", "111544.500000", "111545.990000", "111547.480000", "111548.970000", "111550.460000", "111551.950000", "111553.440000", "111554.930000", "111556.420000", "111557.910000", "111559.400000", "111600.890000", "111602.380000", "111603.870000", "111605.360000", "111606.850000", "111608.340000", "111609.830000", "111611.320000", "111612.810000", "111614.300000", "111615.790000", "111617.280000", "111618.770000", "111620.260000", "111621.750000", "111623.240000", "111624.730000", "111626.220000", "111627.710000", "111629.200000", "111630.690000", "111632.180000", "111633.670000", "111635.160000", "111636.650000", "111638.140000", "111639.630000", "111641.120000", "111642.610000", "111644.100000", "111645.590000", "111647.080000", "111648.570000", "111650.060000", "111651.550000", "111653.040000", "111654.530000", "111656.020000", "111657.510000", "111659.000000", "111700.490000", "111701.980000", "111703.470000", "111704.960000", "111706.450000", "111707.940000", "111709.430000", "111710.920000", "111712.410000", "111713.900000", "111715.390000", "111716.880000", "111718.370000", "111719.860000", "111721.350000", "111722.840000", "111724.330000", "111725.820000", "111727.310000", "111728.800000", "111730.290000", "111731.780000", "111733.270000", "111734.760000", "111736.250000", "111737.740000", "111739.230000", "111740.720000", "111742.210000", "111743.700000", "111745.190000", "111746.680000", "111748.170000", "111749.660000", "111751.150000", "111752.640000", "111754.130000", "111755.620000", "111757.110000", "111758.600000", "111800.090000", "111801.580000", "111803.070000", "111804.560000", "111806.050000", "111807.540000", "111809.030000", "111810.520000", "111812.010000", "111813.500000", "111814.990000", "111816.480000", "111817.970000", "111819.460000", "111820.950000", "111822.440000", "111823.930000", "111825.420000", "111826.910000", "111828.400000", "111829.890000", "111831.380000", "111832.870000", "111834.360000", "111835.850000", "111837.340000", "111838.830000", "111840.320000", "111841.810000", "111843.300000", "111844.790000", "111846.280000", "111847.770000", "111849.260000", "111850.750000", "111852.240000", "111853.730000", "111855.220000", "111856.710000", "111858.200000", "111859.690000", "111901.180000", "111902.670000", "111904.160000", "111905.650000", "111907.140000", "111908.630000", "111910.120000", "111911.610000", "111913.100000", "111914.590000", "111916.080000", "111917.570000", "111919.060000", "111920.550000", "111922.040000", "111923.530000", "111925.020000", "111926.510000", "111928.000000", "111929.490000", "111930.980000", "111932.470000", "111933.960000", "111935.450000", "111936.940000", "111938.430000", "111939.920000", "111941.410000", "111942.900000", "111944.390000", "111945.880000", "111947.370000", "111948.860000", "111950.350000", "111951.840000", "111953.330000", "111954.820000", "111956.310000", "111957.800000", "111959.290000", "112000.780000", "112002.270000", "112003.760000", "112005.250000", "112006.740000", "112008.230000", "112009.720000", "112011.210000", "112012.700000", "112014.190000", "112015.680000", "112017.170000", "112018.660000", "112020.150000", "112021.640000", "112023.130000", "112024.620000", "112026.110000", "112027.600000", "112029.090000", "112030.580000", "112032.070000", "112033.560000", "112035.050000", "112036.540000", "112038.030000"],
      "ContentTime": ["111048.623000", "111048.626000", "111128.786000", "111128.788000", "111128.791000", "111128.794000", "111128.796000", "111128.799000", "111128.801000", "111128.804000", "111128.806000", "111128.809000", "111128.811000", "111128.814000", "111128.816000", "111128.819000", "111128.822000", "111128.824000", "111128.827000", "111128.829000", "111128.832000", "111128.834000", "111128.837000", "111128.839000", "111128.842000", "111128.844000", "111128.847000", "111128.850000", "111128.852000", "111128.855000", "111128.857000", "111128.860000", "111128.862000", "111128.865000", "111128.876000", "111128.878000", "111128.881000", "111128.884000", "111128.886000", "111128.889000", "111148.670000", "111148.673000", "111148.675000", "111148.678000", "111148.680000", "111148.683000", "111148.686000", "111148.693000", "111148.695000", "111148.698000", "111148.701000", "111148.703000", "111148.706000", "111148.709000", "111148.713000", "111148.716000", "111148.719000", "111148.721000", "111148.724000", "111148.726000", "111148.729000", "111208.669000", "111208.672000", "111208.674000", "111208.682000", "111208.685000", "111208.687000", "111208.690000", "111208.692000", "111208.695000", "111208.697000", "111208.700000", "111208.702000", "111208.705000", "111208.708000", "111208.710000", "111208.713000", "111208.715000", "111208.728000", "111208.731000", "111208.733000", "111228.674000", "111228.677000", "111228.679000", "111228.682000", "111228.684000", "111228.687000", "111228.692000", "111228.695000", "111228.698000", "111228.700000", "111228.703000", "111228.705000", "111228.708000", "111228.710000", "111228.713000", "111228.715000", "111228.718000", "111228.721000", "111228.723000", "111228.726000", "111308.700000", "111308.703000", "111308.705000", "111308.708000", "111308.711000", "111308.713000", "111308.716000", "111308.718000", "111308.721000", "111308.723000", "111308.726000", "111308.728000", "111308.731000", "111308.734000", "111308.736000", "111308.739000", "111308.741000", "111308.744000", "111308.746000", "111308.749000", "111308.751000", "111308.754000", "111308.757000", "111308.759000", "111308.762000", "111308.764000", "111308.767000", "111308.770000", "111308.772000", "111348.707000", "111348.710000", "111348.713000", "111348.715000", "111348.718000", "111348.720000", "111348.723000", "111348.725000", "111348.728000", "111348.730000", "111348.733000", "111348.735000", "111348.738000", "111348.741000", "111348.743000", "111348.746000", "111348.748000", "111348.751000", "111348.754000", "111348.756000", "111348.759000", "111348.761000", "111348.764000", "111348.766000", "111348.769000", "111348.772000", "111348.774000", "111428.692000", "111428.695000", "111428.697000", "111428.700000", "111428.702000", "111428.705000", "111428.708000", "111428.710000", "111428.713000", "111428.715000", "111428.718000", "111428.721000", "111428.723000", "111428.726000", "111428.728000", "111428.731000", "111428.735000", "111428.739000", "111428.742000", "111428.745000", "111428.749000", "111428.751000", "111428.754000", "111428.757000", "111428.759000", "111428.762000", "111508.722000", "111508.725000", "111508.728000", "111508.730000", "111508.733000", "111508.736000", "111508.738000", "111508.741000", "111508.743000", "111508.746000", "111508.748000", "111508.751000", "111508.754000", "111508.756000", "111508.759000", "111508.761000", "111508.764000", "111508.767000", "111508.769000", "111508.772000", "111508.774000", "111508.777000", "111508.779000", "111508.782000", "111508.784000", "111508.787000", "111508.790000", "111548.731000", "111548.734000", "111548.737000", "111548.739000", "111548.749000", "111548.752000", "111548.754000", "111548.757000", "111548.760000", "111548.762000", "111548.765000", "111548.767000", "111548.770000", "111548.773000", "111548.779000", "111548.782000", "111548.784000", "111548.787000", "111548.790000", "111548.792000", "111548.798000", "111548.801000", "111548.803000", "111548.806000", "111548.809000", "111548.811000", "111548.814000", "111628.716000", "111628.719000", "111628.721000", "111628.724000", "111628.727000", "111628.729000", "111628.732000", "111628.734000", "111628.737000", "111628.739000", "111628.742000", "111628.744000", "111628.747000", "111628.749000", "111628.752000", "111628.755000", "111628.757000", "111628.760000", "111628.762000", "111628.765000", "111628.767000", "111628.770000", "111628.773000", "111628.775000", "111628.778000", "111628.780000", "111628.783000", "111708.712000", "111708.715000", "111708.718000", "111708.720000", "111708.723000", "111708.726000", "111708.728000", "111708.731000", "111708.733000", "111708.736000", "111708.738000", "111708.741000", "111708.743000", "111708.746000", "111708.748000", "111708.751000", "111708.753000", "111708.756000", "111708.762000", "111708.765000", "111708.767000", "111708.770000", "111708.772000", "111708.775000", "111708.778000", "111708.780000", "111708.783000", "111748.697000", "111748.700000", "111748.703000", "111748.705000", "111748.708000", "111748.710000", "111748.713000", "111748.716000", "111748.718000", "111748.721000", "111748.723000", "111748.726000", "111748.728000", "111748.731000", "111748.733000", "111748.736000", "111748.739000", "111748.741000", "111748.744000", "111748.746000", "111748.749000", "111748.751000", "111748.754000", "111748.756000", "111748.759000", "111748.762000", "111748.764000", "111828.722000", "111828.725000", "111828.727000", "111828.730000", "111828.733000", "111828.735000", "111828.738000", "111828.740000", "111828.743000", "111828.745000", "111828.748000", "111828.751000", "111828.753000", "111828.756000", "111828.758000", "111828.761000", "111828.763000", "111828.780000", "111828.782000", "111828.785000", "111828.787000", "111828.790000", "111828.792000", "111828.795000", "111828.797000", "111828.800000", "111908.690000", "111908.693000", "111908.696000", "111908.698000", "111908.701000", "111908.703000", "111908.706000", "111908.709000", "111908.711000", "111908.714000", "111908.716000", "111908.720000", "111908.722000", "111908.725000", "111908.727000", "111908.730000", "111908.733000", "111908.735000", "111908.738000", "111908.751000", "111908.753000", "111908.756000", "111908.759000", "111908.761000", "111908.764000", "111908.766000", "111908.769000", "111948.716000", "111948.718000", "111948.721000", "111948.724000", "111948.726000", "111948.729000", "111948.731000", "111948.734000", "111948.737000", "111948.739000", "111948.742000", "111948.745000", "111948.747000", "111948.750000", "111948.752000", "111948.755000", "111948.757000", "111948.760000", "111948.763000", "111948.765000", "111948.768000", "111948.770000", "111948.773000", "111948.776000", "111948.778000", "111948.781000", "111948.783000", "112028.702000", "112028.705000", "112028.707000", "112028.710000", "112028.713000", "112028.715000", "112028.718000", "112028.720000", "112028.723000", "112028.726000", "112028.731000", "112028.734000", "112028.737000", "112028.739000", "112028.742000", "112028.744000", "112028.747000", "112028.750000", "112028.752000", "112028.755000", "112028.757000", "112028.760000", "112028.763000", "112028.765000", "112028.768000", "112028.771000", "112028.776000", "112040.920000", "112040.923000", "112040.926000", "112040.928000", "112040.931000", "112040.934000", "112040.936000", "112040.939000"],
      "InstanceCreationTime": ["111048.623000", "111048.626000", "111128.786000", "111128.788000", "111128.791000", "111128.794000", "111128.796000", "111128.799000", "111128.801000", "111128.804000", "111128.806000", "111128.809000", "111128.811000", "111128.814000", "111128.816000", "111128.819000", "111128.822000", "111128.824000", "111128.827000", "111128.829000", "111128.832000", "111128.834000", "111128.837000", "111128.839000", "111128.842000", "111128.844000", "111128.847000", "111128.850000", "111128.852000", "111128.855000", "111128.857000", "111128.860000", "111128.862000", "111128.865000", "111128.876000", "111128.878000", "111128.881000", "111128.884000", "111128.886000", "111128.889000", "111148.670000", "111148.673000", "111148.675000", "111148.678000", "111148.680000", "111148.683000", "111148.686000", "111148.693000", "111148.695000", "111148.698000", "111148.701000", "111148.703000", "111148.706000", "111148.709000", "111148.713000", "111148.716000", "111148.719000", "111148.721000", "111148.724000", "111148.726000", "111148.729000", "111208.669000", "111208.672000", "111208.674000", "111208.682000", "111208.685000", "111208.687000", "111208.690000", "111208.692000", "111208.695000", "111208.697000", "111208.700000", "111208.702000", "111208.705000", "111208.708000", "111208.710000", "111208.713000", "111208.715000", "111208.728000", "111208.731000", "111208.733000", "111228.674000", "111228.677000", "111228.679000", "111228.682000", "111228.684000", "111228.687000", "111228.692000", "111228.695000", "111228.698000", "111228.700000", "111228.703000", "111228.705000", "111228.708000", "111228.710000", "111228.713000", "111228.715000", "111228.718000", "111228.721000", "111228.723000", "111228.726000", "111308.700000", "111308.703000", "111308.705000", "111308.708000", "111308.711000", "111308.713000", "111308.716000", "111308.718000", "111308.721000", "111308.723000", "111308.726000", "111308.728000", "111308.731000", "111308.734000", "111308.736000", "111308.739000", "111308.741000", "111308.744000", "111308.746000", "111308.749000", "111308.751000", "111308.754000", "111308.757000", "111308.759000", "111308.762000", "111308.764000", "111308.767000", "111308.770000", "111308.772000", "111348.707000", "111348.710000", "111348.713000", "111348.715000", "111348.718000", "111348.720000", "111348.723000", "111348.725000", "111348.728000", "111348.730000", "111348.733000", "111348.735000", "111348.738000", "111348.741000", "111348.743000", "111348.746000", "111348.748000", "111348.751000", "111348.754000", "111348.756000", "111348.759000", "111348.761000", "111348.764000", "111348.766000", "111348.769000", "111348.772000", "111348.774000", "111428.692000", "111428.695000", "111428.697000", "111428.700000", "111428.702000", "111428.705000", "111428.708000", "111428.710000", "111428.713000", "111428.715000", "111428.718000", "111428.721000", "111428.723000", "111428.726000", "111428.728000", "111428.731000", "111428.735000", "111428.739000", "111428.742000", "111428.745000", "111428.749000", "111428.751000", "111428.754000", "111428.757000", "111428.759000", "111428.762000", "111508.722000", "111508.725000", "111508.728000", "111508.730000", "111508.733000", "111508.736000", "111508.738000", "111508.741000", "111508.743000", "111508.746000", "111508.748000", "111508.751000", "111508.754000", "111508.756000", "111508.759000", "111508.761000", "111508.764000", "111508.767000", "111508.769000", "111508.772000", "111508.774000", "111508.777000", "111508.779000", "111508.782000", "111508.784000", "111508.787000", "111508.790000", "111548.731000", "111548.734000", "111548.737000", "111548.739000", "111548.749000", "111548.752000", "111548.754000", "111548.757000", "111548.760000", "111548.762000", "111548.765000", "111548.767000", "111548.770000", "111548.773000", "111548.779000", "111548.782000", "111548.784000", "111548.787000", "111548.790000", "111548.792000", "111548.798000", "111548.801000", "111548.803000", "111548.806000", "111548.809000", "111548.811000", "111548.814000", "111628.716000", "111628.719000", "111628.721000", "111628.724000", "111628.727000", "111628.729000", "111628.732000", "111628.734000", "111628.737000", "111628.739000", "111628.742000", "111628.744000", "111628.747000", "111628.749000", "111628.752000", "111628.755000", "111628.757000", "111628.760000", "111628.762000", "111628.765000", "111628.767000", "111628.770000", "111628.773000", "111628.775000", "111628.778000", "111628.780000", "111628.783000", "111708.712000", "111708.715000", "111708.718000", "111708.720000", "111708.723000", "111708.726000", "111708.728000", "111708.731000", "111708.733000", "111708.736000", "111708.738000", "111708.741000", "111708.743000", "111708.746000", "111708.748000", "111708.751000", "111708.753000", "111708.756000", "111708.762000", "111708.765000", "111708.767000", "111708.770000", "111708.772000", "111708.775000", "111708.778000", "111708.780000", "111708.783000", "111748.697000", "111748.700000", "111748.703000", "111748.705000", "111748.708000", "111748.710000", "111748.713000", "111748.716000", "111748.718000", "111748.721000", "111748.723000", "111748.726000", "111748.728000", "111748.731000", "111748.733000", "111748.736000", "111748.739000", "111748.741000", "111748.744000", "111748.746000", "111748.749000", "111748.751000", "111748.754000", "111748.756000", "111748.759000", "111748.762000", "111748.764000", "111828.722000", "111828.725000", "111828.727000", "111828.730000", "111828.733000", "111828.735000", "111828.738000", "111828.740000", "111828.743000", "111828.745000", "111828.748000", "111828.751000", "111828.753000", "111828.756000", "111828.758000", "111828.761000", "111828.763000", "111828.780000", "111828.782000", "111828.785000", "111828.787000", "111828.790000", "111828.792000", "111828.795000", "111828.797000", "111828.800000", "111908.690000", "111908.693000", "111908.696000", "111908.698000", "111908.701000", "111908.703000", "111908.706000", "111908.709000", "111908.711000", "111908.714000", "111908.716000", "111908.720000", "111908.722000", "111908.725000", "111908.727000", "111908.730000", "111908.733000", "111908.735000", "111908.738000", "111908.751000", "111908.753000", "111908.756000", "111908.759000", "111908.761000", "111908.764000", "111908.766000", "111908.769000", "111948.716000", "111948.718000", "111948.721000", "111948.724000", "111948.726000", "111948.729000", "111948.731000", "111948.734000", "111948.737000", "111948.739000", "111948.742000", "111948.745000", "111948.747000", "111948.750000", "111948.752000", "111948.755000", "111948.757000", "111948.760000", "111948.763000", "111948.765000", "111948.768000", "111948.770000", "111948.773000", "111948.776000", "111948.778000", "111948.781000", "111948.783000", "112028.702000", "112028.705000", "112028.707000", "112028.710000", "112028.713000", "112028.715000", "112028.718000", "112028.720000", "112028.723000", "112028.726000", "112028.731000", "112028.734000", "112028.737000", "112028.739000", "112028.742000", "112028.744000", "112028.747000", "112028.750000", "112028.752000", "112028.755000", "112028.757000", "112028.760000", "112028.763000", "112028.765000", "112028.768000", "112028.771000", "112028.776000", "112040.920000", "112040.923000", "112040.926000", "112040.928000", "112040.931000", "112040.934000", "112040.936000", "112040.939000"],
