{
  "AcquisitionMatrixPE": 104,
  "AcquisitionNumber": 1,
  "AcquisitionTime": "11:09:54.350000",
  "BandwidthPerPixelPhaseEncode": 17.17,
  "BaseResolution": 104,
  "BodyPartExamined": "BRAIN",
  "CoilString": "HC1-7;NC1_2",
  "ConsistencyInfo": "N4_VE11C_LATEST_20160120",
  "ConversionSoftware": "dcm2niix",
  "ConversionSoftwareVersion": "v1.0.20190902",
  "DerivedVendorReportedEchoSpacing": 0.000560011,
  "DeviceSerialNumber": "167006",
  "DwellTime": 2.1e-06,
  "EchoTime": 0.037,
  "EchoTrainLength": 104,
  "EffectiveEchoSpacing": 0.000560011,
  "FlipAngle": 52,
  "HeudiconvVersion": "0.10.0",
  "ImageComments": "Unaliased_MB4_PE3_LB",
  "ImageOrientationPatientDICOM": [0.999072, 0.0305903, 0.0303267, -0.014997, 0.907011, -0.420839],
  "ImageType": [
    "ORIGINAL",
    "PRIMARY",
    "M",
    "MB",
    "ND",
    "MOSAIC"
],
  "ImagingFrequency": 123.259,
  "InPlanePhaseEncodingDirectionDICOM": "COL",
  "InstitutionAddress": "Chemin_Queen-Mary_4565_Montreal_District_CA_H3W_1W5",
  "InstitutionName": "IUGM",
  "InstitutionalDepartmentName": "Department",
  "MRAcquisitionType": "2D",
  "MagneticFieldStrength": 3,
  "Manufacturer": "Siemens",
  "ManufacturersModelName": "Prisma_fit",
  "Modality": "MR",
  "MultibandAccelerationFactor": 4,
  "PartialFourier": 1,
  "PatientPosition": "HFS",
  "PercentPhaseFOV": 100,
  "PhaseEncodingDirection": "j",
  "PhaseEncodingSteps": 104,
  "PhaseResolution": 1,
  "PixelBandwidth": 2290,
  "ProcedureStepDescription": "games_mario",
  "ProtocolName": "func_task-mario_run-01",
  "PulseSequenceDetails": "%CustomerSeq%_cmrr_mbep2d_bold",
  "ReceiveCoilActiveElements": "HC1-7;NC1,2",
  "ReceiveCoilName": "HeadNeck_64",
  "ReconMatrixPE": 104,
  "RepetitionTime": 1.49,
  "SAR": 0.0532522,
  "ScanOptions": "FS",
  "ScanningSequence": "EP",
  "SequenceName": "epfid2d1_104",
  "SequenceVariant": "SK_SS",
  "SeriesDescription": "func_task-mario_run-01",
  "SeriesNumber": 10,
  "ShimSetting": [626, -7148, -8860, 593, 60, 132, -52, -21],
  "SliceThickness": 2,
  "SliceTiming": [0, 0.7825, 0.0975, 0.88, 0.195, 0.98, 0.2925, 1.0775, 0.39, 1.175, 0.49, 1.2725, 0.5875, 1.37, 0.685, 0, 0.7825, 0.0975, 0.88, 0.195, 0.98, 0.2925, 1.0775, 0.39, 1.175, 0.49, 1.2725, 0.5875, 1.37, 0.685, 0, 0.7825, 0.0975, 0.88, 0.195, 0.98, 0.2925, 1.0775, 0.39, 1.175, 0.49, 1.2725, 0.5875, 1.37, 0.685, 0, 0.7825, 0.0975, 0.88, 0.195, 0.98, 0.2925, 1.0775, 0.39, 1.175, 0.49, 1.2725, 0.5875, 1.37, 0.685],
  "SoftwareVersions": "syngo_MR_E11",
  "SpacingBetweenSlices": 2,
  "StationName": "MRC35049",
  "TaskName": "mario",
  "TotalReadoutTime": 0.0576811,
  "TxRefAmp": 275.247,
  "WipMemBlock": "c07c7964-1197-467a-b62a-a63403260307||Sequence: R016 ve11c/master r/e634e98; Dec 19 2017 11:00:25 by eja",
  "dcmmeta_affine": [
    [-1.9981436729431152, -0.02999393455684185, 0.08076050132513046, 107.12235260009766],
    [-0.06118052825331688, 1.8140225410461426, -0.8399875164031982, -52.242469787597656],
    [0.06065342202782631, 0.8416783213615417, 1.8132563829421997, -78.87796783447266],
    [0.0, 0.0, 0.0, 1.0]
],
  "dcmmeta_reorient_transform": [
    [0.0, -1.0, 0.0, 103.0],
    [1.0, 0.0, 0.0, 0.0],
    [0.0, 0.0, 1.0, 0.0],
    [0.0, 0.0, 0.0, 1.0]
],
  "dcmmeta_shape": [104, 104, 60, 433],
  "dcmmeta_slice_dim": 2,
  "dcmmeta_version": 0.6,
  "global": {
    "const": {
      "AcquisitionMatrix": [104, 0, 0, 104],
      "AngioFlag": "N",
      "BitsAllocated": 16,
      "BitsStored": 16,
      "BodyPartExamined": "BRAIN",
      "Columns": 832,
      "EchoNumbers": 1,
      "EchoTime": 37.0,
      "EchoTrainLength": 104,
      "FlipAngle": 52.0,
      "HighBit": 15,
      "ImageOrientationPatient": [0.99907183239155, 0.030590264881, 0.03032671126743, -0.0149969672749, 0.90701129103425, -0.4208391722606],
      "ImagePositionPatient": [-820.43947971452, -817.17578785645, 292.10797048206],
      "ImageType": [
        "ORIGINAL",
        "PRIMARY",
        "M",
        "MB",
        "ND",
        "MOSAIC"
],
      "ImagedNucleus": "1H",
      "ImagingFrequency": 123.258946,
      "InPlanePhaseEncodingDirection": "COL",
      "MRAcquisitionType": "2D",
      "MagneticFieldStrength": 3.0,
      "Manufacturer": "SIEMENS",
      "ManufacturerModelName": "Prisma_fit",
      "Modality": "MR",
      "NumberOfAverages": 1.0,
      "NumberOfPhaseEncodingSteps": 104,
      "PercentPhaseFieldOfView": 100.0,
      "PercentSampling": 100.0,
      "PerformedProcedureStepStartTime": "101109.451000",
      "PhotometricInterpretation": "MONOCHROME2",
      "PixelBandwidth": 2290.0,
      "PixelRepresentation": 0,
      "PixelSpacing": [2.0, 2.0],
      "ProtocolName": "func_task-mario_run-01",
      "RepetitionTime": 1490.0,
      "Rows": 832,
      "SAR": 0.0532522048217,
      "SamplesPerPixel": 1,
      "ScanOptions": "FS",
      "ScanningSequence": "EP",
      "SequenceName": "epfid2d1_104",
      "SequenceVariant": [
        "SK",
        "SS"
],
      "SeriesDescription": "func_task-mario_run-01",
      "SeriesNumber": 10,
      "SeriesTime": "111048.587000",
      "SliceLocation": -45.245853031511,
      "SliceThickness": 2.0,
      "SmallestImagePixelValue": 0,
      "SoftwareVersions": "syngo MR E11",
      "SpacingBetweenSlices": 2.0000000147912,
      "SpecificCharacterSet": "ISO_IR 100",
      "StudyID": "1",
      "StudyTime": "101109.357000",
      "TransmitCoilName": "Body",
      "VariableFlipAngleFlag": "N",
      "WindowCenterWidthExplanation": "Algo1",
      "dBdt": 0.0},
    "slices": {}
  },
  "time": {
    "samples": {
      "AcquisitionNumber": [1, 2, 3, 4, 5, 6, 7, 8, 9, 10, 11, 12, 13, 14, 15, 16, 17, 18, 19, 20, 21, 22, 23, 24, 25, 26, 27, 28, 29, 30, 31, 32, 33, 34, 35, 36, 37, 38, 39, 40, 41, 42, 43, 44, 45, 46, 47, 48, 49, 50, 51, 52, 53, 54, 55, 56, 57, 58, 59, 60, 61, 62, 63, 64, 65, 66, 67, 68, 69, 70, 71, 72, 73, 74, 75, 76, 77, 78, 79, 80, 81, 82, 83, 84, 85, 86, 87, 88, 89, 90, 91, 92, 93, 94, 95, 96, 97, 98, 99, 100, 101, 102, 103, 104, 105, 106, 107, 108, 109, 110, 111, 112, 113, 114, 115, 116, 117, 118, 119, 120, 121, 122, 123, 124, 125, 126, 127, 128, 129, 130, 131, 132, 133, 134, 135, 136, 137, 138, 139, 140, 141, 142, 143, 144, 145, 146, 147, 148, 149, 150, 151, 152, 153, 154, 155, 156, 157, 158, 159, 160, 161, 162, 163, 164, 165, 166, 167, 168, 169, 170, 171, 172, 173, 174, 175, 176, 177, 178, 179, 180, 181, 182, 183, 184, 185, 186, 187, 188, 189, 190, 191, 192, 193, 194, 195, 196, 197, 198, 199, 200, 201, 202, 203, 204, 205, 206, 207, 208, 209, 210, 211, 212, 213, 214, 215, 216, 217, 218, 219, 220, 221, 222, 223, 224, 225, 226, 227, 228, 229, 230, 231, 232, 233, 234, 235, 236, 237, 238, 239, 240, 241, 242, 243, 244, 245, 246, 247, 248, 249, 250, 251, 252, 253, 254, 255, 256, 257, 258, 259, 260, 261, 262, 263, 264, 265, 266, 267, 268, 269, 270, 271, 272, 273, 274, 275, 276, 277, 278, 279, 280, 281, 282, 283, 284, 285, 286, 287, 288, 289, 290, 291, 292, 293, 294, 295, 296, 297, 298, 299, 300, 301, 302, 303, 304, 305, 306, 307, 308, 309, 310, 311, 312, 313, 314, 315, 316, 317, 318, 319, 320, 321, 322, 323, 324, 325, 326, 327, 328, 329, 330, 331, 332, 333, 334, 335, 336, 337, 338, 339, 340, 341, 342, 343, 344, 345, 346, 347, 348, 349, 350, 351, 352, 353, 354, 355, 356, 357, 358, 359, 360, 361, 362, 363, 364, 365, 366, 367, 368, 369, 370, 371, 372, 373, 374, 375, 376, 377, 378, 379, 380, 381, 382, 383, 384, 385, 386, 387, 388, 389, 390, 391, 392, 393, 394, 395, 396, 397, 398, 399, 400, 401, 402, 403, 404, 405, 406, 407, 408, 409, 410, 411, 412, 413, 414, 415, 416, 417, 418, 419, 420, 421, 422, 423, 424, 425, 426, 427, 428, 429, 430, 431, 432, 433],
      "AcquisitionTime": ["110954.350000", "110955.840000", "110957.330000", "110958.820000", "111000.310000", "111001.800000", "111003.290000", "111004.780000", "111006.270000", "111007.760000", "111009.250000", "111010.740000", "111012.230000", "111013.720000", "111015.210000", "111016.700000", "111018.190000", "111019.680000", "111021.170000", "111022.660000", "111024.150000", "111025.640000", "111027.130000", "111028.620000", "111030.110000", "111031.600000", "111033.090000", "111034.580000", "111036.070000", "111037.560000", "111039.050000", "111040.540000", "111042.030000", "111043.520000", "111045.010000", "111046.500000", "111047.990000", "111049.480000", "111050.970000", "111052.460000", "111053.950000", "111055.440000", "111056.930000", "111058.420000", "111059.910000", "111101.400000", "111102.890000", "111104.380000", "111105.870000", "111107.360000", "111108.850000", "111110.340000", "111111.830000", "111113.320000", "111114.810000", "111116.300000", "111117.790000", "111119.280000", "111120.770000", "111122.260000", "111123.750000", "111125.240000", "111126.730000", "111128.220000", "111129.710000", "111131.200000", "111132.690000", "111134.180000", "111135.670000", "111137.160000", "111138.650000", "111140.140000", "111141.630000", "111143.120000", "111144.610000", "111146.100000", "111147.590000", "111149.080000", "111150.570000", "111152.060000", "111153.550000", "111155.040000", "111156.530000", "111158.020000", "111159.510000", "111201.000000", "111202.490000", "111203.980000", "111205.470000", "111206.960000", "111208.450000", "111209.940000", "111211.430000", "111212.920000", "111214.410000", "111215.900000", "111217.390000", "111218.880000", "111220.370000", "111221.860000", "111223.350000", "111224.840000", "111226.330000", "111227.820000", "111229.310000", "111230.800000", "111232.290000", "111233.780000", "111235.270000", "111236.760000", "111238.250000", "111239.740000", "111241.230000", "111242.720000", "111244.210000", "111245.700000", "111247.190000", "111248.680000", "111250.170000", "111251.660000", "111253.150000", "111254.640000", "111256.130000", "111257.620000", "111259.110000", "111300.600000", "111302.090000", "111303.580000", "111305.070000", "111306.560000", "111308.050000", "111309.540000", "111311.030000", "111312.520000", "111314.010000", "111315.500000", "111316.990000", "111318.480000", "111319.970000", "111321.460000", "111322.950000", "111324.440000", "111325.930000", "111327.420000", "111328.910000", "111330.400000", "111331.890000", "111333.380000", "111334.870000", "111336.360000", "111337.850000", "111339.340000", "111340.830000", "111342.320000", "111343.810000", "111345.300000", "111346.790000", "111348.280000", "111349.770000", "111351.260000", "111352.750000", "111354.240000", "111355.730000", "111357.220000", "111358.710000", "111400.200000", "111401.690000", "111403.180000", "111404.670000", "111406.160000", "111407.650000", "111409.140000", "111410.630000", "111412.120000", "111413.610000", "111415.100000", "111416.590000", "111418.080000", "111419.570000", "111421.060000", "111422.550000", "111424.040000", "111425.530000", "111427.020000", "111428.510000", "111430.000000", "111431.490000", "111432.980000", "111434.470000", "111435.960000", "111437.450000", "111438.940000", "111440.430000", "111441.920000", "111443.410000", "111444.900000", "111446.390000", "111447.880000", "111449.370000", "111450.860000", "111452.350000", "111453.840000", "111455.330000", "111456.820000", "111458.310000", "111459.800000", "111501.290000", "111502.780000", "111504.270000", "111505.760000", "111507.250000", "111508.740000", "111510.230000", "111511.720000", "111513.210000", "111514.700000", "111516.190000", "111517.680000", "111519.170000", "111520.660000", "111522.150000", "111523.640000", "111525.130000", "111526.620000", "111528.110000", "111529.600000", "111531.090000", "111532.580000", "111534.070000", "111535.560000", "111537.050000", "111538.540000", "111540.030000", "111541.520000", "111543.010000", "111544.500000", "111545.990000", "111547.480000", "111548.970000", "111550.460000", "111551.950000", "111553.440000", "111554.930000", "111556.420000", "111557.910000", "111559.400000", "111600.890000", "111602.380000", "111603.870000", "111605.360000", "111606.850000", "111608.340000", "111609.830000", "111611.320000", "111612.810000", "111614.300000", "111615.790000", "111617.280000", "111618.770000", "111620.260000", "111621.750000", "111623.240000", "111624.730000", "111626.220000", "111627.710000", "111629.200000", "111630.690000", "111632.180000", "111633.670000", "111635.160000", "111636.650000", "111638.140000", "111639.630000", "111641.120000", "111642.610000", "111644.100000", "111645.590000", "111647.080000", "111648.570000", "111650.060000", "111651.550000", "111653.040000", "111654.530000", "111656.020000", "111657.510000", "111659.000000", "111700.490000", "111701.980000", "111703.470000", "111704.960000", "111706.450000", "111707.940000", "111709.430000", "111710.920000", "111712.410000", "111713.900000", "111715.390000", "111716.880000", "111718.370000", "111719.860000", "111721.350000", "111722.840000", "111724.330000", "111725.820000", "111727.310000", "111728.800000", "111730.290000", "111731.780000", "111733.270000", "111734.760000", "111736.250000", "111737.740000", "111739.230000", "111740.720000", "111742.210000", "111743.700000", "111745.190000", "111746.680000", "111748.170000", "111749.660000", "111751.150000", "111752.640000", "111754.130000", "111755.620000", "111757.110000", "111758.600000", "111800.090000", "111801.580000", "111803.070000", "111804.560000", "111806.050000", "111807.540000", "111809.030000", "111810.520000", "111812.010000", "111813.500000", "111814.990000", "111816.480000", "111817.970000", "111819.460000", "111820.950000", "111822.440000", "111823.930000", "111825.420000", "111826.910000", "111828.400000", "111829.890000", "111831.380000", "111832.870000", "111834.360000", "111835.850000", "111837.340000", "111838.830000", "111840.320000", "111841.810000", "111843.300000", "111844.790000", "111846.280000", "111847.770000", "111849.260000", "111850.750000", "111852.240000", "111853.730000", "111855.220000", "111856.710000", "111858.200000", "111859.690000", "111901.180000", "111902.670000", "111904.160000", "111905.650000", "111907.140000", "111908.630000", "111910.120000", "111911.610000", "111913.100000", "111914.590000", "111916.080000", "111917.570000", "111919.060000", "111920.550000", "111922.040000", "111923.530000", "111925.020000", "111926.510000", "111928.000000", "111929.490000", "111930.980000", "111932.470000", "111933.960000", "111935.450000", "111936.940000", "111938.430000", "111939.920000", "111941.410000", "111942.900000", "111944.390000", "111945.880000", "111947.370000", "111948.860000", "111950.350000", "111951.840000", "111953.330000", "111954.820000", "111956.310000", "111957.800000", "111959.290000", "112000.780000", "112002.270000", "112003.760000", "112005.250000", "112006.740000", "112008.230000", "112009.720000", "112011.210000", "112012.700000", "112014.190000", "112015.680000", "112017.170000", "112018.660000", "112020.150000", "112021.640000", "112023.130000", "112024.620000", "112026.110000", "112027.600000", "112029.090000", "112030.580000", "112032.070000", "112033.560000", "112035.050000", "112036.540000", "112038.030000"],
      "ContentTime": ["111048.590000", "111048.594000", "111128.550000", "111128.554000", "111128.557000", "111128.562000", "111128.565000", "111128.569000", "111128.573000", "111128.577000", "111128.583000", "111128.587000", "111128.590000", "111128.595000", "111128.601000", "111128.628000", "111128.631000", "111128.635000", "111128.638000", "111128.641000", "111128.645000", "111128.649000", "111128.652000", "111128.655000", "111128.659000", "111128.662000", "111128.665000", "111128.669000", "111128.672000", "111128.676000", "111128.679000", "111128.682000", "111128.686000", "111128.689000", "111128.693000", "111128.705000", "111128.709000", "111128.712000", "111128.715000", "111128.719000", "111148.550000", "111148.554000", "111148.557000", "111148.561000", "111148.564000", "111148.568000", "111148.571000", "111148.574000", "111148.578000", "111148.581000", "111148.589000", "111148.592000", "111148.596000", "111148.599000", "111148.602000", "111148.606000", "111148.609000", "111148.612000", "111148.616000", "111148.619000", "111148.622000", "111208.550000", "111208.554000", "111208.557000", "111208.563000", "111208.567000", "111208.570000", "111208.574000", "111208.577000", "111208.580000", "111208.584000", "111208.587000", "111208.591000", "111208.594000", "111208.598000", "111208.602000", "111208.605000", "111208.608000", "111208.612000", "111208.615000", "111208.619000", "111228.550000", "111228.554000", "111228.565000", "111228.569000", "111228.572000", "111228.576000", "111228.579000", "111228.582000", "111228.586000", "111228.589000", "111228.593000", "111228.596000", "111228.599000", "111228.603000", "111228.606000", "111228.609000", "111228.613000", "111228.624000", "111228.630000", "111228.634000", "111308.550000", "111308.554000", "111308.557000", "111308.561000", "111308.564000", "111308.568000", "111308.571000", "111308.575000", "111308.578000", "111308.582000", "111308.585000", "111308.588000", "111308.592000", "111308.595000", "111308.599000", "111308.602000", "111308.605000", "111308.609000", "111308.612000", "111308.616000", "111308.619000", "111308.622000", "111308.626000", "111308.629000", "111308.633000", "111308.636000", "111308.639000", "111308.643000", "111308.646000", "111348.550000", "111348.554000", "111348.558000", "111348.561000", "111348.564000", "111348.568000", "111348.571000", "111348.575000", "111348.578000", "111348.582000", "111348.593000", "111348.597000", "111348.600000", "111348.603000", "111348.607000", "111348.610000", "111348.614000", "111348.617000", "111348.621000", "111348.624000", "111348.628000", "111348.631000", "111348.635000", "111348.638000", "111348.641000", "111348.645000", "111348.648000", "111428.550000", "111428.554000", "111428.557000", "111428.561000", "111428.564000", "111428.568000", "111428.579000", "111428.582000", "111428.585000", "111428.589000", "111428.592000", "111428.596000", "111428.599000", "111428.603000", "111428.607000", "111428.610000", "111428.613000", "111428.617000", "111428.620000", "111428.623000", "111428.627000", "111428.630000", "111428.634000", "111428.637000", "111428.641000", "111428.644000", "111508.550000", "111508.554000", "111508.558000", "111508.561000", "111508.564000", "111508.568000", "111508.572000", "111508.575000", "111508.578000", "111508.582000", "111508.585000", "111508.589000", "111508.592000", "111508.596000", "111508.599000", "111508.602000", "111508.606000", "111508.609000", "111508.623000", "111508.627000", "111508.630000", "111508.634000", "111508.646000", "111508.649000", "111508.653000", "111508.656000", "111508.660000", "111548.550000", "111548.554000", "111548.558000", "111548.561000", "111548.564000", "111548.568000", "111548.572000", "111548.582000", "111548.586000", "111548.589000", "111548.593000", "111548.596000", "111548.600000", "111548.603000", "111548.606000", "111548.610000", "111548.613000", "111548.617000", "111548.620000", "111548.624000", "111548.627000", "111548.631000", "111548.634000", "111548.638000", "111548.641000", "111548.645000", "111548.648000", "111628.550000", "111628.554000", "111628.557000", "111628.561000", "111628.564000", "111628.568000", "111628.571000", "111628.575000", "111628.578000", "111628.582000", "111628.585000", "111628.589000", "111628.592000", "111628.606000", "111628.609000", "111628.613000", "111628.616000", "111628.620000", "111628.623000", "111628.627000", "111628.630000", "111628.634000", "111628.637000", "111628.641000", "111628.644000", "111628.648000", "111628.651000", "111708.550000", "111708.554000", "111708.558000", "111708.561000", "111708.565000", "111708.568000", "111708.572000", "111708.575000", "111708.579000", "111708.582000", "111708.586000", "111708.589000", "111708.592000", "111708.596000", "111708.599000", "111708.603000", "111708.613000", "111708.617000", "111708.620000", "111708.624000", "111708.627000", "111708.631000", "111708.634000", "111708.637000", "111708.641000", "111708.644000", "111708.648000", "111748.550000", "111748.554000", "111748.558000", "111748.561000", "111748.564000", "111748.568000", "111748.571000", "111748.575000", "111748.578000", "111748.582000", "111748.585000", "111748.589000", "111748.592000", "111748.596000", "111748.599000", "111748.603000", "111748.606000", "111748.610000", "111748.613000", "111748.616000", "111748.620000", "111748.623000", "111748.627000", "111748.630000", "111748.634000", "111748.637000", "111748.640000", "111828.551000", "111828.555000", "111828.558000", "111828.562000", "111828.565000", "111828.568000", "111828.572000", "111828.575000", "111828.579000", "111828.582000", "111828.586000", "111828.589000", "111828.593000", "111828.596000", "111828.599000", "111828.603000", "111828.606000", "111828.610000", "111828.615000", "111828.619000", "111828.623000", "111828.627000", "111828.631000", "111828.635000", "111828.638000", "111828.642000", "111908.550000", "111908.554000", "111908.558000", "111908.561000", "111908.565000", "111908.568000", "111908.572000", "111908.575000", "111908.579000", "111908.582000", "111908.586000", "111908.589000", "111908.592000", "111908.596000", "111908.599000", "111908.603000", "111908.606000", "111908.610000", "111908.613000", "111908.617000", "111908.620000", "111908.623000", "111908.627000", "111908.630000", "111908.634000", "111908.637000", "111908.641000", "111948.550000", "111948.554000", "111948.559000", "111948.563000", "111948.566000", "111948.570000", "111948.573000", "111948.577000", "111948.580000", "111948.584000", "111948.587000", "111948.590000", "111948.594000", "111948.597000", "111948.601000", "111948.604000", "111948.607000", "111948.611000", "111948.614000", "111948.618000", "111948.621000", "111948.625000", "111948.628000", "111948.632000", "111948.635000", "111948.638000", "111948.642000", "112028.550000", "112028.554000", "112028.558000", "112028.561000", "112028.564000", "112028.568000", "112028.572000", "112028.575000", "112028.578000", "112028.582000", "112028.585000", "112028.589000", "112028.592000", "112028.596000", "112028.599000", "112028.602000", "112028.606000", "112028.609000", "112028.613000", "112028.616000", "112028.620000", "112028.623000", "112028.626000", "112028.630000", "112028.633000", "112028.637000", "112028.640000", "112040.851000", "112040.855000", "112040.858000", "112040.862000", "112040.866000", "112040.870000", "112040.873000", "112040.876000"],
      "InstanceCreationTime": ["111048.590000", "111048.594000", "111128.550000", "111128.554000", "111128.557000", "111128.562000", "111128.565000", "111128.569000", "111128.573000", "111128.577000", "111128.583000", "111128.587000", "111128.590000", "111128.595000", "111128.601000", "111128.628000", "111128.631000", "111128.635000", "111128.638000", "111128.641000", "111128.645000", "111128.649000", "111128.652000", "111128.655000", "111128.659000", "111128.662000", "111128.665000", "111128.669000", "111128.672000", "111128.676000", "111128.679000", "111128.682000", "111128.686000", "111128.689000", "111128.693000", "111128.705000", "111128.709000", "111128.712000", "111128.715000", "111128.719000", "111148.550000", "111148.554000", "111148.557000", "111148.561000", "111148.564000", "111148.568000", "111148.571000", "111148.574000", "111148.578000", "111148.581000", "111148.589000", "111148.592000", "111148.596000", "111148.599000", "111148.602000", "111148.606000", "111148.609000", "111148.612000", "111148.616000", "111148.619000", "111148.622000", "111208.550000", "111208.554000", "111208.557000", "111208.563000", "111208.567000", "111208.570000", "111208.574000", "111208.577000", "111208.580000", "111208.584000", "111208.587000", "111208.591000", "111208.594000", "111208.598000", "111208.602000", "111208.605000", "111208.608000", "111208.612000", "111208.615000", "111208.619000", "111228.550000", "111228.554000", "111228.565000", "111228.569000", "111228.572000", "111228.576000", "111228.579000", "111228.582000", "111228.586000", "111228.589000", "111228.593000", "111228.596000", "111228.599000", "111228.603000", "111228.606000", "111228.609000", "111228.613000", "111228.624000", "111228.630000", "111228.634000", "111308.550000", "111308.554000", "111308.557000", "111308.561000", "111308.564000", "111308.568000", "111308.571000", "111308.575000", "111308.578000", "111308.582000", "111308.585000", "111308.588000", "111308.592000", "111308.595000", "111308.599000", "111308.602000", "111308.605000", "111308.609000", "111308.612000", "111308.616000", "111308.619000", "111308.622000", "111308.626000", "111308.629000", "111308.633000", "111308.636000", "111308.639000", "111308.643000", "111308.646000", "111348.550000", "111348.554000", "111348.558000", "111348.561000", "111348.564000", "111348.568000", "111348.571000", "111348.575000", "111348.578000", "111348.582000", "111348.593000", "111348.597000", "111348.600000", "111348.603000", "111348.607000", "111348.610000", "111348.614000", "111348.617000", "111348.621000", "111348.624000", "111348.628000", "111348.631000", "111348.635000", "111348.638000", "111348.641000", "111348.645000", "111348.648000", "111428.550000", "111428.554000", "111428.557000", "111428.561000", "111428.564000", "111428.568000", "111428.579000", "111428.582000", "111428.585000", "111428.589000", "111428.592000", "111428.596000", "111428.599000", "111428.603000", "111428.607000", "111428.610000", "111428.613000", "111428.617000", "111428.620000", "111428.623000", "111428.627000", "111428.630000", "111428.634000", "111428.637000", "111428.641000", "111428.644000", "111508.550000", "111508.554000", "111508.558000", "111508.561000", "111508.564000", "111508.568000", "111508.572000", "111508.575000", "111508.578000", "111508.582000", "111508.585000", "111508.589000", "111508.592000", "111508.596000", "111508.599000", "111508.602000", "111508.606000", "111508.609000", "111508.623000", "111508.627000", "111508.630000", "111508.634000", "111508.646000", "111508.649000", "111508.653000", "111508.656000", "111508.660000", "111548.550000", "111548.554000", "111548.558000", "111548.561000", "111548.564000", "111548.568000", "111548.572000", "111548.582000", "111548.586000", "111548.589000", "111548.593000", "111548.596000", "111548.600000", "111548.603000", "111548.606000", "111548.610000", "111548.613000", "111548.617000", "111548.620000", "111548.624000", "111548.627000", "111548.631000", "111548.634000", "111548.638000", "111548.641000", "111548.645000", "111548.648000", "111628.550000", "111628.554000", "111628.557000", "111628.561000", "111628.564000", "111628.568000", "111628.571000", "111628.575000", "111628.578000", "111628.582000", "111628.585000", "111628.589000", "111628.592000", "111628.606000", "111628.609000", "111628.613000", "111628.616000", "111628.620000", "111628.623000", "111628.627000", "111628.630000", "111628.634000", "111628.637000", "111628.641000", "111628.644000", "111628.648000", "111628.651000", "111708.550000", "111708.554000", "111708.558000", "111708.561000", "111708.565000", "111708.568000", "111708.572000", "111708.575000", "111708.579000", "111708.582000", "111708.586000", "111708.589000", "111708.592000", "111708.596000", "111708.599000", "111708.603000", "111708.613000", "111708.617000", "111708.620000", "111708.624000", "111708.627000", "111708.631000", "111708.634000", "111708.637000", "111708.641000", "111708.644000", "111708.648000", "111748.550000", "111748.554000", "111748.558000", "111748.561000", "111748.564000", "111748.568000", "111748.571000", "111748.575000", "111748.578000", "111748.582000", "111748.585000", "111748.589000", "111748.592000", "111748.596000", "111748.599000", "111748.603000", "111748.606000", "111748.610000", "111748.613000", "111748.616000", "111748.620000", "111748.623000", "111748.627000", "111748.630000", "111748.634000", "111748.637000", "111748.640000", "111828.551000", "111828.555000", "111828.558000", "111828.562000", "111828.565000", "111828.568000", "111828.572000", "111828.575000", "111828.579000", "111828.582000", "111828.586000", "111828.589000", "111828.593000", "111828.596000", "111828.599000", "111828.603000", "111828.606000", "111828.610000", "111828.615000", "111828.619000", "111828.623000", "111828.627000", "111828.631000", "111828.635000", "111828.638000", "111828.642000", "111908.550000", "111908.554000", "111908.558000", "111908.561000", "111908.565000", "111908.568000", "111908.572000", "111908.575000", "111908.579000", "111908.582000", "111908.586000", "111908.589000", "111908.592000", "111908.596000", "111908.599000", "111908.603000", "111908.606000", "111908.610000", "111908.613000", "111908.617000", "111908.620000", "111908.623000", "111908.627000", "111908.630000", "111908.634000", "111908.637000", "111908.641000", "111948.550000", "111948.554000", "111948.559000", "111948.563000", "111948.566000", "111948.570000", "111948.573000", "111948.577000", "111948.580000", "111948.584000", "111948.587000", "111948.590000", "111948.594000", "111948.597000", "111948.601000", "111948.604000", "111948.607000", "111948.611000", "111948.614000", "111948.618000", "111948.621000", "111948.625000", "111948.628000", "111948.632000", "111948.635000", "111948.638000", "111948.642000", "112028.550000", "112028.554000", "112028.558000", "112028.561000", "112028.564000", "112028.568000", "112028.572000", "112028.575000", "112028.578000", "112028.582000", "112028.585000", "112028.589000", "112028.592000", "112028.596000", "112028.599000", "112028.602000", "112028.606000", "112028.609000", "112028.613000", "112028.616000", "112028.620000", "112028.623000", "112028.626000", "112028.630000", "112028.633000", "112028.637000", "112028.640000", "112040.851000", "112040.855000", "112040.858000", "112040.862000", "112040.866000", "112040.870000", "112040.873000", "112040.876000"],
