{
  "AcquisitionMatrixPE": 104,
  "AcquisitionNumber": 1,
  "AcquisitionTime": "18:15:27.402500",
  "BandwidthPerPixelPhaseEncode": 17.17,
  "BaseResolution": 104,
  "BodyPartExamined": "BRAIN",
  "CoilCombinationMethod": "Sum of Squares",
  "ConsistencyInfo": "N4_VE11C_LATEST_20160120",
  "ConversionSoftware": "dcm2niix",
  "ConversionSoftwareVersion": "v1.0.20211006",
  "DerivedVendorReportedEchoSpacing": 0.000560011,
  "DeviceSerialNumber": "167006",
  "DwellTime": 2.1e-06,
  "EchoTime": 0.037,
  "EchoTrainLength": 104,
  "EffectiveEchoSpacing": 0.000560011,
  "FlipAngle": 52,
  "HeudiconvVersion": "0.10.0",
  "ImageComments": "Unaliased MB4/PE3/LB",
  "ImageOrientationPatientDICOM": [0.998722, 0.0328341, 0.0384271, -0.0223154, 0.968595, -0.247641],
  "ImageOrientationText": "Tra>Cor(-14.3)>Sag(2.6)",
  "ImageType": [
    "ORIGINAL",
    "PRIMARY",
    "M",
    "MB",
    "ND",
    "MOSAIC"
],
  "ImagingFrequency": 123.259,
  "InPlanePhaseEncodingDirectionDICOM": "COL",
  "InstitutionAddress": "Chemin Queen-Mary 4565,Montreal,District,CA,H3W 1W5",
  "InstitutionName": "IUGM",
  "InstitutionalDepartmentName": "Department",
  "MRAcquisitionType": "2D",
  "MagneticFieldStrength": 3,
  "Manufacturer": "Siemens",
  "ManufacturersModelName": "Prisma_fit",
  "MatrixCoilMode": "SENSE",
  "Modality": "MR",
  "MultibandAccelerationFactor": 4,
  "PartialFourier": 1,
  "PatientPosition": "HFS",
  "PercentPhaseFOV": 100,
  "PercentSampling": 100,
  "PhaseEncodingDirection": "j",
  "PhaseEncodingSteps": 104,
  "PhaseResolution": 1,
  "PixelBandwidth": 2290,
  "ProcedureStepDescription": "games^mario",
  "ProtocolName": "func_task-mario_run-03",
  "PulseSequenceDetails": "%CustomerSeq%\\cmrr_mbep2d_bold",
  "ReceiveCoilActiveElements": "HC1-7;NC1,2",
  "ReceiveCoilName": "HeadNeck_64",
  "ReconMatrixPE": 104,
  "RepetitionTime": 1.49,
  "SAR": 0.0464626,
  "ScanOptions": "FS",
  "ScanningSequence": "EP",
  "SequenceName": "epfid2d1_104",
  "SequenceVariant": "SK\\SS",
  "SeriesDescription": "func_task-mario_run-03",
  "SeriesNumber": 16,
  "ShimSetting": [640, -7212, -8778, 704, 44, -20, 74, -22],
  "SliceThickness": 2,
  "SliceTiming": [0, 0.7825, 0.0975, 0.88, 0.195, 0.98, 0.2925, 1.0775, 0.39, 1.175, 0.49, 1.2725, 0.5875, 1.37, 0.685, 0, 0.7825, 0.0975, 0.88, 0.195, 0.98, 0.2925, 1.0775, 0.39, 1.175, 0.49, 1.2725, 0.5875, 1.37, 0.685, 0, 0.7825, 0.0975, 0.88, 0.195, 0.98, 0.2925, 1.0775, 0.39, 1.175, 0.49, 1.2725, 0.5875, 1.37, 0.685, 0, 0.7825, 0.0975, 0.88, 0.195, 0.98, 0.2925, 1.0775, 0.39, 1.175, 0.49, 1.2725, 0.5875, 1.37, 0.685],
  "SoftwareVersions": "syngo MR E11",
  "SpacingBetweenSlices": 2,
  "StationName": "MRC35049",
  "TaskName": "mario",
  "TotalReadoutTime": 0.0576811,
  "TxRefAmp": 234.928,
  "WipMemBlock": "93fa9f93-bae3-4761-badc-e56cec5ffb35||Sequence: R016 ve11c/master r/e634e98; Dec 19 2017 11:00:25 by eja",
  "dcmmeta_affine": [
    [-1.997443675994873, -0.04463076591491699, 0.09070271253585815, 108.72249603271484],
    [-0.06566829979419708, 1.9371895790100098, -0.4929342567920685, -71.07124328613281],
    [0.0768541619181633, 0.4952823221683502, 1.9361789226531982, -61.1861572265625],
    [0.0, 0.0, 0.0, 1.0]
],
  "dcmmeta_reorient_transform": [
    [0.0, -1.0, 0.0, 103.0],
    [1.0, 0.0, 0.0, 0.0],
    [0.0, 0.0, 1.0, 0.0],
    [0.0, 0.0, 0.0, 1.0]
],
  "dcmmeta_shape": [104, 104, 60, 445],
  "dcmmeta_slice_dim": 2,
  "dcmmeta_version": 0.6,
  "global": {
    "const": {
      "AcquisitionMatrix": [104, 0, 0, 104],
      "AngioFlag": "N",
      "BitsAllocated": 16,
      "BitsStored": 16,
      "BodyPartExamined": "BRAIN",
      "Columns": 832,
      "EchoNumbers": 1,
      "EchoTime": 37.0,
      "EchoTrainLength": 104,
      "FlipAngle": 52.0,
      "HighBit": 15,
      "ImageOrientationPatient": [0.99872182216448, 0.0328341501585, 0.03842708050092, -0.022315383064, 0.96859479549464, -0.2476411634188],
      "ImagePositionPatient": [-814.94941434301, -857.49955935812, 142.13577335972],
      "ImageType": [
        "ORIGINAL",
        "PRIMARY",
        "M",
        "MB",
        "ND",
        "MOSAIC"
],
      "ImagedNucleus": "1H",
      "ImagingFrequency": 123.258873,
      "InPlanePhaseEncodingDirection": "COL",
      "MRAcquisitionType": "2D",
      "MagneticFieldStrength": 3.0,
      "Manufacturer": "SIEMENS",
      "ManufacturerModelName": "Prisma_fit",
      "Modality": "MR",
      "NumberOfAverages": 1.0,
      "NumberOfPhaseEncodingSteps": 104,
      "PercentPhaseFieldOfView": 100.0,
      "PercentSampling": 100.0,
      "PerformedProcedureStepStartTime": "172738.647000",
      "PhotometricInterpretation": "MONOCHROME2",
      "PixelBandwidth": 2290.0,
      "PixelRepresentation": 0,
      "PixelSpacing": [2.0, 2.0],
      "ProtocolName": "func_task-mario_run-03",
      "RepetitionTime": 1490.0,
      "Rows": 832,
      "SAR": 0.04646259305071,
      "SamplesPerPixel": 1,
      "ScanOptions": "FS",
      "ScanningSequence": "EP",
      "SequenceName": "epfid2d1_104",
      "SequenceVariant": [
        "SK",
        "SS"
],
      "SeriesDescription": "func_task-mario_run-03",
      "SeriesNumber": 16,
      "SeriesTime": "181653.535000",
      "SliceLocation": -36.786238912224,
      "SliceThickness": 2.0,
      "SmallestImagePixelValue": 0,
      "SoftwareVersions": "syngo MR E11",
      "SpacingBetweenSlices": 2.0000000163865,
      "SpecificCharacterSet": "ISO_IR 100",
      "StudyID": "1",
      "StudyTime": "172738.507000",
      "TransmitCoilName": "Body",
      "VariableFlipAngleFlag": "N",
      "WindowCenterWidthExplanation": "Algo1",
      "dBdt": 0.0},
    "slices": {}
  },
  "time": {
    "samples": {
      "AcquisitionNumber": [1, 2, 3, 4, 5, 6, 7, 8, 9, 10, 11, 12, 13, 14, 15, 16, 17, 18, 19, 20, 21, 22, 23, 24, 25, 26, 27, 28, 29, 30, 31, 32, 33, 34, 35, 36, 37, 38, 39, 40, 41, 42, 43, 44, 45, 46, 47, 48, 49, 50, 51, 52, 53, 54, 55, 56, 57, 58, 59, 60, 61, 62, 63, 64, 65, 66, 67, 68, 69, 70, 71, 72, 73, 74, 75, 76, 77, 78, 79, 80, 81, 82, 83, 84, 85, 86, 87, 88, 89, 90, 91, 92, 93, 94, 95, 96, 97, 98, 99, 100, 101, 102, 103, 104, 105, 106, 107, 108, 109, 110, 111, 112, 113, 114, 115, 116, 117, 118, 119, 120, 121, 122, 123, 124, 125, 126, 127, 128, 129, 130, 131, 132, 133, 134, 135, 136, 137, 138, 139, 140, 141, 142, 143, 144, 145, 146, 147, 148, 149, 150, 151, 152, 153, 154, 155, 156, 157, 158, 159, 160, 161, 162, 163, 164, 165, 166, 167, 168, 169, 170, 171, 172, 173, 174, 175, 176, 177, 178, 179, 180, 181, 182, 183, 184, 185, 186, 187, 188, 189, 190, 191, 192, 193, 194, 195, 196, 197, 198, 199, 200, 201, 202, 203, 204, 205, 206, 207, 208, 209, 210, 211, 212, 213, 214, 215, 216, 217, 218, 219, 220, 221, 222, 223, 224, 225, 226, 227, 228, 229, 230, 231, 232, 233, 234, 235, 236, 237, 238, 239, 240, 241, 242, 243, 244, 245, 246, 247, 248, 249, 250, 251, 252, 253, 254, 255, 256, 257, 258, 259, 260, 261, 262, 263, 264, 265, 266, 267, 268, 269, 270, 271, 272, 273, 274, 275, 276, 277, 278, 279, 280, 281, 282, 283, 284, 285, 286, 287, 288, 289, 290, 291, 292, 293, 294, 295, 296, 297, 298, 299, 300, 301, 302, 303, 304, 305, 306, 307, 308, 309, 310, 311, 312, 313, 314, 315, 316, 317, 318, 319, 320, 321, 322, 323, 324, 325, 326, 327, 328, 329, 330, 331, 332, 333, 334, 335, 336, 337, 338, 339, 340, 341, 342, 343, 344, 345, 346, 347, 348, 349, 350, 351, 352, 353, 354, 355, 356, 357, 358, 359, 360, 361, 362, 363, 364, 365, 366, 367, 368, 369, 370, 371, 372, 373, 374, 375, 376, 377, 378, 379, 380, 381, 382, 383, 384, 385, 386, 387, 388, 389, 390, 391, 392, 393, 394, 395, 396, 397, 398, 399, 400, 401, 402, 403, 404, 405, 406, 407, 408, 409, 410, 411, 412, 413, 414, 415, 416, 417, 418, 419, 420, 421, 422, 423, 424, 425, 426, 427, 428, 429, 430, 431, 432, 433, 434, 435, 436, 437, 438, 439, 440, 441, 442, 443, 444, 445],
      "AcquisitionTime": ["181527.402500", "181528.892500", "181530.382500", "181531.872500", "181533.362500", "181534.852500", "181536.342500", "181537.832500", "181539.322500", "181540.812500", "181542.302500", "181543.792500", "181545.282500", "181546.772500", "181548.262500", "181549.752500", "181551.242500", "181552.732500", "181554.222500", "181555.712500", "181557.202500", "181558.692500", "181600.182500", "181601.672500", "181603.162500", "181604.652500", "181606.142500", "181607.632500", "181609.122500", "181610.612500", "181612.102500", "181613.592500", "181615.082500", "181616.572500", "181618.062500", "181619.552500", "181621.042500", "181622.532500", "181624.022500", "181625.512500", "181627.002500", "181628.492500", "181629.982500", "181631.472500", "181632.962500", "181634.452500", "181635.942500", "181637.432500", "181638.922500", "181640.412500", "181641.902500", "181643.392500", "181644.882500", "181646.372500", "181647.862500", "181649.352500", "181650.842500", "181652.332500", "181653.822500", "181655.312500", "181656.802500", "181658.292500", "181659.782500", "181701.272500", "181702.762500", "181704.252500", "181705.742500", "181707.232500", "181708.722500", "181710.212500", "181711.702500", "181713.192500", "181714.682500", "181716.172500", "181717.662500", "181719.152500", "181720.642500", "181722.132500", "181723.622500", "181725.112500", "181726.602500", "181728.092500", "181729.582500", "181731.072500", "181732.562500", "181734.052500", "181735.542500", "181737.032500", "181738.522500", "181740.012500", "181741.502500", "181742.992500", "181744.482500", "181745.972500", "181747.462500", "181748.952500", "181750.442500", "181751.932500", "181753.422500", "181754.912500", "181756.402500", "181757.892500", "181759.382500", "181800.872500", "181802.362500", "181803.852500", "181805.342500", "181806.832500", "181808.322500", "181809.812500", "181811.302500", "181812.792500", "181814.282500", "181815.772500", "181817.262500", "181818.752500", "181820.242500", "181821.732500", "181823.222500", "181824.712500", "181826.202500", "181827.692500", "181829.182500", "181830.672500", "181832.162500", "181833.652500", "181835.142500", "181836.632500", "181838.122500", "181839.612500", "181841.102500", "181842.592500", "181844.082500", "181845.572500", "181847.062500", "181848.552500", "181850.042500", "181851.532500", "181853.022500", "181854.512500", "181856.002500", "181857.492500", "181858.982500", "181900.472500", "181901.962500", "181903.452500", "181904.942500", "181906.432500", "181907.922500", "181909.412500", "181910.902500", "181912.392500", "181913.882500", "181915.372500", "181916.862500", "181918.352500", "181919.842500", "181921.332500", "181922.822500", "181924.312500", "181925.802500", "181927.292500", "181928.782500", "181930.272500", "181931.762500", "181933.252500", "181934.742500", "181936.232500", "181937.722500", "181939.212500", "181940.702500", "181942.192500", "181943.682500", "181945.172500", "181946.662500", "181948.152500", "181949.642500", "181951.132500", "181952.622500", "181954.112500", "181955.602500", "181957.092500", "181958.582500", "182000.072500", "182001.562500", "182003.052500", "182004.542500", "182006.032500", "182007.522500", "182009.012500", "182010.502500", "182011.992500", "182013.482500", "182014.972500", "182016.462500", "182017.952500", "182019.442500", "182020.932500", "182022.422500", "182023.912500", "182025.402500", "182026.892500", "182028.382500", "182029.872500", "182031.362500", "182032.852500", "182034.342500", "182035.832500", "182037.322500", "182038.812500", "182040.302500", "182041.792500", "182043.282500", "182044.772500", "182046.262500", "182047.752500", "182049.242500", "182050.732500", "182052.222500", "182053.712500", "182055.202500", "182056.692500", "182058.182500", "182059.672500", "182101.162500", "182102.652500", "182104.142500", "182105.632500", "182107.122500", "182108.612500", "182110.102500", "182111.592500", "182113.082500", "182114.572500", "182116.062500", "182117.552500", "182119.042500", "182120.532500", "182122.022500", "182123.512500", "182125.002500", "182126.492500", "182127.982500", "182129.472500", "182130.962500", "182132.452500", "182133.942500", "182135.432500", "182136.922500", "182138.412500", "182139.902500", "182141.392500", "182142.882500", "182144.372500", "182145.862500", "182147.352500", "182148.842500", "182150.332500", "182151.822500", "182153.312500", "182154.802500", "182156.292500", "182157.782500", "182159.272500", "182200.762500", "182202.252500", "182203.742500", "182205.232500", "182206.722500", "182208.212500", "182209.702500", "182211.192500", "182212.682500", "182214.172500", "182215.662500", "182217.152500", "182218.642500", "182220.132500", "182221.622500", "182223.112500", "182224.602500", "182226.092500", "182227.582500", "182229.072500", "182230.562500", "182232.052500", "182233.542500", "182235.032500", "182236.522500", "182238.012500", "182239.502500", "182240.992500", "182242.482500", "182243.972500", "182245.462500", "182246.952500", "182248.442500", "182249.932500", "182251.422500", "182252.912500", "182254.402500", "182255.892500", "182257.382500", "182258.872500", "182300.362500", "182301.852500", "182303.342500", "182304.832500", "182306.322500", "182307.812500", "182309.302500", "182310.792500", "182312.282500", "182313.772500", "182315.262500", "182316.752500", "182318.242500", "182319.732500", "182321.222500", "182322.712500", "182324.202500", "182325.692500", "182327.182500", "182328.672500", "182330.162500", "182331.652500", "182333.142500", "182334.632500", "182336.122500", "182337.612500", "182339.102500", "182340.592500", "182342.082500", "182343.572500", "182345.062500", "182346.552500", "182348.042500", "182349.532500", "182351.022500", "182352.512500", "182354.002500", "182355.492500", "182356.982500", "182358.472500", "182359.962500", "182401.452500", "182402.942500", "182404.432500", "182405.922500", "182407.412500", "182408.902500", "182410.392500", "182411.882500", "182413.372500", "182414.862500", "182416.352500", "182417.842500", "182419.332500", "182420.822500", "182422.312500", "182423.802500", "182425.292500", "182426.782500", "182428.272500", "182429.762500", "182431.252500", "182432.742500", "182434.232500", "182435.722500", "182437.212500", "182438.702500", "182440.192500", "182441.682500", "182443.172500", "182444.662500", "182446.152500", "182447.642500", "182449.132500", "182450.622500", "182452.112500", "182453.602500", "182455.092500", "182456.582500", "182458.072500", "182459.562500", "182501.052500", "182502.542500", "182504.032500", "182505.522500", "182507.012500", "182508.502500", "182509.992500", "182511.482500", "182512.972500", "182514.462500", "182515.952500", "182517.442500", "182518.932500", "182520.422500", "182521.912500", "182523.402500", "182524.892500", "182526.382500", "182527.872500", "182529.362500", "182530.852500", "182532.342500", "182533.832500", "182535.322500", "182536.812500", "182538.302500", "182539.792500", "182541.282500", "182542.772500", "182544.262500", "182545.752500", "182547.242500", "182548.732500", "182550.222500", "182551.712500", "182553.202500", "182554.692500", "182556.182500", "182557.672500", "182559.162500", "182600.652500", "182602.142500", "182603.632500", "182605.122500", "182606.612500", "182608.102500", "182609.592500", "182611.082500", "182612.572500", "182614.062500", "182615.552500", "182617.042500", "182618.532500", "182620.022500", "182621.512500", "182623.002500", "182624.492500", "182625.982500", "182627.472500", "182628.962500"],
      "ContentTime": ["181653.538000", "181653.542000", "181653.545000", "181653.549000", "181653.552000", "181653.555000", "181653.558000", "181653.562000", "181653.565000", "181653.568000", "181653.572000", "181653.575000", "181653.578000", "181653.581000", "181653.585000", "181653.588000", "181653.591000", "181653.595000", "181653.598000", "181653.601000", "181653.604000", "181653.610000", "181653.613000", "181653.616000", "181653.619000", "181653.623000", "181653.626000", "181653.629000", "181653.632000", "181713.504000", "181713.508000", "181713.511000", "181713.514000", "181713.518000", "181713.521000", "181713.524000", "181713.531000", "181713.535000", "181713.538000", "181713.541000", "181713.545000", "181713.548000", "181713.551000", "181713.554000", "181713.558000", "181713.561000", "181713.565000", "181713.578000", "181713.586000", "181733.504000", "181733.508000", "181733.511000", "181733.514000", "181733.517000", "181733.521000", "181733.524000", "181733.527000", "181733.530000", "181733.534000", "181733.537000", "181733.540000", "181733.544000", "181733.550000", "181733.554000", "181733.557000", "181733.560000", "181733.564000", "181733.567000", "181733.570000", "181753.503000", "181753.507000", "181753.510000", "181753.513000", "181753.517000", "181753.520000", "181753.523000", "181753.526000", "181753.530000", "181753.533000", "181753.536000", "181753.540000", "181753.543000", "181753.546000", "181753.549000", "181753.553000", "181753.556000", "181753.559000", "181753.563000", "181753.566000", "181753.569000", "181813.503000", "181813.507000", "181813.510000", "181813.513000", "181813.516000", "181813.520000", "181813.523000", "181813.526000", "181813.529000", "181813.533000", "181813.536000", "181813.539000", "181813.542000", "181813.545000", "181813.549000", "181813.552000", "181813.555000", "181813.559000", "181813.562000", "181813.565000", "181853.503000", "181853.507000", "181853.510000", "181853.513000", "181853.517000", "181853.520000", "181853.523000", "181853.526000", "181853.529000", "181853.533000", "181853.536000", "181853.539000", "181853.543000", "181853.546000", "181853.549000", "181853.552000", "181853.555000", "181853.559000", "181853.562000", "181853.565000", "181853.569000", "181853.572000", "181853.575000", "181853.578000", "181853.582000", "181853.585000", "181853.588000", "181933.504000", "181933.508000", "181933.511000", "181933.514000", "181933.517000", "181933.521000", "181933.524000", "181933.527000", "181933.530000", "181933.544000", "181933.547000", "181933.550000", "181933.553000", "181933.557000", "181933.560000", "181933.563000", "181933.566000", "181933.570000", "181933.573000", "181933.576000", "181933.580000", "181933.583000", "181933.586000", "181933.589000", "181933.592000", "181933.596000", "181933.599000", "182013.503000", "182013.507000", "182013.510000", "182013.513000", "182013.516000", "182013.520000", "182013.523000", "182013.526000", "182013.529000", "182013.533000", "182013.536000", "182013.539000", "182013.542000", "182013.546000", "182013.549000", "182013.552000", "182013.555000", "182013.559000", "182013.562000", "182013.565000", "182013.569000", "182013.572000", "182013.575000", "182013.578000", "182013.582000", "182013.585000", "182013.588000", "182053.503000", "182053.507000", "182053.510000", "182053.513000", "182053.516000", "182053.520000", "182053.523000", "182053.526000", "182053.530000", "182053.533000", "182053.536000", "182053.539000", "182053.543000", "182053.546000", "182053.549000", "182053.552000", "182053.556000", "182053.559000", "182053.562000", "182053.566000", "182053.569000", "182053.572000", "182053.575000", "182053.578000", "182053.582000", "182053.585000", "182053.588000", "182133.504000", "182133.508000", "182133.512000", "182133.515000", "182133.518000", "182133.521000", "182133.525000", "182133.528000", "182133.531000", "182133.535000", "182133.538000", "182133.542000", "182133.545000", "182133.548000", "182133.551000", "182133.555000", "182133.558000", "182133.562000", "182133.565000", "182133.568000", "182133.572000", "182133.575000", "182133.578000", "182133.581000", "182133.585000", "182133.588000", "182133.591000", "182213.504000", "182213.517000", "182213.521000", "182213.524000", "182213.527000", "182213.530000", "182213.534000", "182213.537000", "182213.540000", "182213.544000", "182213.547000", "182213.550000", "182213.554000", "182213.557000", "182213.560000", "182213.563000", "182213.567000", "182213.570000", "182213.573000", "182213.582000", "182213.585000", "182213.588000", "182213.591000", "182213.595000", "182213.598000", "182213.601000", "182253.503000", "182253.507000", "182253.510000", "182253.513000", "182253.517000", "182253.520000", "182253.523000", "182253.527000", "182253.530000", "182253.533000", "182253.536000", "182253.540000", "182253.543000", "182253.546000", "182253.549000", "182253.553000", "182253.556000", "182253.559000", "182253.563000", "182253.566000", "182253.569000", "182253.573000", "182253.576000", "182253.579000", "182253.583000", "182253.586000", "182253.589000", "182333.503000", "182333.507000", "182333.510000", "182333.514000", "182333.517000", "182333.520000", "182333.524000", "182333.527000", "182333.530000", "182333.534000", "182333.537000", "182333.540000", "182333.544000", "182333.547000", "182333.550000", "182333.553000", "182333.557000", "182333.560000", "182333.563000", "182333.567000", "182333.570000", "182333.573000", "182333.577000", "182333.580000", "182333.583000", "182333.587000", "182333.590000", "182413.504000", "182413.508000", "182413.511000", "182413.515000", "182413.518000", "182413.521000", "182413.525000", "182413.528000", "182413.531000", "182413.535000", "182413.538000", "182413.541000", "182413.545000", "182413.548000", "182413.551000", "182413.555000", "182413.570000", "182413.573000", "182413.577000", "182413.580000", "182413.583000", "182413.587000", "182413.590000", "182413.593000", "182413.596000", "182413.600000", "182413.603000", "182453.503000", "182453.507000", "182453.510000", "182453.514000", "182453.517000", "182453.520000", "182453.524000", "182453.527000", "182453.530000", "182453.534000", "182453.537000", "182453.540000", "182453.544000", "182453.547000", "182453.550000", "182453.554000", "182453.557000", "182453.560000", "182453.564000", "182453.567000", "182453.571000", "182453.574000", "182453.577000", "182453.581000", "182453.585000", "182453.589000", "182453.592000", "182533.503000", "182533.507000", "182533.510000", "182533.513000", "182533.517000", "182533.520000", "182533.523000", "182533.527000", "182533.530000", "182533.533000", "182533.537000", "182533.540000", "182533.543000", "182533.546000", "182533.549000", "182533.553000", "182533.556000", "182533.559000", "182533.563000", "182533.566000", "182533.569000", "182533.572000", "182533.576000", "182533.579000", "182533.582000", "182533.586000", "182533.589000", "182613.504000", "182613.508000", "182613.512000", "182613.516000", "182613.520000", "182613.524000", "182613.527000", "182613.531000", "182613.535000", "182613.538000", "182613.542000", "182613.545000", "182613.548000", "182613.552000", "182613.555000", "182613.558000", "182613.561000", "182613.565000", "182613.568000", "182613.571000", "182613.575000", "182613.578000", "182613.581000", "182613.584000", "182613.588000", "182613.591000", "182631.910000", "182631.924000", "182631.928000", "182631.931000", "182631.934000", "182631.937000", "182631.941000", "182631.944000", "182631.947000", "182631.950000", "182631.954000", "182631.957000", "182631.960000"],
