{
  "AcquisitionMatrixPE": 104,
  "AcquisitionNumber": 1,
  "AcquisitionTime": "11:34:49.025000",
  "BandwidthPerPixelPhaseEncode": 17.17,
  "BaseResolution": 104,
  "BodyPartExamined": "BRAIN",
  "CoilString": "HC1-7;NC1_2",
  "ConsistencyInfo": "N4_VE11C_LATEST_20160120",
  "ConversionSoftware": "dcm2niix",
  "ConversionSoftwareVersion": "v1.0.20190902",
  "DerivedVendorReportedEchoSpacing": 0.000560011,
  "DeviceSerialNumber": "167006",
  "DwellTime": 2.1e-06,
  "EchoTime": 0.037,
  "EchoTrainLength": 104,
  "EffectiveEchoSpacing": 0.000560011,
  "FlipAngle": 52,
  "HeudiconvVersion": "0.10.0",
  "ImageComments": "Unaliased_MB4_PE3_LB",
  "ImageOrientationPatientDICOM": [0.998587, 0.0471767, 0.0244579, -0.033301, 0.914233, -0.403818],
  "ImageType": [
    "ORIGINAL",
    "PRIMARY",
    "P",
    "MB",
    "ND",
    "MOSAIC"
],
  "ImagingFrequency": 123.259,
  "InPlanePhaseEncodingDirectionDICOM": "COL",
  "InstitutionAddress": "Chemin_Queen-Mary_4565_Montreal_District_CA_H3W_1W5",
  "InstitutionName": "IUGM",
  "InstitutionalDepartmentName": "Department",
  "MRAcquisitionType": "2D",
  "MagneticFieldStrength": 3,
  "Manufacturer": "Siemens",
  "ManufacturersModelName": "Prisma_fit",
  "Modality": "MR",
  "MultibandAccelerationFactor": 4,
  "PartialFourier": 1,
  "PatientPosition": "HFS",
  "PercentPhaseFOV": 100,
  "PhaseEncodingDirection": "j",
  "PhaseEncodingSteps": 104,
  "PhaseResolution": 1,
  "PixelBandwidth": 2290,
  "ProcedureStepDescription": "games_mario",
  "ProtocolName": "func_task-mario_run-03",
  "PulseSequenceDetails": "%CustomerSeq%_cmrr_mbep2d_bold",
  "ReceiveCoilActiveElements": "HC1-7;NC1,2",
  "ReceiveCoilName": "HeadNeck_64",
  "ReconMatrixPE": 104,
  "RepetitionTime": 1.49,
  "SAR": 0.0546752,
  "ScanOptions": "FS",
  "ScanningSequence": "EP",
  "SequenceName": "epfid2d1_104",
  "SequenceVariant": "SK_SS",
  "SeriesDescription": "func_task-mario_run-03",
  "SeriesNumber": 20,
  "ShimSetting": [627, -7143, -8863, 555, 69, 149, -42, -12],
  "SliceThickness": 2,
  "SliceTiming": [0, 0.785, 0.0975, 0.8825, 0.195, 0.98, 0.295, 1.0775, 0.3925, 1.175, 0.49, 1.2725, 0.5875, 1.3725, 0.685, 0, 0.785, 0.0975, 0.8825, 0.195, 0.98, 0.295, 1.0775, 0.3925, 1.175, 0.49, 1.2725, 0.5875, 1.3725, 0.685, 0, 0.785, 0.0975, 0.8825, 0.195, 0.98, 0.295, 1.0775, 0.3925, 1.175, 0.49, 1.2725, 0.5875, 1.3725, 0.685, 0, 0.785, 0.0975, 0.8825, 0.195, 0.98, 0.295, 1.0775, 0.3925, 1.175, 0.49, 1.2725, 0.5875, 1.3725, 0.685],
  "SoftwareVersions": "syngo_MR_E11",
  "SpacingBetweenSlices": 2,
  "StationName": "MRC35049",
  "TaskName": "mario",
  "TotalReadoutTime": 0.0576811,
  "TxRefAmp": 287.121,
  "WipMemBlock": "878a349c-4fc8-47c8-b5ef-e8b4fe04a72a||Sequence: R016 ve11c/master r/e634e98; Dec 19 2017 11:00:25 by eja",
  "dcmmeta_affine": [
    [-1.9971741437911987, -0.06660199910402298, 0.08282200992107391, 108.10338592529297],
    [-0.09435337036848068, 1.8284660577774048, -0.8048660755157471, -52.50009536743164],
    [0.04891576990485191, 0.8076361417770386, 1.8290245532989502, -73.37471008300781],
    [0.0, 0.0, 0.0, 1.0]
],
  "dcmmeta_reorient_transform": [
    [0.0, -1.0, 0.0, 103.0],
    [1.0, 0.0, 0.0, 0.0],
    [0.0, 0.0, 1.0, 0.0],
    [0.0, 0.0, 0.0, 1.0]
],
  "dcmmeta_shape": [104, 104, 60, 425],
  "dcmmeta_slice_dim": 2,
  "dcmmeta_version": 0.6,
  "global": {
    "const": {
      "AcquisitionMatrix": [104, 0, 0, 104],
      "AngioFlag": "N",
      "BitsAllocated": 16,
      "BitsStored": 16,
      "BodyPartExamined": "BRAIN",
      "Columns": 832,
      "EchoNumbers": 1,
      "EchoTime": 37.0,
      "EchoTrainLength": 104,
      "FlipAngle": 52.0,
      "HighBit": 15,
      "ImageOrientationPatient": [0.99858708789422, 0.04717668629289, 0.02445788546399, -0.0333009996986, 0.91423301882763, -0.4038180663422],
      "ImagePositionPatient": [-803.97164853057, -835.73817342736, 285.98602505918],
      "ImageType": [
        "ORIGINAL",
        "PRIMARY",
        "P",
        "MB",
        "ND",
        "MOSAIC"
],
      "ImagedNucleus": "1H",
      "ImagingFrequency": 123.258968,
      "InPlanePhaseEncodingDirection": "COL",
      "LargestImagePixelValue": 4095,
      "MRAcquisitionType": "2D",
      "MagneticFieldStrength": 3.0,
      "Manufacturer": "SIEMENS",
      "ManufacturerModelName": "Prisma_fit",
      "Modality": "MR",
      "NumberOfAverages": 1.0,
      "NumberOfPhaseEncodingSteps": 104,
      "PercentPhaseFieldOfView": 100.0,
      "PercentSampling": 100.0,
      "PerformedProcedureStepStartTime": "104035.410000",
      "PhotometricInterpretation": "MONOCHROME2",
      "PixelBandwidth": 2290.0,
      "PixelRepresentation": 0,
      "PixelSpacing": [2.0, 2.0],
      "ProtocolName": "func_task-mario_run-03",
      "RepetitionTime": 1490.0,
      "RescaleIntercept": -4096.0,
      "RescaleSlope": 2.0,
      "RescaleType": "US",
      "Rows": 832,
      "SAR": 0.05467518000057,
      "SamplesPerPixel": 1,
      "ScanOptions": "FS",
      "ScanningSequence": "EP",
      "SequenceName": "epfid2d1_104",
      "SequenceVariant": [
        "SK",
        "SS"
],
      "SeriesDescription": "func_task-mario_run-03",
      "SeriesNumber": 20,
      "SeriesTime": "113621.215000",
      "SliceLocation": -41.497632871322,
      "SliceThickness": 2.0,
      "SmallestImagePixelValue": 0,
      "SoftwareVersions": "syngo MR E11",
      "SpacingBetweenSlices": 1.9999999528038,
      "SpecificCharacterSet": "ISO_IR 100",
      "StudyID": "1",
      "StudyTime": "104035.356000",
      "TransmitCoilName": "Body",
      "VariableFlipAngleFlag": "N",
      "WindowCenterWidthExplanation": "Algo1",
      "dBdt": 0.0},
    "slices": {}
  },
  "time": {
    "samples": {
      "AcquisitionNumber": [1, 2, 3, 4, 5, 6, 7, 8, 9, 10, 11, 12, 13, 14, 15, 16, 17, 18, 19, 20, 21, 22, 23, 24, 25, 26, 27, 28, 29, 30, 31, 32, 33, 34, 35, 36, 37, 38, 39, 40, 41, 42, 43, 44, 45, 46, 47, 48, 49, 50, 51, 52, 53, 54, 55, 56, 57, 58, 59, 60, 61, 62, 63, 64, 65, 66, 67, 68, 69, 70, 71, 72, 73, 74, 75, 76, 77, 78, 79, 80, 81, 82, 83, 84, 85, 86, 87, 88, 89, 90, 91, 92, 93, 94, 95, 96, 97, 98, 99, 100, 101, 102, 103, 104, 105, 106, 107, 108, 109, 110, 111, 112, 113, 114, 115, 116, 117, 118, 119, 120, 121, 122, 123, 124, 125, 126, 127, 128, 129, 130, 131, 132, 133, 134, 135, 136, 137, 138, 139, 140, 141, 142, 143, 144, 145, 146, 147, 148, 149, 150, 151, 152, 153, 154, 155, 156, 157, 158, 159, 160, 161, 162, 163, 164, 165, 166, 167, 168, 169, 170, 171, 172, 173, 174, 175, 176, 177, 178, 179, 180, 181, 182, 183, 184, 185, 186, 187, 188, 189, 190, 191, 192, 193, 194, 195, 196, 197, 198, 199, 200, 201, 202, 203, 204, 205, 206, 207, 208, 209, 210, 211, 212, 213, 214, 215, 216, 217, 218, 219, 220, 221, 222, 223, 224, 225, 226, 227, 228, 229, 230, 231, 232, 233, 234, 235, 236, 237, 238, 239, 240, 241, 242, 243, 244, 245, 246, 247, 248, 249, 250, 251, 252, 253, 254, 255, 256, 257, 258, 259, 260, 261, 262, 263, 264, 265, 266, 267, 268, 269, 270, 271, 272, 273, 274, 275, 276, 277, 278, 279, 280, 281, 282, 283, 284, 285, 286, 287, 288, 289, 290, 291, 292, 293, 294, 295, 296, 297, 298, 299, 300, 301, 302, 303, 304, 305, 306, 307, 308, 309, 310, 311, 312, 313, 314, 315, 316, 317, 318, 319, 320, 321, 322, 323, 324, 325, 326, 327, 328, 329, 330, 331, 332, 333, 334, 335, 336, 337, 338, 339, 340, 341, 342, 343, 344, 345, 346, 347, 348, 349, 350, 351, 352, 353, 354, 355, 356, 357, 358, 359, 360, 361, 362, 363, 364, 365, 366, 367, 368, 369, 370, 371, 372, 373, 374, 375, 376, 377, 378, 379, 380, 381, 382, 383, 384, 385, 386, 387, 388, 389, 390, 391, 392, 393, 394, 395, 396, 397, 398, 399, 400, 401, 402, 403, 404, 405, 406, 407, 408, 409, 410, 411, 412, 413, 414, 415, 416, 417, 418, 419, 420, 421, 422, 423, 424, 425],
      "AcquisitionTime": ["113449.025000", "113450.515000", "113452.005000", "113453.495000", "113454.985000", "113456.475000", "113457.965000", "113459.455000", "113500.945000", "113502.435000", "113503.925000", "113505.415000", "113506.905000", "113508.395000", "113509.885000", "113511.375000", "113512.865000", "113514.355000", "113515.845000", "113517.335000", "113518.825000", "113520.315000", "113521.805000", "113523.295000", "113524.785000", "113526.275000", "113527.765000", "113529.255000", "113530.745000", "113532.235000", "113533.725000", "113535.215000", "113536.705000", "113538.195000", "113539.685000", "113541.175000", "113542.665000", "113544.155000", "113545.645000", "113547.135000", "113548.625000", "113550.115000", "113551.605000", "113553.095000", "113554.585000", "113556.075000", "113557.565000", "113559.055000", "113600.545000", "113602.035000", "113603.525000", "113605.015000", "113606.505000", "113607.995000", "113609.485000", "113610.975000", "113612.465000", "113613.955000", "113615.445000", "113616.935000", "113618.425000", "113619.915000", "113621.405000", "113622.895000", "113624.385000", "113625.875000", "113627.365000", "113628.855000", "113630.345000", "113631.835000", "113633.325000", "113634.815000", "113636.305000", "113637.795000", "113639.285000", "113640.775000", "113642.265000", "113643.755000", "113645.245000", "113646.735000", "113648.225000", "113649.715000", "113651.205000", "113652.695000", "113654.185000", "113655.675000", "113657.165000", "113658.655000", "113700.145000", "113701.635000", "113703.125000", "113704.615000", "113706.105000", "113707.595000", "113709.085000", "113710.575000", "113712.065000", "113713.555000", "113715.045000", "113716.535000", "113718.025000", "113719.515000", "113721.005000", "113722.495000", "113723.985000", "113725.475000", "113726.965000", "113728.455000", "113729.945000", "113731.435000", "113732.925000", "113734.415000", "113735.905000", "113737.395000", "113738.885000", "113740.375000", "113741.865000", "113743.355000", "113744.845000", "113746.335000", "113747.825000", "113749.315000", "113750.805000", "113752.295000", "113753.785000", "113755.275000", "113756.765000", "113758.255000", "113759.745000", "113801.235000", "113802.725000", "113804.215000", "113805.705000", "113807.195000", "113808.685000", "113810.175000", "113811.665000", "113813.155000", "113814.645000", "113816.135000", "113817.625000", "113819.115000", "113820.605000", "113822.095000", "113823.585000", "113825.075000", "113826.565000", "113828.055000", "113829.545000", "113831.035000", "113832.525000", "113834.015000", "113835.505000", "113836.995000", "113838.485000", "113839.975000", "113841.465000", "113842.955000", "113844.445000", "113845.935000", "113847.425000", "113848.915000", "113850.405000", "113851.895000", "113853.385000", "113854.875000", "113856.365000", "113857.855000", "113859.345000", "113900.835000", "113902.325000", "113903.815000", "113905.305000", "113906.795000", "113908.285000", "113909.775000", "113911.265000", "113912.755000", "113914.245000", "113915.735000", "113917.225000", "113918.715000", "113920.205000", "113921.695000", "113923.185000", "113924.675000", "113926.165000", "113927.655000", "113929.145000", "113930.635000", "113932.125000", "113933.615000", "113935.105000", "113936.595000", "113938.085000", "113939.575000", "113941.065000", "113942.555000", "113944.045000", "113945.535000", "113947.025000", "113948.515000", "113950.005000", "113951.495000", "113952.985000", "113954.475000", "113955.965000", "113957.455000", "113958.945000", "114000.435000", "114001.925000", "114003.415000", "114004.905000", "114006.395000", "114007.885000", "114009.375000", "114010.865000", "114012.355000", "114013.845000", "114015.335000", "114016.825000", "114018.315000", "114019.805000", "114021.295000", "114022.785000", "114024.275000", "114025.765000", "114027.255000", "114028.745000", "114030.235000", "114031.725000", "114033.215000", "114034.705000", "114036.195000", "114037.685000", "114039.175000", "114040.665000", "114042.155000", "114043.645000", "114045.135000", "114046.625000", "114048.115000", "114049.605000", "114051.095000", "114052.585000", "114054.075000", "114055.565000", "114057.055000", "114058.545000", "114100.035000", "114101.525000", "114103.015000", "114104.505000", "114105.995000", "114107.485000", "114108.975000", "114110.465000", "114111.955000", "114113.445000", "114114.935000", "114116.425000", "114117.915000", "114119.405000", "114120.895000", "114122.385000", "114123.875000", "114125.365000", "114126.855000", "114128.345000", "114129.835000", "114131.325000", "114132.815000", "114134.305000", "114135.795000", "114137.285000", "114138.775000", "114140.265000", "114141.755000", "114143.245000", "114144.735000", "114146.225000", "114147.715000", "114149.205000", "114150.695000", "114152.185000", "114153.675000", "114155.165000", "114156.655000", "114158.145000", "114159.635000", "114201.125000", "114202.615000", "114204.105000", "114205.595000", "114207.085000", "114208.575000", "114210.065000", "114211.555000", "114213.045000", "114214.535000", "114216.025000", "114217.515000", "114219.005000", "114220.495000", "114221.985000", "114223.475000", "114224.965000", "114226.455000", "114227.945000", "114229.435000", "114230.925000", "114232.415000", "114233.905000", "114235.395000", "114236.885000", "114238.375000", "114239.865000", "114241.355000", "114242.845000", "114244.335000", "114245.825000", "114247.315000", "114248.805000", "114250.295000", "114251.785000", "114253.275000", "114254.765000", "114256.255000", "114257.745000", "114259.235000", "114300.725000", "114302.215000", "114303.705000", "114305.195000", "114306.685000", "114308.175000", "114309.665000", "114311.155000", "114312.645000", "114314.135000", "114315.625000", "114317.115000", "114318.605000", "114320.095000", "114321.585000", "114323.075000", "114324.565000", "114326.055000", "114327.545000", "114329.035000", "114330.525000", "114332.015000", "114333.505000", "114334.995000", "114336.485000", "114337.975000", "114339.465000", "114340.955000", "114342.445000", "114343.935000", "114345.425000", "114346.915000", "114348.405000", "114349.895000", "114351.385000", "114352.875000", "114354.365000", "114355.855000", "114357.345000", "114358.835000", "114400.325000", "114401.815000", "114403.305000", "114404.795000", "114406.285000", "114407.775000", "114409.265000", "114410.755000", "114412.245000", "114413.735000", "114415.225000", "114416.715000", "114418.205000", "114419.695000", "114421.185000", "114422.675000", "114424.165000", "114425.655000", "114427.145000", "114428.635000", "114430.125000", "114431.615000", "114433.105000", "114434.595000", "114436.085000", "114437.575000", "114439.065000", "114440.555000", "114442.045000", "114443.535000", "114445.025000", "114446.515000", "114448.005000", "114449.495000", "114450.985000", "114452.475000", "114453.965000", "114455.455000", "114456.945000", "114458.435000", "114459.925000", "114501.415000", "114502.905000", "114504.395000", "114505.885000", "114507.375000", "114508.865000", "114510.355000", "114511.845000", "114513.335000", "114514.825000", "114516.315000", "114517.805000", "114519.295000", "114520.785000"],
      "ContentTime": ["113621.217000", "113621.220000", "113621.222000", "113621.225000", "113621.227000", "113621.230000", "113621.233000", "113621.235000", "113621.238000", "113621.240000", "113621.243000", "113621.245000", "113621.248000", "113621.250000", "113621.253000", "113621.255000", "113621.258000", "113621.260000", "113621.263000", "113621.265000", "113621.268000", "113621.270000", "113621.273000", "113621.275000", "113621.278000", "113621.280000", "113621.283000", "113621.285000", "113621.288000", "113621.290000", "113621.293000", "113621.295000", "113621.298000", "113621.300000", "113621.303000", "113621.305000", "113621.308000", "113621.311000", "113641.082000", "113641.085000", "113641.088000", "113641.090000", "113641.093000", "113641.095000", "113641.098000", "113641.100000", "113641.103000", "113641.105000", "113641.108000", "113641.110000", "113641.113000", "113641.115000", "113641.118000", "113641.120000", "113641.123000", "113641.125000", "113641.128000", "113641.130000", "113701.087000", "113701.090000", "113701.093000", "113701.096000", "113701.098000", "113701.101000", "113701.103000", "113701.106000", "113701.108000", "113701.111000", "113701.113000", "113701.116000", "113701.118000", "113701.121000", "113701.123000", "113701.126000", "113701.128000", "113701.131000", "113701.134000", "113701.136000", "113721.080000", "113721.083000", "113721.086000", "113721.088000", "113721.091000", "113721.093000", "113721.096000", "113721.098000", "113721.101000", "113721.103000", "113721.106000", "113721.108000", "113721.111000", "113721.113000", "113721.116000", "113721.118000", "113721.121000", "113721.123000", "113721.126000", "113721.128000", "113801.118000", "113801.121000", "113801.123000", "113801.126000", "113801.128000", "113801.131000", "113801.133000", "113801.136000", "113801.138000", "113801.141000", "113801.143000", "113801.146000", "113801.148000", "113801.151000", "113801.153000", "113801.156000", "113801.159000", "113801.161000", "113801.164000", "113801.166000", "113801.169000", "113801.171000", "113801.174000", "113801.176000", "113801.179000", "113801.181000", "113801.184000", "113801.186000", "113801.189000", "113801.191000", "113841.125000", "113841.128000", "113841.131000", "113841.133000", "113841.136000", "113841.138000", "113841.141000", "113841.143000", "113841.146000", "113841.148000", "113841.151000", "113841.153000", "113841.156000", "113841.164000", "113841.166000", "113841.169000", "113841.171000", "113841.174000", "113841.176000", "113841.179000", "113841.181000", "113841.184000", "113841.186000", "113841.189000", "113841.191000", "113841.194000", "113921.549000", "113921.552000", "113921.555000", "113921.557000", "113921.560000", "113921.562000", "113921.565000", "113921.567000", "113921.570000", "113921.572000", "113921.575000", "113921.578000", "113921.580000", "113921.583000", "113921.585000", "113921.588000", "113921.590000", "113921.593000", "113921.595000", "113921.598000", "113921.600000", "113921.603000", "113921.605000", "113921.608000", "113921.610000", "113921.613000", "113921.615000", "114001.117000", "114001.120000", "114001.123000", "114001.125000", "114001.128000", "114001.131000", "114001.133000", "114001.136000", "114001.138000", "114001.141000", "114001.143000", "114001.146000", "114001.148000", "114001.151000", "114001.153000", "114001.156000", "114001.158000", "114001.168000", "114001.171000", "114001.173000", "114001.176000", "114001.178000", "114001.181000", "114001.183000", "114001.186000", "114001.188000", "114001.191000", "114041.115000", "114041.118000", "114041.120000", "114041.123000", "114041.126000", "114041.128000", "114041.131000", "114041.133000", "114041.136000", "114041.138000", "114041.141000", "114041.143000", "114041.146000", "114041.148000", "114041.151000", "114041.153000", "114041.156000", "114041.158000", "114041.173000", "114041.176000", "114041.179000", "114041.181000", "114041.184000", "114041.186000", "114041.189000", "114041.191000", "114041.194000", "114121.117000", "114121.120000", "114121.123000", "114121.125000", "114121.128000", "114121.141000", "114121.143000", "114121.146000", "114121.149000", "114121.151000", "114121.154000", "114121.156000", "114121.159000", "114121.161000", "114121.164000", "114121.166000", "114121.169000", "114121.171000", "114121.174000", "114121.176000", "114121.179000", "114121.182000", "114121.184000", "114121.187000", "114121.189000", "114121.192000", "114121.194000", "114201.106000", "114201.109000", "114201.112000", "114201.114000", "114201.117000", "114201.119000", "114201.122000", "114201.124000", "114201.127000", "114201.129000", "114201.132000", "114201.134000", "114201.137000", "114201.139000", "114201.142000", "114201.145000", "114201.147000", "114201.150000", "114201.152000", "114201.155000", "114201.157000", "114201.160000", "114201.162000", "114201.165000", "114201.167000", "114201.170000", "114201.172000", "114241.127000", "114241.129000", "114241.132000", "114241.134000", "114241.137000", "114241.139000", "114241.142000", "114241.145000", "114241.147000", "114241.150000", "114241.152000", "114241.155000", "114241.157000", "114241.160000", "114241.162000", "114241.165000", "114241.167000", "114241.170000", "114241.172000", "114241.175000", "114241.177000", "114241.180000", "114241.183000", "114241.185000", "114241.188000", "114241.190000", "114321.123000", "114321.126000", "114321.128000", "114321.131000", "114321.133000", "114321.136000", "114321.138000", "114321.141000", "114321.148000", "114321.151000", "114321.153000", "114321.156000", "114321.159000", "114321.162000", "114321.164000", "114321.167000", "114321.169000", "114321.172000", "114321.175000", "114321.178000", "114321.182000", "114321.186000", "114321.189000", "114321.192000", "114321.195000", "114321.198000", "114321.200000", "114401.131000", "114401.134000", "114401.136000", "114401.139000", "114401.141000", "114401.144000", "114401.146000", "114401.149000", "114401.151000", "114401.154000", "114401.156000", "114401.159000", "114401.161000", "114401.164000", "114401.166000", "114401.169000", "114401.172000", "114401.174000", "114401.177000", "114401.179000", "114401.182000", "114401.184000", "114401.187000", "114401.189000", "114401.192000", "114401.194000", "114401.197000", "114441.111000", "114441.113000", "114441.116000", "114441.118000", "114441.121000", "114441.123000", "114441.126000", "114441.129000", "114441.131000", "114441.134000", "114441.136000", "114441.139000", "114441.141000", "114441.144000", "114441.146000", "114441.149000", "114441.151000", "114441.154000", "114441.156000", "114441.159000", "114441.161000", "114441.164000", "114441.166000", "114441.169000", "114441.172000", "114441.174000", "114441.177000", "114521.114000", "114521.117000", "114521.120000", "114521.122000", "114521.125000", "114521.127000", "114521.130000", "114521.132000", "114521.135000", "114521.137000", "114521.140000", "114521.142000", "114521.145000", "114521.147000", "114521.150000", "114521.152000", "114521.155000", "114521.158000", "114521.160000", "114521.163000", "114521.165000", "114521.168000", "114521.170000", "114521.173000", "114521.175000", "114521.178000", "114521.180000", "114523.447000", "114523.449000"],
      "InstanceCreationTime": ["113621.217000", "113621.220000", "113621.222000", "113621.225000", "113621.227000", "113621.230000", "113621.233000", "113621.235000", "113621.238000", "113621.240000", "113621.243000", "113621.245000", "113621.248000", "113621.250000", "113621.253000", "113621.255000", "113621.258000", "113621.260000", "113621.263000", "113621.265000", "113621.268000", "113621.270000", "113621.273000", "113621.275000", "113621.278000", "113621.280000", "113621.283000", "113621.285000", "113621.288000", "113621.290000", "113621.293000", "113621.295000", "113621.298000", "113621.300000", "113621.303000", "113621.305000", "113621.308000", "113621.311000", "113641.082000", "113641.085000", "113641.088000", "113641.090000", "113641.093000", "113641.095000", "113641.098000", "113641.100000", "113641.103000", "113641.105000", "113641.108000", "113641.110000", "113641.113000", "113641.115000", "113641.118000", "113641.120000", "113641.123000", "113641.125000", "113641.128000", "113641.130000", "113701.087000", "113701.090000", "113701.093000", "113701.096000", "113701.098000", "113701.101000", "113701.103000", "113701.106000", "113701.108000", "113701.111000", "113701.113000", "113701.116000", "113701.118000", "113701.121000", "113701.123000", "113701.126000", "113701.128000", "113701.131000", "113701.134000", "113701.136000", "113721.080000", "113721.083000", "113721.086000", "113721.088000", "113721.091000", "113721.093000", "113721.096000", "113721.098000", "113721.101000", "113721.103000", "113721.106000", "113721.108000", "113721.111000", "113721.113000", "113721.116000", "113721.118000", "113721.121000", "113721.123000", "113721.126000", "113721.128000", "113801.118000", "113801.121000", "113801.123000", "113801.126000", "113801.128000", "113801.131000", "113801.133000", "113801.136000", "113801.138000", "113801.141000", "113801.143000", "113801.146000", "113801.148000", "113801.151000", "113801.153000", "113801.156000", "113801.159000", "113801.161000", "113801.164000", "113801.166000", "113801.169000", "113801.171000", "113801.174000", "113801.176000", "113801.179000", "113801.181000", "113801.184000", "113801.186000", "113801.189000", "113801.191000", "113841.125000", "113841.128000", "113841.131000", "113841.133000", "113841.136000", "113841.138000", "113841.141000", "113841.143000", "113841.146000", "113841.148000", "113841.151000", "113841.153000", "113841.156000", "113841.164000", "113841.166000", "113841.169000", "113841.171000", "113841.174000", "113841.176000", "113841.179000", "113841.181000", "113841.184000", "113841.186000", "113841.189000", "113841.191000", "113841.194000", "113921.549000", "113921.552000", "113921.555000", "113921.557000", "113921.560000", "113921.562000", "113921.565000", "113921.567000", "113921.570000", "113921.572000", "113921.575000", "113921.578000", "113921.580000", "113921.583000", "113921.585000", "113921.588000", "113921.590000", "113921.593000", "113921.595000", "113921.598000", "113921.600000", "113921.603000", "113921.605000", "113921.608000", "113921.610000", "113921.613000", "113921.615000", "114001.117000", "114001.120000", "114001.123000", "114001.125000", "114001.128000", "114001.131000", "114001.133000", "114001.136000", "114001.138000", "114001.141000", "114001.143000", "114001.146000", "114001.148000", "114001.151000", "114001.153000", "114001.156000", "114001.158000", "114001.168000", "114001.171000", "114001.173000", "114001.176000", "114001.178000", "114001.181000", "114001.183000", "114001.186000", "114001.188000", "114001.191000", "114041.115000", "114041.118000", "114041.120000", "114041.123000", "114041.126000", "114041.128000", "114041.131000", "114041.133000", "114041.136000", "114041.138000", "114041.141000", "114041.143000", "114041.146000", "114041.148000", "114041.151000", "114041.153000", "114041.156000", "114041.158000", "114041.173000", "114041.176000", "114041.179000", "114041.181000", "114041.184000", "114041.186000", "114041.189000", "114041.191000", "114041.194000", "114121.117000", "114121.120000", "114121.123000", "114121.125000", "114121.128000", "114121.141000", "114121.143000", "114121.146000", "114121.149000", "114121.151000", "114121.154000", "114121.156000", "114121.159000", "114121.161000", "114121.164000", "114121.166000", "114121.169000", "114121.171000", "114121.174000", "114121.176000", "114121.179000", "114121.182000", "114121.184000", "114121.187000", "114121.189000", "114121.192000", "114121.194000", "114201.106000", "114201.109000", "114201.112000", "114201.114000", "114201.117000", "114201.119000", "114201.122000", "114201.124000", "114201.127000", "114201.129000", "114201.132000", "114201.134000", "114201.137000", "114201.139000", "114201.142000", "114201.145000", "114201.147000", "114201.150000", "114201.152000", "114201.155000", "114201.157000", "114201.160000", "114201.162000", "114201.165000", "114201.167000", "114201.170000", "114201.172000", "114241.127000", "114241.129000", "114241.132000", "114241.134000", "114241.137000", "114241.139000", "114241.142000", "114241.145000", "114241.147000", "114241.150000", "114241.152000", "114241.155000", "114241.157000", "114241.160000", "114241.162000", "114241.165000", "114241.167000", "114241.170000", "114241.172000", "114241.175000", "114241.177000", "114241.180000", "114241.183000", "114241.185000", "114241.188000", "114241.190000", "114321.123000", "114321.126000", "114321.128000", "114321.131000", "114321.133000", "114321.136000", "114321.138000", "114321.141000", "114321.148000", "114321.151000", "114321.153000", "114321.156000", "114321.159000", "114321.162000", "114321.164000", "114321.167000", "114321.169000", "114321.172000", "114321.175000", "114321.178000", "114321.182000", "114321.186000", "114321.189000", "114321.192000", "114321.195000", "114321.198000", "114321.200000", "114401.131000", "114401.134000", "114401.136000", "114401.139000", "114401.141000", "114401.144000", "114401.146000", "114401.149000", "114401.151000", "114401.154000", "114401.156000", "114401.159000", "114401.161000", "114401.164000", "114401.166000", "114401.169000", "114401.172000", "114401.174000", "114401.177000", "114401.179000", "114401.182000", "114401.184000", "114401.187000", "114401.189000", "114401.192000", "114401.194000", "114401.197000", "114441.111000", "114441.113000", "114441.116000", "114441.118000", "114441.121000", "114441.123000", "114441.126000", "114441.129000", "114441.131000", "114441.134000", "114441.136000", "114441.139000", "114441.141000", "114441.144000", "114441.146000", "114441.149000", "114441.151000", "114441.154000", "114441.156000", "114441.159000", "114441.161000", "114441.164000", "114441.166000", "114441.169000", "114441.172000", "114441.174000", "114441.177000", "114521.114000", "114521.117000", "114521.120000", "114521.122000", "114521.125000", "114521.127000", "114521.130000", "114521.132000", "114521.135000", "114521.137000", "114521.140000", "114521.142000", "114521.145000", "114521.147000", "114521.150000", "114521.152000", "114521.155000", "114521.158000", "114521.160000", "114521.163000", "114521.165000", "114521.168000", "114521.170000", "114521.173000", "114521.175000", "114521.178000", "114521.180000", "114523.447000", "114523.449000"],
