{
  "AcquisitionMatrixPE": 104,
  "AcquisitionNumber": 1,
  "AcquisitionTime": "11:04:29.880000",
  "BandwidthPerPixelPhaseEncode": 17.17,
  "BaseResolution": 104,
  "BodyPartExamined": "BRAIN",
  "CoilString": "HC1-7;NC1_2",
  "ConsistencyInfo": "N4_VE11C_LATEST_20160120",
  "ConversionSoftware": "dcm2niix",
  "ConversionSoftwareVersion": "v1.0.20190902",
  "DerivedVendorReportedEchoSpacing": 0.000560011,
  "DeviceSerialNumber": "167006",
  "DwellTime": 2.1e-06,
  "EchoTime": 0.037,
  "EchoTrainLength": 104,
  "EffectiveEchoSpacing": 0.000560011,
  "FlipAngle": 52,
  "HeudiconvVersion": "0.10.0",
  "ImageComments": "Unaliased_MB4_PE3_LB",
  "ImageOrientationPatientDICOM": [0.998587, 0.0471767, 0.0244579, -0.033301, 0.914233, -0.403818],
  "ImageType": [
    "ORIGINAL",
    "PRIMARY",
    "M",
    "MB",
    "ND",
    "MOSAIC"
],
  "ImagingFrequency": 123.259,
  "InPlanePhaseEncodingDirectionDICOM": "COL",
  "InstitutionAddress": "Chemin_Queen-Mary_4565_Montreal_District_CA_H3W_1W5",
  "InstitutionName": "IUGM",
  "InstitutionalDepartmentName": "Department",
  "MRAcquisitionType": "2D",
  "MagneticFieldStrength": 3,
  "Manufacturer": "Siemens",
  "ManufacturersModelName": "Prisma_fit",
  "Modality": "MR",
  "MultibandAccelerationFactor": 4,
  "PartialFourier": 1,
  "PatientPosition": "HFS",
  "PercentPhaseFOV": 100,
  "PhaseEncodingDirection": "j",
  "PhaseEncodingSteps": 104,
  "PhaseResolution": 1,
  "PixelBandwidth": 2290,
  "ProcedureStepDescription": "games_mario",
  "ProtocolName": "func_task-mario_run-01",
  "PulseSequenceDetails": "%CustomerSeq%_cmrr_mbep2d_bold",
  "ReceiveCoilActiveElements": "HC1-7;NC1,2",
  "ReceiveCoilName": "HeadNeck_64",
  "ReconMatrixPE": 104,
  "RepetitionTime": 1.49,
  "SAR": 0.0546752,
  "ScanOptions": "FS",
  "ScanningSequence": "EP",
  "SequenceName": "epfid2d1_104",
  "SequenceVariant": "SK_SS",
  "SeriesDescription": "func_task-mario_run-01",
  "SeriesNumber": 13,
  "ShimSetting": [627, -7143, -8863, 555, 69, 149, -42, -12],
  "SliceThickness": 2,
  "SliceTiming": [0, 0.785, 0.0975, 0.8825, 0.195, 0.98, 0.295, 1.0775, 0.3925, 1.175, 0.49, 1.275, 0.5875, 1.3725, 0.685, 0, 0.785, 0.0975, 0.8825, 0.195, 0.98, 0.295, 1.0775, 0.3925, 1.175, 0.49, 1.275, 0.5875, 1.3725, 0.685, 0, 0.785, 0.0975, 0.8825, 0.195, 0.98, 0.295, 1.0775, 0.3925, 1.175, 0.49, 1.275, 0.5875, 1.3725, 0.685, 0, 0.785, 0.0975, 0.8825, 0.195, 0.98, 0.295, 1.0775, 0.3925, 1.175, 0.49, 1.275, 0.5875, 1.3725, 0.685],
  "SoftwareVersions": "syngo_MR_E11",
  "SpacingBetweenSlices": 2,
  "StationName": "MRC35049",
  "TaskName": "mario",
  "TotalReadoutTime": 0.0576811,
  "TxRefAmp": 287.121,
  "WipMemBlock": "7bb43f15-9d17-48ce-9eec-5a40f598dea0||Sequence: R016 ve11c/master r/e634e98; Dec 19 2017 11:00:25 by eja",
  "dcmmeta_affine": [
    [-1.9971741437911987, -0.06660199910402298, 0.08282200992107391, 108.10338592529297],
    [-0.09435337036848068, 1.8284660577774048, -0.8048660755157471, -52.50009536743164],
    [0.04891576990485191, 0.8076361417770386, 1.8290245532989502, -73.37471008300781],
    [0.0, 0.0, 0.0, 1.0]
],
  "dcmmeta_reorient_transform": [
    [0.0, -1.0, 0.0, 103.0],
    [1.0, 0.0, 0.0, 0.0],
    [0.0, 0.0, 1.0, 0.0],
    [0.0, 0.0, 0.0, 1.0]
],
  "dcmmeta_shape": [104, 104, 60, 459],
  "dcmmeta_slice_dim": 2,
  "dcmmeta_version": 0.6,
  "global": {
    "const": {
      "AcquisitionMatrix": [104, 0, 0, 104],
      "AngioFlag": "N",
      "BitsAllocated": 16,
      "BitsStored": 16,
      "BodyPartExamined": "BRAIN",
      "Columns": 832,
      "EchoNumbers": 1,
      "EchoTime": 37.0,
      "EchoTrainLength": 104,
      "FlipAngle": 52.0,
      "HighBit": 15,
      "ImageOrientationPatient": [0.99858708789422, 0.04717668629289, 0.02445788546399, -0.0333009996986, 0.91423301882763, -0.4038180663422],
      "ImagePositionPatient": [-803.97164853057, -835.73817342736, 285.98602505918],
      "ImageType": [
        "ORIGINAL",
        "PRIMARY",
        "M",
        "MB",
        "ND",
        "MOSAIC"
],
      "ImagedNucleus": "1H",
      "ImagingFrequency": 123.258952,
      "InPlanePhaseEncodingDirection": "COL",
      "MRAcquisitionType": "2D",
      "MagneticFieldStrength": 3.0,
      "Manufacturer": "SIEMENS",
      "ManufacturerModelName": "Prisma_fit",
      "Modality": "MR",
      "NumberOfAverages": 1.0,
      "NumberOfPhaseEncodingSteps": 104,
      "PercentPhaseFieldOfView": 100.0,
      "PercentSampling": 100.0,
      "PerformedProcedureStepStartTime": "104035.410000",
      "PhotometricInterpretation": "MONOCHROME2",
      "PixelBandwidth": 2290.0,
      "PixelRepresentation": 0,
      "PixelSpacing": [2.0, 2.0],
      "ProtocolName": "func_task-mario_run-01",
      "RepetitionTime": 1490.0,
      "Rows": 832,
      "SAR": 0.05467518000057,
      "SamplesPerPixel": 1,
      "ScanOptions": "FS",
      "ScanningSequence": "EP",
      "SequenceName": "epfid2d1_104",
      "SequenceVariant": [
        "SK",
        "SS"
],
      "SeriesDescription": "func_task-mario_run-01",
      "SeriesNumber": 13,
      "SeriesTime": "110552.627000",
      "SliceLocation": -41.497632871322,
      "SliceThickness": 2.0,
      "SmallestImagePixelValue": 0,
      "SoftwareVersions": "syngo MR E11",
      "SpacingBetweenSlices": 1.9999999528038,
      "SpecificCharacterSet": "ISO_IR 100",
      "StudyID": "1",
      "StudyTime": "104035.356000",
      "TransmitCoilName": "Body",
      "VariableFlipAngleFlag": "N",
      "WindowCenterWidthExplanation": "Algo1",
      "dBdt": 0.0},
    "slices": {}
  },
  "time": {
    "samples": {
      "AcquisitionNumber": [1, 2, 3, 4, 5, 6, 7, 8, 9, 10, 11, 12, 13, 14, 15, 16, 17, 18, 19, 20, 21, 22, 23, 24, 25, 26, 27, 28, 29, 30, 31, 32, 33, 34, 35, 36, 37, 38, 39, 40, 41, 42, 43, 44, 45, 46, 47, 48, 49, 50, 51, 52, 53, 54, 55, 56, 57, 58, 59, 60, 61, 62, 63, 64, 65, 66, 67, 68, 69, 70, 71, 72, 73, 74, 75, 76, 77, 78, 79, 80, 81, 82, 83, 84, 85, 86, 87, 88, 89, 90, 91, 92, 93, 94, 95, 96, 97, 98, 99, 100, 101, 102, 103, 104, 105, 106, 107, 108, 109, 110, 111, 112, 113, 114, 115, 116, 117, 118, 119, 120, 121, 122, 123, 124, 125, 126, 127, 128, 129, 130, 131, 132, 133, 134, 135, 136, 137, 138, 139, 140, 141, 142, 143, 144, 145, 146, 147, 148, 149, 150, 151, 152, 153, 154, 155, 156, 157, 158, 159, 160, 161, 162, 163, 164, 165, 166, 167, 168, 169, 170, 171, 172, 173, 174, 175, 176, 177, 178, 179, 180, 181, 182, 183, 184, 185, 186, 187, 188, 189, 190, 191, 192, 193, 194, 195, 196, 197, 198, 199, 200, 201, 202, 203, 204, 205, 206, 207, 208, 209, 210, 211, 212, 213, 214, 215, 216, 217, 218, 219, 220, 221, 222, 223, 224, 225, 226, 227, 228, 229, 230, 231, 232, 233, 234, 235, 236, 237, 238, 239, 240, 241, 242, 243, 244, 245, 246, 247, 248, 249, 250, 251, 252, 253, 254, 255, 256, 257, 258, 259, 260, 261, 262, 263, 264, 265, 266, 267, 268, 269, 270, 271, 272, 273, 274, 275, 276, 277, 278, 279, 280, 281, 282, 283, 284, 285, 286, 287, 288, 289, 290, 291, 292, 293, 294, 295, 296, 297, 298, 299, 300, 301, 302, 303, 304, 305, 306, 307, 308, 309, 310, 311, 312, 313, 314, 315, 316, 317, 318, 319, 320, 321, 322, 323, 324, 325, 326, 327, 328, 329, 330, 331, 332, 333, 334, 335, 336, 337, 338, 339, 340, 341, 342, 343, 344, 345, 346, 347, 348, 349, 350, 351, 352, 353, 354, 355, 356, 357, 358, 359, 360, 361, 362, 363, 364, 365, 366, 367, 368, 369, 370, 371, 372, 373, 374, 375, 376, 377, 378, 379, 380, 381, 382, 383, 384, 385, 386, 387, 388, 389, 390, 391, 392, 393, 394, 395, 396, 397, 398, 399, 400, 401, 402, 403, 404, 405, 406, 407, 408, 409, 410, 411, 412, 413, 414, 415, 416, 417, 418, 419, 420, 421, 422, 423, 424, 425, 426, 427, 428, 429, 430, 431, 432, 433, 434, 435, 436, 437, 438, 439, 440, 441, 442, 443, 444, 445, 446, 447, 448, 449, 450, 451, 452, 453, 454, 455, 456, 457, 458, 459],
      "AcquisitionTime": ["110429.880000", "110431.370000", "110432.860000", "110434.350000", "110435.840000", "110437.330000", "110438.820000", "110440.310000", "110441.800000", "110443.290000", "110444.780000", "110446.270000", "110447.760000", "110449.250000", "110450.740000", "110452.230000", "110453.720000", "110455.210000", "110456.700000", "110458.190000", "110459.680000", "110501.170000", "110502.660000", "110504.150000", "110505.640000", "110507.130000", "110508.620000", "110510.110000", "110511.600000", "110513.090000", "110514.580000", "110516.070000", "110517.560000", "110519.050000", "110520.540000", "110522.030000", "110523.520000", "110525.010000", "110526.500000", "110527.990000", "110529.480000", "110530.970000", "110532.460000", "110533.950000", "110535.440000", "110536.930000", "110538.420000", "110539.910000", "110541.400000", "110542.890000", "110544.380000", "110545.870000", "110547.360000", "110548.850000", "110550.340000", "110551.830000", "110553.320000", "110554.810000", "110556.300000", "110557.790000", "110559.280000", "110600.770000", "110602.260000", "110603.750000", "110605.240000", "110606.730000", "110608.220000", "110609.710000", "110611.200000", "110612.690000", "110614.180000", "110615.670000", "110617.160000", "110618.650000", "110620.140000", "110621.630000", "110623.120000", "110624.610000", "110626.100000", "110627.590000", "110629.080000", "110630.570000", "110632.060000", "110633.550000", "110635.040000", "110636.530000", "110638.020000", "110639.510000", "110641.000000", "110642.490000", "110643.980000", "110645.470000", "110646.960000", "110648.450000", "110649.940000", "110651.430000", "110652.920000", "110654.410000", "110655.900000", "110657.390000", "110658.880000", "110700.370000", "110701.860000", "110703.350000", "110704.840000", "110706.330000", "110707.820000", "110709.310000", "110710.800000", "110712.290000", "110713.780000", "110715.270000", "110716.760000", "110718.250000", "110719.740000", "110721.230000", "110722.720000", "110724.210000", "110725.700000", "110727.190000", "110728.680000", "110730.170000", "110731.660000", "110733.150000", "110734.640000", "110736.130000", "110737.620000", "110739.110000", "110740.600000", "110742.090000", "110743.580000", "110745.070000", "110746.560000", "110748.050000", "110749.540000", "110751.030000", "110752.520000", "110754.010000", "110755.500000", "110756.990000", "110758.480000", "110759.970000", "110801.460000", "110802.950000", "110804.440000", "110805.930000", "110807.420000", "110808.910000", "110810.400000", "110811.890000", "110813.380000", "110814.870000", "110816.360000", "110817.850000", "110819.340000", "110820.830000", "110822.320000", "110823.810000", "110825.300000", "110826.790000", "110828.280000", "110829.770000", "110831.260000", "110832.750000", "110834.240000", "110835.730000", "110837.220000", "110838.710000", "110840.200000", "110841.690000", "110843.180000", "110844.670000", "110846.160000", "110847.650000", "110849.140000", "110850.630000", "110852.120000", "110853.610000", "110855.100000", "110856.590000", "110858.080000", "110859.570000", "110901.060000", "110902.550000", "110904.040000", "110905.530000", "110907.020000", "110908.510000", "110910.000000", "110911.490000", "110912.980000", "110914.470000", "110915.960000", "110917.450000", "110918.940000", "110920.430000", "110921.920000", "110923.410000", "110924.900000", "110926.390000", "110927.880000", "110929.370000", "110930.860000", "110932.350000", "110933.840000", "110935.330000", "110936.820000", "110938.310000", "110939.800000", "110941.290000", "110942.780000", "110944.270000", "110945.760000", "110947.250000", "110948.740000", "110950.230000", "110951.720000", "110953.210000", "110954.700000", "110956.190000", "110957.680000", "110959.170000", "111000.660000", "111002.150000", "111003.640000", "111005.130000", "111006.620000", "111008.110000", "111009.600000", "111011.090000", "111012.580000", "111014.070000", "111015.560000", "111017.050000", "111018.540000", "111020.030000", "111021.520000", "111023.010000", "111024.500000", "111025.990000", "111027.480000", "111028.970000", "111030.460000", "111031.950000", "111033.440000", "111034.930000", "111036.420000", "111037.910000", "111039.400000", "111040.890000", "111042.380000", "111043.870000", "111045.360000", "111046.850000", "111048.340000", "111049.830000", "111051.320000", "111052.810000", "111054.300000", "111055.790000", "111057.280000", "111058.770000", "111100.260000", "111101.750000", "111103.240000", "111104.730000", "111106.220000", "111107.710000", "111109.200000", "111110.690000", "111112.180000", "111113.670000", "111115.160000", "111116.650000", "111118.140000", "111119.630000", "111121.120000", "111122.610000", "111124.100000", "111125.590000", "111127.080000", "111128.570000", "111130.060000", "111131.550000", "111133.040000", "111134.530000", "111136.020000", "111137.510000", "111139.000000", "111140.490000", "111141.980000", "111143.470000", "111144.960000", "111146.450000", "111147.940000", "111149.430000", "111150.920000", "111152.410000", "111153.900000", "111155.390000", "111156.880000", "111158.370000", "111159.860000", "111201.350000", "111202.840000", "111204.330000", "111205.820000", "111207.310000", "111208.800000", "111210.290000", "111211.780000", "111213.270000", "111214.760000", "111216.250000", "111217.740000", "111219.230000", "111220.720000", "111222.210000", "111223.700000", "111225.190000", "111226.680000", "111228.170000", "111229.660000", "111231.150000", "111232.640000", "111234.130000", "111235.620000", "111237.110000", "111238.600000", "111240.090000", "111241.580000", "111243.070000", "111244.560000", "111246.050000", "111247.540000", "111249.030000", "111250.520000", "111252.010000", "111253.500000", "111254.990000", "111256.480000", "111257.970000", "111259.460000", "111300.950000", "111302.440000", "111303.930000", "111305.420000", "111306.910000", "111308.400000", "111309.890000", "111311.380000", "111312.870000", "111314.360000", "111315.850000", "111317.340000", "111318.830000", "111320.320000", "111321.810000", "111323.300000", "111324.790000", "111326.280000", "111327.770000", "111329.260000", "111330.750000", "111332.240000", "111333.730000", "111335.220000", "111336.710000", "111338.200000", "111339.690000", "111341.180000", "111342.670000", "111344.160000", "111345.650000", "111347.140000", "111348.630000", "111350.120000", "111351.610000", "111353.100000", "111354.590000", "111356.080000", "111357.570000", "111359.060000", "111400.550000", "111402.040000", "111403.530000", "111405.020000", "111406.510000", "111408.000000", "111409.490000", "111410.980000", "111412.470000", "111413.960000", "111415.450000", "111416.940000", "111418.430000", "111419.920000", "111421.410000", "111422.900000", "111424.390000", "111425.880000", "111427.370000", "111428.860000", "111430.350000", "111431.840000", "111433.330000", "111434.820000", "111436.310000", "111437.800000", "111439.290000", "111440.780000", "111442.270000", "111443.760000", "111445.250000", "111446.740000", "111448.230000", "111449.720000", "111451.210000", "111452.700000", "111454.190000", "111455.680000", "111457.170000", "111458.660000", "111500.150000", "111501.640000", "111503.130000", "111504.620000", "111506.110000", "111507.600000", "111509.090000", "111510.580000", "111512.070000", "111513.560000", "111515.050000", "111516.540000", "111518.030000", "111519.520000", "111521.010000", "111522.500000", "111523.990000", "111525.480000", "111526.970000", "111528.460000", "111529.950000", "111531.440000", "111532.930000", "111534.420000", "111535.910000", "111537.400000", "111538.890000", "111540.380000", "111541.870000", "111543.360000", "111544.850000", "111546.340000", "111547.830000", "111549.320000", "111550.810000", "111552.300000"],
      "ContentTime": ["110552.630000", "110552.634000", "110552.637000", "110552.640000", "110552.644000", "110552.647000", "110552.650000", "110552.660000", "110552.663000", "110552.667000", "110552.670000", "110552.673000", "110552.677000", "110552.680000", "110552.683000", "110552.687000", "110552.690000", "110552.694000", "110552.697000", "110552.700000", "110552.704000", "110552.707000", "110552.710000", "110552.714000", "110552.717000", "110552.720000", "110552.724000", "110552.727000", "110552.731000", "110612.598000", "110612.602000", "110612.605000", "110612.609000", "110612.612000", "110612.615000", "110612.619000", "110612.631000", "110612.635000", "110612.638000", "110612.641000", "110612.645000", "110612.648000", "110612.652000", "110612.655000", "110612.658000", "110612.661000", "110612.665000", "110612.668000", "110612.672000", "110632.599000", "110632.603000", "110632.606000", "110632.610000", "110632.613000", "110632.616000", "110632.620000", "110632.623000", "110632.626000", "110632.647000", "110632.650000", "110632.653000", "110632.657000", "110632.660000", "110632.663000", "110632.667000", "110632.670000", "110632.673000", "110632.677000", "110632.688000", "110652.599000", "110652.603000", "110652.606000", "110652.609000", "110652.613000", "110652.616000", "110652.620000", "110652.623000", "110652.627000", "110652.630000", "110652.634000", "110652.637000", "110652.640000", "110652.644000", "110652.647000", "110652.650000", "110652.654000", "110652.663000", "110652.666000", "110652.669000", "110712.599000", "110712.603000", "110712.606000", "110712.610000", "110712.613000", "110712.617000", "110712.620000", "110712.623000", "110712.627000", "110712.630000", "110712.633000", "110712.637000", "110712.640000", "110712.643000", "110712.647000", "110712.650000", "110712.654000", "110712.657000", "110712.660000", "110752.598000", "110752.602000", "110752.605000", "110752.609000", "110752.612000", "110752.616000", "110752.619000", "110752.622000", "110752.626000", "110752.629000", "110752.632000", "110752.636000", "110752.639000", "110752.642000", "110752.646000", "110752.649000", "110752.653000", "110752.664000", "110752.667000", "110752.671000", "110752.674000", "110752.678000", "110752.681000", "110752.684000", "110752.688000", "110752.691000", "110752.694000", "110832.598000", "110832.602000", "110832.605000", "110832.609000", "110832.612000", "110832.616000", "110832.619000", "110832.622000", "110832.626000", "110832.629000", "110832.633000", "110832.636000", "110832.639000", "110832.643000", "110832.646000", "110832.649000", "110832.653000", "110832.656000", "110832.659000", "110832.663000", "110832.666000", "110832.669000", "110832.673000", "110832.676000", "110832.680000", "110832.683000", "110832.686000", "110912.599000", "110912.603000", "110912.606000", "110912.610000", "110912.613000", "110912.616000", "110912.620000", "110912.623000", "110912.626000", "110912.630000", "110912.633000", "110912.637000", "110912.640000", "110912.643000", "110912.647000", "110912.650000", "110912.653000", "110912.657000", "110912.660000", "110912.664000", "110912.667000", "110912.670000", "110912.674000", "110912.677000", "110912.681000", "110912.684000", "110912.687000", "110952.599000", "110952.614000", "110952.617000", "110952.621000", "110952.624000", "110952.627000", "110952.631000", "110952.634000", "110952.637000", "110952.641000", "110952.644000", "110952.647000", "110952.651000", "110952.654000", "110952.658000", "110952.661000", "110952.664000", "110952.668000", "110952.671000", "110952.674000", "110952.678000", "110952.681000", "110952.685000", "110952.688000", "110952.692000", "110952.695000", "110952.698000", "111032.598000", "111032.602000", "111032.606000", "111032.609000", "111032.612000", "111032.616000", "111032.619000", "111032.622000", "111032.626000", "111032.629000", "111032.632000", "111032.636000", "111032.639000", "111032.643000", "111032.646000", "111032.649000", "111032.653000", "111032.656000", "111032.659000", "111032.663000", "111032.666000", "111032.669000", "111032.673000", "111032.676000", "111032.680000", "111032.683000", "111032.686000", "111112.599000", "111112.603000", "111112.606000", "111112.610000", "111112.613000", "111112.617000", "111112.620000", "111112.623000", "111112.627000", "111112.630000", "111112.633000", "111112.652000", "111112.656000", "111112.659000", "111112.663000", "111112.666000", "111112.670000", "111112.673000", "111112.676000", "111112.680000", "111112.683000", "111112.687000", "111112.690000", "111112.693000", "111112.697000", "111112.700000", "111152.599000", "111152.603000", "111152.606000", "111152.610000", "111152.613000", "111152.617000", "111152.620000", "111152.623000", "111152.627000", "111152.630000", "111152.633000", "111152.637000", "111152.640000", "111152.644000", "111152.647000", "111152.650000", "111152.654000", "111152.657000", "111152.661000", "111152.664000", "111152.667000", "111152.671000", "111152.674000", "111152.677000", "111152.681000", "111152.684000", "111152.688000", "111232.598000", "111232.602000", "111232.606000", "111232.609000", "111232.612000", "111232.616000", "111232.619000", "111232.622000", "111232.626000", "111232.629000", "111232.633000", "111232.636000", "111232.639000", "111232.643000", "111232.646000", "111232.649000", "111232.653000", "111232.656000", "111232.660000", "111232.663000", "111232.666000", "111232.670000", "111232.673000", "111232.677000", "111232.680000", "111232.684000", "111232.687000", "111312.598000", "111312.602000", "111312.606000", "111312.609000", "111312.612000", "111312.616000", "111312.619000", "111312.623000", "111312.626000", "111312.629000", "111312.633000", "111312.636000", "111312.640000", "111312.643000", "111312.646000", "111312.650000", "111312.653000", "111312.657000", "111312.660000", "111312.663000", "111312.667000", "111312.670000", "111312.673000", "111312.677000", "111312.680000", "111312.684000", "111312.687000", "111352.599000", "111352.603000", "111352.606000", "111352.610000", "111352.613000", "111352.617000", "111352.620000", "111352.623000", "111352.627000", "111352.630000", "111352.633000", "111352.637000", "111352.640000", "111352.644000", "111352.647000", "111352.650000", "111352.654000", "111352.657000", "111352.661000", "111352.664000", "111352.667000", "111352.671000", "111352.674000", "111352.677000", "111352.681000", "111352.684000", "111352.687000", "111432.598000", "111432.602000", "111432.605000", "111432.609000", "111432.612000", "111432.616000", "111432.619000", "111432.623000", "111432.626000", "111432.629000", "111432.633000", "111432.636000", "111432.639000", "111432.643000", "111432.646000", "111432.650000", "111432.653000", "111432.656000", "111432.660000", "111432.663000", "111432.667000", "111432.670000", "111432.673000", "111432.677000", "111432.680000", "111432.684000", "111432.687000", "111512.598000", "111512.602000", "111512.606000", "111512.609000", "111512.612000", "111512.616000", "111512.619000", "111512.623000", "111512.626000", "111512.629000", "111512.633000", "111512.636000", "111512.640000", "111512.643000", "111512.647000", "111512.650000", "111512.653000", "111512.657000", "111512.660000", "111512.664000", "111512.667000", "111512.670000", "111512.674000", "111512.678000", "111512.682000", "111512.685000", "111552.599000", "111552.603000", "111552.606000", "111552.610000", "111552.613000", "111552.628000", "111552.631000", "111552.635000", "111552.638000", "111552.642000", "111552.645000", "111552.648000", "111552.652000", "111552.655000", "111552.659000", "111552.662000", "111552.665000", "111552.669000", "111552.672000", "111552.675000", "111552.679000", "111552.682000", "111552.686000", "111552.689000", "111552.692000", "111552.696000", "111552.699000", "111554.923000", "111554.927000"],
