{
  "AcquisitionMatrixPE": 104,
  "AcquisitionNumber": 1,
  "AcquisitionTime": "11:58:32.732500",
  "BandwidthPerPixelPhaseEncode": 17.17,
  "BaseResolution": 104,
  "BodyPartExamined": "BRAIN",
  "CoilString": "HC1-7;NC1_2",
  "ConsistencyInfo": "N4_VE11C_LATEST_20160120",
  "ConversionSoftware": "dcm2niix",
  "ConversionSoftwareVersion": "v1.0.20190902",
  "DerivedVendorReportedEchoSpacing": 0.000560011,
  "DeviceSerialNumber": "167006",
  "DwellTime": 2.1e-06,
  "EchoTime": 0.037,
  "EchoTrainLength": 104,
  "EffectiveEchoSpacing": 0.000560011,
  "FlipAngle": 52,
  "HeudiconvVersion": "0.10.0",
  "ImageComments": "Unaliased_MB4_PE3_LB",
  "ImageOrientationPatientDICOM": [0.998587, 0.0471767, 0.0244579, -0.033301, 0.914233, -0.403818],
  "ImageType": [
    "ORIGINAL",
    "PRIMARY",
    "M",
    "MB",
    "ND",
    "MOSAIC"
],
  "ImagingFrequency": 123.259,
  "InPlanePhaseEncodingDirectionDICOM": "COL",
  "InstitutionAddress": "Chemin_Queen-Mary_4565_Montreal_District_CA_H3W_1W5",
  "InstitutionName": "IUGM",
  "InstitutionalDepartmentName": "Department",
  "MRAcquisitionType": "2D",
  "MagneticFieldStrength": 3,
  "Manufacturer": "Siemens",
  "ManufacturersModelName": "Prisma_fit",
  "Modality": "MR",
  "MultibandAccelerationFactor": 4,
  "PartialFourier": 1,
  "PatientPosition": "HFS",
  "PercentPhaseFOV": 100,
  "PhaseEncodingDirection": "j",
  "PhaseEncodingSteps": 104,
  "PhaseResolution": 1,
  "PixelBandwidth": 2290,
  "ProcedureStepDescription": "games_mario",
  "ProtocolName": "func_task-mario_run-05",
  "PulseSequenceDetails": "%CustomerSeq%_cmrr_mbep2d_bold",
  "ReceiveCoilActiveElements": "HC1-7;NC1,2",
  "ReceiveCoilName": "HeadNeck_64",
  "ReconMatrixPE": 104,
  "RepetitionTime": 1.49,
  "SAR": 0.0546752,
  "ScanOptions": "FS",
  "ScanningSequence": "EP",
  "SequenceName": "epfid2d1_104",
  "SequenceVariant": "SK_SS",
  "SeriesDescription": "func_task-mario_run-05",
  "SeriesNumber": 25,
  "ShimSetting": [627, -7143, -8863, 555, 69, 149, -42, -12],
  "SliceThickness": 2,
  "SliceTiming": [0, 0.785, 0.0975, 0.8825, 0.1975, 0.98, 0.295, 1.0775, 0.3925, 1.1775, 0.49, 1.275, 0.5875, 1.3725, 0.6875, 0, 0.785, 0.0975, 0.8825, 0.1975, 0.98, 0.295, 1.0775, 0.3925, 1.1775, 0.49, 1.275, 0.5875, 1.3725, 0.6875, 0, 0.785, 0.0975, 0.8825, 0.1975, 0.98, 0.295, 1.0775, 0.3925, 1.1775, 0.49, 1.275, 0.5875, 1.3725, 0.6875, 0, 0.785, 0.0975, 0.8825, 0.1975, 0.98, 0.295, 1.0775, 0.3925, 1.1775, 0.49, 1.275, 0.5875, 1.3725, 0.6875],
  "SoftwareVersions": "syngo_MR_E11",
  "SpacingBetweenSlices": 2,
  "StationName": "MRC35049",
  "TaskName": "mario",
  "TotalReadoutTime": 0.0576811,
  "TxRefAmp": 287.121,
  "WipMemBlock": "e2b7b631-1094-4345-9e6d-6f786ddfc74d||Sequence: R016 ve11c/master r/e634e98; Dec 19 2017 11:00:25 by eja",
  "dcmmeta_affine": [
    [-1.9971741437911987, -0.06660199910402298, 0.08282200992107391, 108.10338592529297],
    [-0.09435337036848068, 1.8284660577774048, -0.8048660755157471, -52.50009536743164],
    [0.04891576990485191, 0.8076361417770386, 1.8290245532989502, -73.37471008300781],
    [0.0, 0.0, 0.0, 1.0]
],
  "dcmmeta_reorient_transform": [
    [0.0, -1.0, 0.0, 103.0],
    [1.0, 0.0, 0.0, 0.0],
    [0.0, 0.0, 1.0, 0.0],
    [0.0, 0.0, 0.0, 1.0]
],
  "dcmmeta_shape": [104, 104, 60, 417],
  "dcmmeta_slice_dim": 2,
  "dcmmeta_version": 0.6,
  "global": {
    "const": {
      "AcquisitionMatrix": [104, 0, 0, 104],
      "AngioFlag": "N",
      "BitsAllocated": 16,
      "BitsStored": 16,
      "BodyPartExamined": "BRAIN",
      "Columns": 832,
      "EchoNumbers": 1,
      "EchoTime": 37.0,
      "EchoTrainLength": 104,
      "FlipAngle": 52.0,
      "HighBit": 15,
      "ImageOrientationPatient": [0.99858708789422, 0.04717668629289, 0.02445788546399, -0.0333009996986, 0.91423301882763, -0.4038180663422],
      "ImagePositionPatient": [-803.97164853057, -835.73817342736, 285.98602505918],
      "ImageType": [
        "ORIGINAL",
        "PRIMARY",
        "M",
        "MB",
        "ND",
        "MOSAIC"
],
      "ImagedNucleus": "1H",
      "ImagingFrequency": 123.258977,
      "InPlanePhaseEncodingDirection": "COL",
      "MRAcquisitionType": "2D",
      "MagneticFieldStrength": 3.0,
      "Manufacturer": "SIEMENS",
      "ManufacturerModelName": "Prisma_fit",
      "Modality": "MR",
      "NumberOfAverages": 1.0,
      "NumberOfPhaseEncodingSteps": 104,
      "PercentPhaseFieldOfView": 100.0,
      "PercentSampling": 100.0,
      "PerformedProcedureStepStartTime": "104035.410000",
      "PhotometricInterpretation": "MONOCHROME2",
      "PixelBandwidth": 2290.0,
      "PixelRepresentation": 0,
      "PixelSpacing": [2.0, 2.0],
      "ProtocolName": "func_task-mario_run-05",
      "RepetitionTime": 1490.0,
      "Rows": 832,
      "SAR": 0.05467518000057,
      "SamplesPerPixel": 1,
      "ScanOptions": "FS",
      "ScanningSequence": "EP",
      "SequenceName": "epfid2d1_104",
      "SequenceVariant": [
        "SK",
        "SS"
],
      "SeriesDescription": "func_task-mario_run-05",
      "SeriesNumber": 25,
      "SeriesTime": "120004.111000",
      "SliceLocation": -41.497632871322,
      "SliceThickness": 2.0,
      "SmallestImagePixelValue": 0,
      "SoftwareVersions": "syngo MR E11",
      "SpacingBetweenSlices": 1.9999999528038,
      "SpecificCharacterSet": "ISO_IR 100",
      "StudyID": "1",
      "StudyTime": "104035.356000",
      "TransmitCoilName": "Body",
      "VariableFlipAngleFlag": "N",
      "WindowCenterWidthExplanation": "Algo1",
      "dBdt": 0.0},
    "slices": {}
  },
  "time": {
    "samples": {
      "AcquisitionNumber": [1, 2, 3, 4, 5, 6, 7, 8, 9, 10, 11, 12, 13, 14, 15, 16, 17, 18, 19, 20, 21, 22, 23, 24, 25, 26, 27, 28, 29, 30, 31, 32, 33, 34, 35, 36, 37, 38, 39, 40, 41, 42, 43, 44, 45, 46, 47, 48, 49, 50, 51, 52, 53, 54, 55, 56, 57, 58, 59, 60, 61, 62, 63, 64, 65, 66, 67, 68, 69, 70, 71, 72, 73, 74, 75, 76, 77, 78, 79, 80, 81, 82, 83, 84, 85, 86, 87, 88, 89, 90, 91, 92, 93, 94, 95, 96, 97, 98, 99, 100, 101, 102, 103, 104, 105, 106, 107, 108, 109, 110, 111, 112, 113, 114, 115, 116, 117, 118, 119, 120, 121, 122, 123, 124, 125, 126, 127, 128, 129, 130, 131, 132, 133, 134, 135, 136, 137, 138, 139, 140, 141, 142, 143, 144, 145, 146, 147, 148, 149, 150, 151, 152, 153, 154, 155, 156, 157, 158, 159, 160, 161, 162, 163, 164, 165, 166, 167, 168, 169, 170, 171, 172, 173, 174, 175, 176, 177, 178, 179, 180, 181, 182, 183, 184, 185, 186, 187, 188, 189, 190, 191, 192, 193, 194, 195, 196, 197, 198, 199, 200, 201, 202, 203, 204, 205, 206, 207, 208, 209, 210, 211, 212, 213, 214, 215, 216, 217, 218, 219, 220, 221, 222, 223, 224, 225, 226, 227, 228, 229, 230, 231, 232, 233, 234, 235, 236, 237, 238, 239, 240, 241, 242, 243, 244, 245, 246, 247, 248, 249, 250, 251, 252, 253, 254, 255, 256, 257, 258, 259, 260, 261, 262, 263, 264, 265, 266, 267, 268, 269, 270, 271, 272, 273, 274, 275, 276, 277, 278, 279, 280, 281, 282, 283, 284, 285, 286, 287, 288, 289, 290, 291, 292, 293, 294, 295, 296, 297, 298, 299, 300, 301, 302, 303, 304, 305, 306, 307, 308, 309, 310, 311, 312, 313, 314, 315, 316, 317, 318, 319, 320, 321, 322, 323, 324, 325, 326, 327, 328, 329, 330, 331, 332, 333, 334, 335, 336, 337, 338, 339, 340, 341, 342, 343, 344, 345, 346, 347, 348, 349, 350, 351, 352, 353, 354, 355, 356, 357, 358, 359, 360, 361, 362, 363, 364, 365, 366, 367, 368, 369, 370, 371, 372, 373, 374, 375, 376, 377, 378, 379, 380, 381, 382, 383, 384, 385, 386, 387, 388, 389, 390, 391, 392, 393, 394, 395, 396, 397, 398, 399, 400, 401, 402, 403, 404, 405, 406, 407, 408, 409, 410, 411, 412, 413, 414, 415, 416, 417],
      "AcquisitionTime": ["115832.732500", "115834.222500", "115835.712500", "115837.202500", "115838.692500", "115840.182500", "115841.672500", "115843.162500", "115844.652500", "115846.142500", "115847.632500", "115849.122500", "115850.612500", "115852.102500", "115853.592500", "115855.082500", "115856.572500", "115858.062500", "115859.552500", "115901.042500", "115902.532500", "115904.022500", "115905.512500", "115907.002500", "115908.492500", "115909.982500", "115911.472500", "115912.962500", "115914.452500", "115915.942500", "115917.432500", "115918.922500", "115920.412500", "115921.902500", "115923.392500", "115924.882500", "115926.372500", "115927.862500", "115929.352500", "115930.842500", "115932.332500", "115933.822500", "115935.312500", "115936.802500", "115938.292500", "115939.782500", "115941.272500", "115942.762500", "115944.252500", "115945.742500", "115947.232500", "115948.722500", "115950.212500", "115951.702500", "115953.192500", "115954.682500", "115956.172500", "115957.662500", "115959.152500", "120000.642500", "120002.132500", "120003.622500", "120005.112500", "120006.602500", "120008.092500", "120009.582500", "120011.072500", "120012.562500", "120014.052500", "120015.542500", "120017.032500", "120018.522500", "120020.012500", "120021.502500", "120022.992500", "120024.482500", "120025.972500", "120027.462500", "120028.952500", "120030.442500", "120031.932500", "120033.422500", "120034.912500", "120036.402500", "120037.892500", "120039.382500", "120040.872500", "120042.362500", "120043.852500", "120045.342500", "120046.832500", "120048.322500", "120049.812500", "120051.302500", "120052.792500", "120054.282500", "120055.772500", "120057.262500", "120058.752500", "120100.242500", "120101.732500", "120103.222500", "120104.712500", "120106.202500", "120107.692500", "120109.182500", "120110.672500", "120112.162500", "120113.652500", "120115.142500", "120116.632500", "120118.122500", "120119.612500", "120121.102500", "120122.592500", "120124.082500", "120125.572500", "120127.062500", "120128.552500", "120130.042500", "120131.532500", "120133.022500", "120134.512500", "120136.002500", "120137.492500", "120138.982500", "120140.472500", "120141.962500", "120143.452500", "120144.942500", "120146.432500", "120147.922500", "120149.412500", "120150.902500", "120152.392500", "120153.882500", "120155.372500", "120156.862500", "120158.352500", "120159.842500", "120201.332500", "120202.822500", "120204.312500", "120205.802500", "120207.292500", "120208.782500", "120210.272500", "120211.762500", "120213.252500", "120214.742500", "120216.232500", "120217.722500", "120219.212500", "120220.702500", "120222.192500", "120223.682500", "120225.172500", "120226.662500", "120228.152500", "120229.642500", "120231.132500", "120232.622500", "120234.112500", "120235.602500", "120237.092500", "120238.582500", "120240.072500", "120241.562500", "120243.052500", "120244.542500", "120246.032500", "120247.522500", "120249.012500", "120250.502500", "120251.992500", "120253.482500", "120254.972500", "120256.462500", "120257.952500", "120259.442500", "120300.932500", "120302.422500", "120303.912500", "120305.402500", "120306.892500", "120308.382500", "120309.872500", "120311.362500", "120312.852500", "120314.342500", "120315.832500", "120317.322500", "120318.812500", "120320.302500", "120321.792500", "120323.282500", "120324.772500", "120326.262500", "120327.752500", "120329.242500", "120330.732500", "120332.222500", "120333.712500", "120335.202500", "120336.692500", "120338.182500", "120339.672500", "120341.162500", "120342.652500", "120344.142500", "120345.632500", "120347.122500", "120348.612500", "120350.102500", "120351.592500", "120353.082500", "120354.572500", "120356.062500", "120357.552500", "120359.042500", "120400.532500", "120402.022500", "120403.512500", "120405.002500", "120406.492500", "120407.982500", "120409.472500", "120410.962500", "120412.452500", "120413.942500", "120415.432500", "120416.922500", "120418.412500", "120419.902500", "120421.392500", "120422.882500", "120424.372500", "120425.862500", "120427.352500", "120428.842500", "120430.332500", "120431.822500", "120433.312500", "120434.802500", "120436.292500", "120437.782500", "120439.272500", "120440.762500", "120442.252500", "120443.742500", "120445.232500", "120446.722500", "120448.212500", "120449.702500", "120451.192500", "120452.682500", "120454.172500", "120455.662500", "120457.152500", "120458.642500", "120500.132500", "120501.622500", "120503.112500", "120504.602500", "120506.092500", "120507.582500", "120509.072500", "120510.562500", "120512.052500", "120513.542500", "120515.032500", "120516.522500", "120518.012500", "120519.502500", "120520.992500", "120522.482500", "120523.972500", "120525.462500", "120526.952500", "120528.442500", "120529.932500", "120531.422500", "120532.912500", "120534.402500", "120535.892500", "120537.382500", "120538.872500", "120540.362500", "120541.852500", "120543.342500", "120544.832500", "120546.322500", "120547.812500", "120549.302500", "120550.792500", "120552.282500", "120553.772500", "120555.262500", "120556.752500", "120558.242500", "120559.732500", "120601.222500", "120602.712500", "120604.202500", "120605.692500", "120607.182500", "120608.672500", "120610.162500", "120611.652500", "120613.142500", "120614.632500", "120616.122500", "120617.612500", "120619.102500", "120620.592500", "120622.082500", "120623.572500", "120625.062500", "120626.552500", "120628.042500", "120629.532500", "120631.022500", "120632.512500", "120634.002500", "120635.492500", "120636.982500", "120638.472500", "120639.962500", "120641.452500", "120642.942500", "120644.432500", "120645.922500", "120647.412500", "120648.902500", "120650.392500", "120651.882500", "120653.372500", "120654.862500", "120656.352500", "120657.842500", "120659.332500", "120700.822500", "120702.312500", "120703.802500", "120705.292500", "120706.782500", "120708.272500", "120709.762500", "120711.252500", "120712.742500", "120714.232500", "120715.722500", "120717.212500", "120718.702500", "120720.192500", "120721.682500", "120723.172500", "120724.662500", "120726.152500", "120727.642500", "120729.132500", "120730.622500", "120732.112500", "120733.602500", "120735.092500", "120736.582500", "120738.072500", "120739.562500", "120741.052500", "120742.542500", "120744.032500", "120745.522500", "120747.012500", "120748.502500", "120749.992500", "120751.482500", "120752.972500", "120754.462500", "120755.952500", "120757.442500", "120758.932500", "120800.422500", "120801.912500", "120803.402500", "120804.892500", "120806.382500", "120807.872500", "120809.362500", "120810.852500", "120812.342500", "120813.832500", "120815.322500", "120816.812500", "120818.302500", "120819.792500", "120821.282500", "120822.772500", "120824.262500", "120825.752500", "120827.242500", "120828.732500", "120830.222500", "120831.712500", "120833.202500", "120834.692500", "120836.182500", "120837.672500", "120839.162500", "120840.652500", "120842.142500", "120843.632500", "120845.122500", "120846.612500", "120848.102500", "120849.592500", "120851.082500", "120852.572500"],
      "ContentTime": ["120004.114000", "120004.118000", "120004.121000", "120004.125000", "120004.128000", "120004.131000", "120004.135000", "120004.138000", "120004.141000", "120004.145000", "120004.148000", "120004.151000", "120004.155000", "120004.158000", "120004.162000", "120004.173000", "120004.176000", "120004.179000", "120004.183000", "120004.186000", "120004.189000", "120004.193000", "120004.196000", "120004.199000", "120004.203000", "120004.206000", "120004.210000", "120004.213000", "120004.216000", "120004.220000", "120004.223000", "120004.226000", "120004.230000", "120004.238000", "120004.242000", "120004.245000", "120004.249000", "120004.252000", "120024.083000", "120024.087000", "120024.090000", "120024.094000", "120024.097000", "120024.100000", "120024.104000", "120024.107000", "120024.111000", "120024.114000", "120024.117000", "120024.121000", "120024.124000", "120024.127000", "120024.131000", "120024.134000", "120024.137000", "120024.141000", "120024.144000", "120024.147000", "120044.084000", "120044.088000", "120044.091000", "120044.094000", "120044.098000", "120044.101000", "120044.105000", "120044.108000", "120044.111000", "120044.115000", "120044.118000", "120044.121000", "120044.124000", "120044.128000", "120044.131000", "120044.135000", "120044.138000", "120044.141000", "120044.145000", "120044.148000", "120104.083000", "120104.087000", "120104.090000", "120104.094000", "120104.097000", "120104.100000", "120104.120000", "120104.124000", "120104.128000", "120104.133000", "120104.137000", "120104.141000", "120104.145000", "120104.148000", "120104.152000", "120104.155000", "120104.159000", "120104.162000", "120104.165000", "120104.169000", "120144.083000", "120144.102000", "120144.105000", "120144.112000", "120144.128000", "120144.132000", "120144.135000", "120144.141000", "120144.144000", "120144.148000", "120144.158000", "120144.176000", "120144.179000", "120144.187000", "120144.198000", "120144.201000", "120144.205000", "120144.208000", "120144.212000", "120144.215000", "120144.219000", "120144.222000", "120144.225000", "120144.229000", "120144.232000", "120144.236000", "120144.239000", "120144.242000", "120144.251000", "120144.255000", "120224.083000", "120224.087000", "120224.091000", "120224.094000", "120224.098000", "120224.101000", "120224.105000", "120224.108000", "120224.111000", "120224.115000", "120224.118000", "120224.122000", "120224.125000", "120224.129000", "120224.132000", "120224.135000", "120224.139000", "120224.142000", "120224.146000", "120224.149000", "120224.152000", "120224.156000", "120224.159000", "120224.163000", "120224.166000", "120224.169000", "120224.173000", "120304.084000", "120304.088000", "120304.091000", "120304.095000", "120304.098000", "120304.102000", "120304.105000", "120304.111000", "120304.114000", "120304.118000", "120304.121000", "120304.125000", "120304.128000", "120304.131000", "120304.135000", "120304.145000", "120304.149000", "120304.152000", "120304.155000", "120304.159000", "120304.162000", "120304.165000", "120304.169000", "120304.172000", "120304.176000", "120304.179000", "120304.182000", "120344.083000", "120344.087000", "120344.091000", "120344.094000", "120344.097000", "120344.101000", "120344.104000", "120344.108000", "120344.111000", "120344.115000", "120344.118000", "120344.121000", "120344.125000", "120344.128000", "120344.132000", "120344.135000", "120344.138000", "120344.142000", "120344.146000", "120344.150000", "120344.153000", "120344.157000", "120344.160000", "120344.164000", "120344.167000", "120344.170000", "120424.083000", "120424.087000", "120424.091000", "120424.094000", "120424.097000", "120424.101000", "120424.104000", "120424.108000", "120424.111000", "120424.115000", "120424.118000", "120424.121000", "120424.125000", "120424.128000", "120424.132000", "120424.135000", "120424.138000", "120424.142000", "120424.145000", "120424.148000", "120424.152000", "120424.155000", "120424.159000", "120424.162000", "120424.165000", "120424.169000", "120424.172000", "120504.083000", "120504.087000", "120504.090000", "120504.102000", "120504.105000", "120504.109000", "120504.112000", "120504.116000", "120504.119000", "120504.122000", "120504.126000", "120504.129000", "120504.133000", "120504.136000", "120504.139000", "120504.143000", "120504.146000", "120504.150000", "120504.153000", "120504.157000", "120504.160000", "120504.164000", "120504.167000", "120504.171000", "120504.174000", "120504.178000", "120504.181000", "120544.083000", "120544.087000", "120544.091000", "120544.094000", "120544.098000", "120544.101000", "120544.104000", "120544.108000", "120544.111000", "120544.115000", "120544.118000", "120544.135000", "120544.139000", "120544.142000", "120544.146000", "120544.149000", "120544.152000", "120544.156000", "120544.159000", "120544.163000", "120544.166000", "120544.169000", "120544.173000", "120544.176000", "120544.180000", "120544.183000", "120544.187000", "120624.083000", "120624.087000", "120624.090000", "120624.094000", "120624.097000", "120624.101000", "120624.104000", "120624.107000", "120624.111000", "120624.114000", "120624.118000", "120624.121000", "120624.124000", "120624.128000", "120624.131000", "120624.135000", "120624.138000", "120624.141000", "120624.145000", "120624.148000", "120624.152000", "120624.155000", "120624.158000", "120624.162000", "120624.165000", "120624.168000", "120624.172000", "120704.087000", "120704.091000", "120704.095000", "120704.099000", "120704.103000", "120704.106000", "120704.110000", "120704.113000", "120704.117000", "120704.121000", "120704.124000", "120704.128000", "120704.132000", "120704.135000", "120704.139000", "120704.142000", "120704.146000", "120704.149000", "120704.152000", "120704.156000", "120704.159000", "120704.163000", "120704.166000", "120704.169000", "120704.173000", "120704.176000", "120704.180000", "120744.085000", "120744.088000", "120744.092000", "120744.095000", "120744.099000", "120744.102000", "120744.105000", "120744.109000", "120744.112000", "120744.116000", "120744.119000", "120744.122000", "120744.128000", "120744.132000", "120744.135000", "120744.138000", "120744.142000", "120744.151000", "120744.155000", "120744.158000", "120744.162000", "120744.166000", "120744.170000", "120744.173000", "120744.177000", "120744.181000", "120824.083000", "120824.094000", "120824.097000", "120824.101000", "120824.104000", "120824.107000", "120824.111000", "120824.114000", "120824.118000", "120824.121000", "120824.124000", "120824.128000", "120824.131000", "120824.135000", "120824.138000", "120824.142000", "120824.145000", "120824.148000", "120824.152000", "120824.155000", "120824.158000", "120824.162000", "120824.165000", "120824.169000", "120824.172000", "120824.175000", "120824.179000", "120854.451000", "120854.460000", "120854.463000", "120854.466000", "120854.470000", "120854.473000", "120854.476000", "120854.480000", "120854.483000", "120854.487000", "120854.490000", "120854.493000", "120854.497000", "120854.500000", "120854.504000", "120854.507000", "120854.510000", "120854.514000", "120854.517000", "120854.520000", "120854.524000"],
      "InstanceCreationTime": ["120004.114000", "120004.118000", "120004.121000", "120004.125000", "120004.128000", "120004.131000", "120004.135000", "120004.138000", "120004.141000", "120004.145000", "120004.148000", "120004.151000", "120004.155000", "120004.158000", "120004.162000", "120004.173000", "120004.176000", "120004.179000", "120004.183000", "120004.186000", "120004.189000", "120004.193000", "120004.196000", "120004.199000", "120004.203000", "120004.206000", "120004.210000", "120004.213000", "120004.216000", "120004.220000", "120004.223000", "120004.226000", "120004.230000", "120004.238000", "120004.242000", "120004.245000", "120004.249000", "120004.252000", "120024.083000", "120024.087000", "120024.090000", "120024.094000", "120024.097000", "120024.100000", "120024.104000", "120024.107000", "120024.111000", "120024.114000", "120024.117000", "120024.121000", "120024.124000", "120024.127000", "120024.131000", "120024.134000", "120024.137000", "120024.141000", "120024.144000", "120024.147000", "120044.084000", "120044.088000", "120044.091000", "120044.094000", "120044.098000", "120044.101000", "120044.105000", "120044.108000", "120044.111000", "120044.115000", "120044.118000", "120044.121000", "120044.124000", "120044.128000", "120044.131000", "120044.135000", "120044.138000", "120044.141000", "120044.145000", "120044.148000", "120104.083000", "120104.087000", "120104.090000", "120104.094000", "120104.097000", "120104.100000", "120104.120000", "120104.124000", "120104.128000", "120104.133000", "120104.137000", "120104.141000", "120104.145000", "120104.148000", "120104.152000", "120104.155000", "120104.159000", "120104.162000", "120104.165000", "120104.169000", "120144.083000", "120144.102000", "120144.105000", "120144.112000", "120144.128000", "120144.132000", "120144.135000", "120144.141000", "120144.144000", "120144.148000", "120144.158000", "120144.176000", "120144.179000", "120144.187000", "120144.198000", "120144.201000", "120144.205000", "120144.208000", "120144.212000", "120144.215000", "120144.219000", "120144.222000", "120144.225000", "120144.229000", "120144.232000", "120144.236000", "120144.239000", "120144.242000", "120144.251000", "120144.255000", "120224.083000", "120224.087000", "120224.091000", "120224.094000", "120224.098000", "120224.101000", "120224.105000", "120224.108000", "120224.111000", "120224.115000", "120224.118000", "120224.122000", "120224.125000", "120224.129000", "120224.132000", "120224.135000", "120224.139000", "120224.142000", "120224.146000", "120224.149000", "120224.152000", "120224.156000", "120224.159000", "120224.163000", "120224.166000", "120224.169000", "120224.173000", "120304.084000", "120304.088000", "120304.091000", "120304.095000", "120304.098000", "120304.102000", "120304.105000", "120304.111000", "120304.114000", "120304.118000", "120304.121000", "120304.125000", "120304.128000", "120304.131000", "120304.135000", "120304.145000", "120304.149000", "120304.152000", "120304.155000", "120304.159000", "120304.162000", "120304.165000", "120304.169000", "120304.172000", "120304.176000", "120304.179000", "120304.182000", "120344.083000", "120344.087000", "120344.091000", "120344.094000", "120344.097000", "120344.101000", "120344.104000", "120344.108000", "120344.111000", "120344.115000", "120344.118000", "120344.121000", "120344.125000", "120344.128000", "120344.132000", "120344.135000", "120344.138000", "120344.142000", "120344.146000", "120344.150000", "120344.153000", "120344.157000", "120344.160000", "120344.164000", "120344.167000", "120344.170000", "120424.083000", "120424.087000", "120424.091000", "120424.094000", "120424.097000", "120424.101000", "120424.104000", "120424.108000", "120424.111000", "120424.115000", "120424.118000", "120424.121000", "120424.125000", "120424.128000", "120424.132000", "120424.135000", "120424.138000", "120424.142000", "120424.145000", "120424.148000", "120424.152000", "120424.155000", "120424.159000", "120424.162000", "120424.165000", "120424.169000", "120424.172000", "120504.083000", "120504.087000", "120504.090000", "120504.102000", "120504.105000", "120504.109000", "120504.112000", "120504.116000", "120504.119000", "120504.122000", "120504.126000", "120504.129000", "120504.133000", "120504.136000", "120504.139000", "120504.143000", "120504.146000", "120504.150000", "120504.153000", "120504.157000", "120504.160000", "120504.164000", "120504.167000", "120504.171000", "120504.174000", "120504.178000", "120504.181000", "120544.083000", "120544.087000", "120544.091000", "120544.094000", "120544.098000", "120544.101000", "120544.104000", "120544.108000", "120544.111000", "120544.115000", "120544.118000", "120544.135000", "120544.139000", "120544.142000", "120544.146000", "120544.149000", "120544.152000", "120544.156000", "120544.159000", "120544.163000", "120544.166000", "120544.169000", "120544.173000", "120544.176000", "120544.180000", "120544.183000", "120544.187000", "120624.083000", "120624.087000", "120624.090000", "120624.094000", "120624.097000", "120624.101000", "120624.104000", "120624.107000", "120624.111000", "120624.114000", "120624.118000", "120624.121000", "120624.124000", "120624.128000", "120624.131000", "120624.135000", "120624.138000", "120624.141000", "120624.145000", "120624.148000", "120624.152000", "120624.155000", "120624.158000", "120624.162000", "120624.165000", "120624.168000", "120624.172000", "120704.087000", "120704.091000", "120704.095000", "120704.099000", "120704.103000", "120704.106000", "120704.110000", "120704.113000", "120704.117000", "120704.121000", "120704.124000", "120704.128000", "120704.132000", "120704.135000", "120704.139000", "120704.142000", "120704.146000", "120704.149000", "120704.152000", "120704.156000", "120704.159000", "120704.163000", "120704.166000", "120704.169000", "120704.173000", "120704.176000", "120704.180000", "120744.085000", "120744.088000", "120744.092000", "120744.095000", "120744.099000", "120744.102000", "120744.105000", "120744.109000", "120744.112000", "120744.116000", "120744.119000", "120744.122000", "120744.128000", "120744.132000", "120744.135000", "120744.138000", "120744.142000", "120744.151000", "120744.155000", "120744.158000", "120744.162000", "120744.166000", "120744.170000", "120744.173000", "120744.177000", "120744.181000", "120824.083000", "120824.094000", "120824.097000", "120824.101000", "120824.104000", "120824.107000", "120824.111000", "120824.114000", "120824.118000", "120824.121000", "120824.124000", "120824.128000", "120824.131000", "120824.135000", "120824.138000", "120824.142000", "120824.145000", "120824.148000", "120824.152000", "120824.155000", "120824.158000", "120824.162000", "120824.165000", "120824.169000", "120824.172000", "120824.175000", "120824.179000", "120854.451000", "120854.460000", "120854.463000", "120854.466000", "120854.470000", "120854.473000", "120854.476000", "120854.480000", "120854.483000", "120854.487000", "120854.490000", "120854.493000", "120854.497000", "120854.500000", "120854.504000", "120854.507000", "120854.510000", "120854.514000", "120854.517000", "120854.520000", "120854.524000"],
