{
  "AcquisitionMatrixPE": 104,
  "AcquisitionNumber": 1,
  "AcquisitionTime": "11:45:53.507500",
  "BandwidthPerPixelPhaseEncode": 17.17,
  "BaseResolution": 104,
  "BodyPartExamined": "BRAIN",
  "CoilString": "HC1-7;NC1_2",
  "ConsistencyInfo": "N4_VE11C_LATEST_20160120",
  "ConversionSoftware": "dcm2niix",
  "ConversionSoftwareVersion": "v1.0.20190902",
  "DerivedVendorReportedEchoSpacing": 0.000560011,
  "DeviceSerialNumber": "167006",
  "DwellTime": 2.1e-06,
  "EchoTime": 0.037,
  "EchoTrainLength": 104,
  "EffectiveEchoSpacing": 0.000560011,
  "FlipAngle": 52,
  "HeudiconvVersion": "0.10.0",
  "ImageComments": "Unaliased_MB4_PE3_LB",
  "ImageOrientationPatientDICOM": [0.998587, 0.0471767, 0.0244579, -0.033301, 0.914233, -0.403818],
  "ImageType": [
    "ORIGINAL",
    "PRIMARY",
    "M",
    "MB",
    "ND",
    "MOSAIC"
],
  "ImagingFrequency": 123.259,
  "InPlanePhaseEncodingDirectionDICOM": "COL",
  "InstitutionAddress": "Chemin_Queen-Mary_4565_Montreal_District_CA_H3W_1W5",
  "InstitutionName": "IUGM",
  "InstitutionalDepartmentName": "Department",
  "MRAcquisitionType": "2D",
  "MagneticFieldStrength": 3,
  "Manufacturer": "Siemens",
  "ManufacturersModelName": "Prisma_fit",
  "Modality": "MR",
  "MultibandAccelerationFactor": 4,
  "PartialFourier": 1,
  "PatientPosition": "HFS",
  "PercentPhaseFOV": 100,
  "PhaseEncodingDirection": "j",
  "PhaseEncodingSteps": 104,
  "PhaseResolution": 1,
  "PixelBandwidth": 2290,
  "ProcedureStepDescription": "games_mario",
  "ProtocolName": "func_task-mario_run-04",
  "PulseSequenceDetails": "%CustomerSeq%_cmrr_mbep2d_bold",
  "ReceiveCoilActiveElements": "HC1-7;NC1,2",
  "ReceiveCoilName": "HeadNeck_64",
  "ReconMatrixPE": 104,
  "RepetitionTime": 1.49,
  "SAR": 0.0546752,
  "ScanOptions": "FS",
  "ScanningSequence": "EP",
  "SequenceName": "epfid2d1_104",
  "SequenceVariant": "SK_SS",
  "SeriesDescription": "func_task-mario_run-04",
  "SeriesNumber": 22,
  "ShimSetting": [627, -7143, -8863, 555, 69, 149, -42, -12],
  "SliceThickness": 2,
  "SliceTiming": [0, 0.785, 0.1, 0.8825, 0.1975, 0.98, 0.295, 1.08, 0.3925, 1.1775, 0.49, 1.275, 0.59, 1.3725, 0.6875, 0, 0.785, 0.1, 0.8825, 0.1975, 0.98, 0.295, 1.08, 0.3925, 1.1775, 0.49, 1.275, 0.59, 1.3725, 0.6875, 0, 0.785, 0.1, 0.8825, 0.1975, 0.98, 0.295, 1.08, 0.3925, 1.1775, 0.49, 1.275, 0.59, 1.3725, 0.6875, 0, 0.785, 0.1, 0.8825, 0.1975, 0.98, 0.295, 1.08, 0.3925, 1.1775, 0.49, 1.275, 0.59, 1.3725, 0.6875],
  "SoftwareVersions": "syngo_MR_E11",
  "SpacingBetweenSlices": 2,
  "StationName": "MRC35049",
  "TaskName": "mario",
  "TotalReadoutTime": 0.0576811,
  "TxRefAmp": 287.121,
  "WipMemBlock": "81661841-4784-48fd-ba6f-6bab68810c13||Sequence: R016 ve11c/master r/e634e98; Dec 19 2017 11:00:25 by eja",
  "dcmmeta_affine": [
    [-1.9971741437911987, -0.06660199910402298, 0.08282200992107391, 108.10338592529297],
    [-0.09435337036848068, 1.8284660577774048, -0.8048660755157471, -52.50009536743164],
    [0.04891576990485191, 0.8076361417770386, 1.8290245532989502, -73.37471008300781],
    [0.0, 0.0, 0.0, 1.0]
],
  "dcmmeta_reorient_transform": [
    [0.0, -1.0, 0.0, 103.0],
    [1.0, 0.0, 0.0, 0.0],
    [0.0, 0.0, 1.0, 0.0],
    [0.0, 0.0, 0.0, 1.0]
],
  "dcmmeta_shape": [104, 104, 60, 469],
  "dcmmeta_slice_dim": 2,
  "dcmmeta_version": 0.6,
  "global": {
    "const": {
      "AcquisitionMatrix": [104, 0, 0, 104],
      "AngioFlag": "N",
      "BitsAllocated": 16,
      "BitsStored": 16,
      "BodyPartExamined": "BRAIN",
      "Columns": 832,
      "EchoNumbers": 1,
      "EchoTime": 37.0,
      "EchoTrainLength": 104,
      "FlipAngle": 52.0,
      "HighBit": 15,
      "ImageOrientationPatient": [0.99858708789422, 0.04717668629289, 0.02445788546399, -0.0333009996986, 0.91423301882763, -0.4038180663422],
      "ImagePositionPatient": [-803.97164853057, -835.73817342736, 285.98602505918],
      "ImageType": [
        "ORIGINAL",
        "PRIMARY",
        "M",
        "MB",
        "ND",
        "MOSAIC"
],
      "ImagedNucleus": "1H",
      "ImagingFrequency": 123.258973,
      "InPlanePhaseEncodingDirection": "COL",
      "MRAcquisitionType": "2D",
      "MagneticFieldStrength": 3.0,
      "Manufacturer": "SIEMENS",
      "ManufacturerModelName": "Prisma_fit",
      "Modality": "MR",
      "NumberOfAverages": 1.0,
      "NumberOfPhaseEncodingSteps": 104,
      "PercentPhaseFieldOfView": 100.0,
      "PercentSampling": 100.0,
      "PerformedProcedureStepStartTime": "104035.410000",
      "PhotometricInterpretation": "MONOCHROME2",
      "PixelBandwidth": 2290.0,
      "PixelRepresentation": 0,
      "PixelSpacing": [2.0, 2.0],
      "ProtocolName": "func_task-mario_run-04",
      "RepetitionTime": 1490.0,
      "Rows": 832,
      "SAR": 0.05467518000057,
      "SamplesPerPixel": 1,
      "ScanOptions": "FS",
      "ScanningSequence": "EP",
      "SequenceName": "epfid2d1_104",
      "SequenceVariant": [
        "SK",
        "SS"
],
      "SeriesDescription": "func_task-mario_run-04",
      "SeriesNumber": 22,
      "SeriesTime": "114712.662000",
      "SliceLocation": -41.497632871322,
      "SliceThickness": 2.0,
      "SmallestImagePixelValue": 0,
      "SoftwareVersions": "syngo MR E11",
      "SpacingBetweenSlices": 1.9999999528038,
      "SpecificCharacterSet": "ISO_IR 100",
      "StudyID": "1",
      "StudyTime": "104035.356000",
      "TransmitCoilName": "Body",
      "VariableFlipAngleFlag": "N",
      "WindowCenterWidthExplanation": "Algo1",
      "dBdt": 0.0},
    "slices": {}
  },
  "time": {
    "samples": {
      "AcquisitionNumber": [1, 2, 3, 4, 5, 6, 7, 8, 9, 10, 11, 12, 13, 14, 15, 16, 17, 18, 19, 20, 21, 22, 23, 24, 25, 26, 27, 28, 29, 30, 31, 32, 33, 34, 35, 36, 37, 38, 39, 40, 41, 42, 43, 44, 45, 46, 47, 48, 49, 50, 51, 52, 53, 54, 55, 56, 57, 58, 59, 60, 61, 62, 63, 64, 65, 66, 67, 68, 69, 70, 71, 72, 73, 74, 75, 76, 77, 78, 79, 80, 81, 82, 83, 84, 85, 86, 87, 88, 89, 90, 91, 92, 93, 94, 95, 96, 97, 98, 99, 100, 101, 102, 103, 104, 105, 106, 107, 108, 109, 110, 111, 112, 113, 114, 115, 116, 117, 118, 119, 120, 121, 122, 123, 124, 125, 126, 127, 128, 129, 130, 131, 132, 133, 134, 135, 136, 137, 138, 139, 140, 141, 142, 143, 144, 145, 146, 147, 148, 149, 150, 151, 152, 153, 154, 155, 156, 157, 158, 159, 160, 161, 162, 163, 164, 165, 166, 167, 168, 169, 170, 171, 172, 173, 174, 175, 176, 177, 178, 179, 180, 181, 182, 183, 184, 185, 186, 187, 188, 189, 190, 191, 192, 193, 194, 195, 196, 197, 198, 199, 200, 201, 202, 203, 204, 205, 206, 207, 208, 209, 210, 211, 212, 213, 214, 215, 216, 217, 218, 219, 220, 221, 222, 223, 224, 225, 226, 227, 228, 229, 230, 231, 232, 233, 234, 235, 236, 237, 238, 239, 240, 241, 242, 243, 244, 245, 246, 247, 248, 249, 250, 251, 252, 253, 254, 255, 256, 257, 258, 259, 260, 261, 262, 263, 264, 265, 266, 267, 268, 269, 270, 271, 272, 273, 274, 275, 276, 277, 278, 279, 280, 281, 282, 283, 284, 285, 286, 287, 288, 289, 290, 291, 292, 293, 294, 295, 296, 297, 298, 299, 300, 301, 302, 303, 304, 305, 306, 307, 308, 309, 310, 311, 312, 313, 314, 315, 316, 317, 318, 319, 320, 321, 322, 323, 324, 325, 326, 327, 328, 329, 330, 331, 332, 333, 334, 335, 336, 337, 338, 339, 340, 341, 342, 343, 344, 345, 346, 347, 348, 349, 350, 351, 352, 353, 354, 355, 356, 357, 358, 359, 360, 361, 362, 363, 364, 365, 366, 367, 368, 369, 370, 371, 372, 373, 374, 375, 376, 377, 378, 379, 380, 381, 382, 383, 384, 385, 386, 387, 388, 389, 390, 391, 392, 393, 394, 395, 396, 397, 398, 399, 400, 401, 402, 403, 404, 405, 406, 407, 408, 409, 410, 411, 412, 413, 414, 415, 416, 417, 418, 419, 420, 421, 422, 423, 424, 425, 426, 427, 428, 429, 430, 431, 432, 433, 434, 435, 436, 437, 438, 439, 440, 441, 442, 443, 444, 445, 446, 447, 448, 449, 450, 451, 452, 453, 454, 455, 456, 457, 458, 459, 460, 461, 462, 463, 464, 465, 466, 467, 468, 469],
      "AcquisitionTime": ["114553.507500", "114554.997500", "114556.487500", "114557.977500", "114559.467500", "114600.957500", "114602.447500", "114603.937500", "114605.427500", "114606.917500", "114608.407500", "114609.897500", "114611.387500", "114612.877500", "114614.367500", "114615.857500", "114617.347500", "114618.837500", "114620.327500", "114621.817500", "114623.307500", "114624.797500", "114626.287500", "114627.777500", "114629.267500", "114630.757500", "114632.247500", "114633.737500", "114635.227500", "114636.717500", "114638.207500", "114639.697500", "114641.187500", "114642.677500", "114644.167500", "114645.657500", "114647.147500", "114648.637500", "114650.127500", "114651.617500", "114653.107500", "114654.597500", "114656.087500", "114657.577500", "114659.067500", "114700.557500", "114702.047500", "114703.537500", "114705.027500", "114706.517500", "114708.007500", "114709.497500", "114710.987500", "114712.477500", "114713.967500", "114715.457500", "114716.947500", "114718.437500", "114719.927500", "114721.417500", "114722.907500", "114724.397500", "114725.887500", "114727.377500", "114728.867500", "114730.357500", "114731.847500", "114733.337500", "114734.827500", "114736.317500", "114737.807500", "114739.297500", "114740.787500", "114742.277500", "114743.767500", "114745.257500", "114746.747500", "114748.237500", "114749.727500", "114751.217500", "114752.707500", "114754.197500", "114755.687500", "114757.177500", "114758.667500", "114800.157500", "114801.647500", "114803.137500", "114804.627500", "114806.117500", "114807.607500", "114809.097500", "114810.587500", "114812.077500", "114813.567500", "114815.057500", "114816.547500", "114818.037500", "114819.527500", "114821.017500", "114822.507500", "114823.997500", "114825.487500", "114826.977500", "114828.467500", "114829.957500", "114831.447500", "114832.937500", "114834.427500", "114835.917500", "114837.407500", "114838.897500", "114840.387500", "114841.877500", "114843.367500", "114844.857500", "114846.347500", "114847.837500", "114849.327500", "114850.817500", "114852.307500", "114853.797500", "114855.287500", "114856.777500", "114858.267500", "114859.757500", "114901.247500", "114902.737500", "114904.227500", "114905.717500", "114907.207500", "114908.697500", "114910.187500", "114911.677500", "114913.167500", "114914.657500", "114916.147500", "114917.637500", "114919.127500", "114920.617500", "114922.107500", "114923.597500", "114925.087500", "114926.577500", "114928.067500", "114929.557500", "114931.047500", "114932.537500", "114934.027500", "114935.517500", "114937.007500", "114938.497500", "114939.987500", "114941.477500", "114942.967500", "114944.457500", "114945.947500", "114947.437500", "114948.927500", "114950.417500", "114951.907500", "114953.397500", "114954.887500", "114956.377500", "114957.867500", "114959.357500", "115000.847500", "115002.337500", "115003.827500", "115005.317500", "115006.807500", "115008.297500", "115009.787500", "115011.277500", "115012.767500", "115014.257500", "115015.747500", "115017.237500", "115018.727500", "115020.217500", "115021.707500", "115023.197500", "115024.687500", "115026.177500", "115027.667500", "115029.157500", "115030.647500", "115032.137500", "115033.627500", "115035.117500", "115036.607500", "115038.097500", "115039.587500", "115041.077500", "115042.567500", "115044.057500", "115045.547500", "115047.037500", "115048.527500", "115050.017500", "115051.507500", "115052.997500", "115054.487500", "115055.977500", "115057.467500", "115058.957500", "115100.447500", "115101.937500", "115103.427500", "115104.917500", "115106.407500", "115107.897500", "115109.387500", "115110.877500", "115112.367500", "115113.857500", "115115.347500", "115116.837500", "115118.327500", "115119.817500", "115121.307500", "115122.797500", "115124.287500", "115125.777500", "115127.267500", "115128.757500", "115130.247500", "115131.737500", "115133.227500", "115134.717500", "115136.207500", "115137.697500", "115139.187500", "115140.677500", "115142.167500", "115143.657500", "115145.147500", "115146.637500", "115148.127500", "115149.617500", "115151.107500", "115152.597500", "115154.087500", "115155.577500", "115157.067500", "115158.557500", "115200.047500", "115201.537500", "115203.027500", "115204.517500", "115206.007500", "115207.497500", "115208.987500", "115210.477500", "115211.967500", "115213.457500", "115214.947500", "115216.437500", "115217.927500", "115219.417500", "115220.907500", "115222.397500", "115223.887500", "115225.377500", "115226.867500", "115228.357500", "115229.847500", "115231.337500", "115232.827500", "115234.317500", "115235.807500", "115237.297500", "115238.787500", "115240.277500", "115241.767500", "115243.257500", "115244.747500", "115246.237500", "115247.727500", "115249.217500", "115250.707500", "115252.197500", "115253.687500", "115255.177500", "115256.667500", "115258.157500", "115259.647500", "115301.137500", "115302.627500", "115304.117500", "115305.607500", "115307.097500", "115308.587500", "115310.077500", "115311.567500", "115313.057500", "115314.547500", "115316.037500", "115317.527500", "115319.017500", "115320.507500", "115321.997500", "115323.487500", "115324.977500", "115326.467500", "115327.957500", "115329.447500", "115330.937500", "115332.427500", "115333.917500", "115335.407500", "115336.897500", "115338.387500", "115339.877500", "115341.367500", "115342.857500", "115344.347500", "115345.837500", "115347.327500", "115348.817500", "115350.307500", "115351.797500", "115353.287500", "115354.777500", "115356.267500", "115357.757500", "115359.247500", "115400.737500", "115402.227500", "115403.717500", "115405.207500", "115406.697500", "115408.187500", "115409.677500", "115411.167500", "115412.657500", "115414.147500", "115415.637500", "115417.127500", "115418.617500", "115420.107500", "115421.597500", "115423.087500", "115424.577500", "115426.067500", "115427.557500", "115429.047500", "115430.537500", "115432.027500", "115433.517500", "115435.007500", "115436.497500", "115437.987500", "115439.477500", "115440.967500", "115442.457500", "115443.947500", "115445.437500", "115446.927500", "115448.417500", "115449.907500", "115451.397500", "115452.887500", "115454.377500", "115455.867500", "115457.357500", "115458.847500", "115500.337500", "115501.827500", "115503.317500", "115504.807500", "115506.297500", "115507.787500", "115509.277500", "115510.767500", "115512.257500", "115513.747500", "115515.237500", "115516.727500", "115518.217500", "115519.707500", "115521.197500", "115522.687500", "115524.177500", "115525.667500", "115527.157500", "115528.647500", "115530.137500", "115531.627500", "115533.117500", "115534.607500", "115536.097500", "115537.587500", "115539.077500", "115540.567500", "115542.057500", "115543.547500", "115545.037500", "115546.527500", "115548.017500", "115549.507500", "115550.997500", "115552.487500", "115553.977500", "115555.467500", "115556.957500", "115558.447500", "115559.937500", "115601.427500", "115602.917500", "115604.407500", "115605.897500", "115607.387500", "115608.877500", "115610.367500", "115611.857500", "115613.347500", "115614.837500", "115616.327500", "115617.817500", "115619.307500", "115620.797500", "115622.287500", "115623.777500", "115625.267500", "115626.757500", "115628.247500", "115629.737500", "115631.227500", "115632.717500", "115634.207500", "115635.697500", "115637.187500", "115638.677500", "115640.167500", "115641.657500", "115643.147500", "115644.637500", "115646.127500", "115647.617500", "115649.107500", "115650.597500", "115652.087500", "115653.577500", "115655.067500", "115656.557500", "115658.047500", "115659.537500", "115701.027500", "115702.517500", "115704.007500", "115705.497500", "115706.987500", "115708.477500", "115709.967500", "115711.457500", "115712.947500", "115714.437500", "115715.927500", "115717.417500", "115718.907500", "115720.397500", "115721.887500", "115723.377500", "115724.867500", "115726.357500", "115727.847500", "115729.337500", "115730.827500"],
      "ContentTime": ["114712.665000", "114712.669000", "114712.672000", "114712.675000", "114712.679000", "114712.682000", "114712.685000", "114712.689000", "114712.692000", "114712.696000", "114712.699000", "114712.702000", "114712.706000", "114712.709000", "114712.712000", "114712.716000", "114712.719000", "114712.722000", "114712.738000", "114712.741000", "114712.745000", "114712.748000", "114712.752000", "114712.755000", "114712.758000", "114712.761000", "114732.598000", "114732.602000", "114732.605000", "114732.609000", "114732.612000", "114732.618000", "114732.621000", "114732.625000", "114732.628000", "114732.631000", "114732.635000", "114732.638000", "114732.641000", "114732.645000", "114732.648000", "114732.652000", "114732.655000", "114732.659000", "114732.663000", "114732.666000", "114752.598000", "114752.602000", "114752.605000", "114752.609000", "114752.612000", "114752.616000", "114752.619000", "114752.622000", "114752.626000", "114752.629000", "114752.632000", "114752.636000", "114752.639000", "114752.642000", "114752.646000", "114752.649000", "114752.652000", "114752.656000", "114752.659000", "114752.662000", "114812.599000", "114812.603000", "114812.607000", "114812.611000", "114812.615000", "114812.618000", "114812.622000", "114812.626000", "114812.630000", "114812.633000", "114812.637000", "114812.641000", "114812.644000", "114812.648000", "114812.658000", "114812.662000", "114812.665000", "114812.669000", "114812.672000", "114812.675000", "114832.599000", "114832.603000", "114832.606000", "114832.610000", "114832.613000", "114832.616000", "114832.620000", "114832.623000", "114832.627000", "114832.630000", "114832.633000", "114832.637000", "114832.640000", "114832.644000", "114832.647000", "114832.650000", "114832.654000", "114832.657000", "114832.661000", "114832.679000", "114912.599000", "114912.603000", "114912.606000", "114912.610000", "114912.613000", "114912.617000", "114912.620000", "114912.624000", "114912.627000", "114912.630000", "114912.634000", "114912.637000", "114912.641000", "114912.644000", "114912.647000", "114912.651000", "114912.654000", "114912.657000", "114912.661000", "114912.664000", "114912.668000", "114912.671000", "114912.674000", "114912.678000", "114912.681000", "114912.684000", "114912.688000", "114952.598000", "114952.602000", "114952.606000", "114952.609000", "114952.612000", "114952.616000", "114952.619000", "114952.623000", "114952.626000", "114952.629000", "114952.633000", "114952.636000", "114952.640000", "114952.643000", "114952.646000", "114952.650000", "114952.653000", "114952.657000", "114952.660000", "114952.663000", "114952.667000", "114952.670000", "114952.673000", "114952.677000", "114952.680000", "114952.683000", "114952.687000", "115032.599000", "115032.603000", "115032.606000", "115032.610000", "115032.613000", "115032.617000", "115032.620000", "115032.623000", "115032.627000", "115032.630000", "115032.634000", "115032.637000", "115032.640000", "115032.644000", "115032.648000", "115032.651000", "115032.655000", "115032.658000", "115032.662000", "115032.665000", "115032.668000", "115032.672000", "115032.675000", "115032.678000", "115032.682000", "115032.685000", "115112.599000", "115112.603000", "115112.607000", "115112.610000", "115112.613000", "115112.617000", "115112.620000", "115112.624000", "115112.627000", "115112.630000", "115112.634000", "115112.637000", "115112.640000", "115112.644000", "115112.647000", "115112.651000", "115112.663000", "115112.667000", "115112.670000", "115112.673000", "115112.677000", "115112.680000", "115112.684000", "115112.687000", "115112.690000", "115112.694000", "115112.697000", "115152.598000", "115152.602000", "115152.606000", "115152.609000", "115152.612000", "115152.616000", "115152.619000", "115152.622000", "115152.626000", "115152.629000", "115152.633000", "115152.636000", "115152.639000", "115152.643000", "115152.646000", "115152.650000", "115152.653000", "115152.657000", "115152.661000", "115152.664000", "115152.667000", "115152.671000", "115152.674000", "115152.678000", "115152.681000", "115152.685000", "115152.688000", "115232.598000", "115232.602000", "115232.606000", "115232.609000", "115232.612000", "115232.616000", "115232.619000", "115232.622000", "115232.626000", "115232.629000", "115232.633000", "115232.636000", "115232.639000", "115232.643000", "115232.646000", "115232.650000", "115232.653000", "115232.656000", "115232.660000", "115232.663000", "115232.666000", "115232.670000", "115232.673000", "115232.677000", "115232.680000", "115232.683000", "115232.687000", "115312.599000", "115312.603000", "115312.607000", "115312.610000", "115312.613000", "115312.617000", "115312.620000", "115312.624000", "115312.627000", "115312.631000", "115312.634000", "115312.637000", "115312.641000", "115312.644000", "115312.648000", "115312.651000", "115312.654000", "115312.658000", "115312.661000", "115312.664000", "115312.668000", "115312.671000", "115312.675000", "115312.678000", "115312.682000", "115312.685000", "115312.688000", "115352.599000", "115352.603000", "115352.607000", "115352.610000", "115352.613000", "115352.617000", "115352.620000", "115352.623000", "115352.627000", "115352.630000", "115352.634000", "115352.637000", "115352.641000", "115352.644000", "115352.647000", "115352.651000", "115352.654000", "115352.658000", "115352.661000", "115352.664000", "115352.668000", "115352.671000", "115352.674000", "115352.678000", "115352.681000", "115352.685000", "115352.688000", "115432.598000", "115432.602000", "115432.606000", "115432.609000", "115432.613000", "115432.616000", "115432.620000", "115432.623000", "115432.626000", "115432.630000", "115432.633000", "115432.637000", "115432.642000", "115432.646000", "115432.650000", "115432.654000", "115432.659000", "115432.663000", "115432.667000", "115432.671000", "115432.675000", "115432.678000", "115432.682000", "115432.685000", "115432.688000", "115432.692000", "115512.599000", "115512.603000", "115512.606000", "115512.610000", "115512.613000", "115512.617000", "115512.620000", "115512.623000", "115512.627000", "115512.630000", "115512.633000", "115512.637000", "115512.640000", "115512.645000", "115512.649000", "115512.652000", "115512.656000", "115512.659000", "115512.662000", "115512.666000", "115512.669000", "115512.673000", "115512.676000", "115512.679000", "115512.683000", "115512.686000", "115512.690000", "115552.599000", "115552.603000", "115552.607000", "115552.610000", "115552.613000", "115552.617000", "115552.620000", "115552.624000", "115552.627000", "115552.630000", "115552.651000", "115552.654000", "115552.658000", "115552.661000", "115552.665000", "115552.668000", "115552.671000", "115552.675000", "115552.678000", "115552.682000", "115552.685000", "115552.688000", "115552.692000", "115552.695000", "115552.698000", "115552.702000", "115552.705000", "115632.598000", "115632.602000", "115632.605000", "115632.609000", "115632.612000", "115632.616000", "115632.619000", "115632.622000", "115632.626000", "115632.629000", "115632.633000", "115632.636000", "115632.639000", "115632.643000", "115632.646000", "115632.649000", "115632.653000", "115632.656000", "115632.660000", "115632.663000", "115632.666000", "115632.670000", "115632.673000", "115632.677000", "115632.680000", "115632.684000", "115632.687000", "115712.599000", "115712.602000", "115712.606000", "115712.609000", "115712.612000", "115712.616000", "115712.619000", "115712.623000", "115712.626000", "115712.629000", "115712.633000", "115712.636000", "115712.640000", "115712.643000", "115712.646000", "115712.650000", "115712.653000", "115712.657000", "115712.660000", "115712.664000", "115712.667000", "115712.670000", "115712.674000", "115712.677000", "115712.680000", "115712.684000", "115712.687000", "115733.855000", "115733.860000", "115733.864000", "115733.869000", "115733.872000", "115733.876000", "115733.879000", "115733.883000", "115733.886000", "115733.890000", "115733.893000", "115733.896000", "115733.900000", "115733.903000"],
