{
  "AcquisitionMatrixPE": 104,
  "AcquisitionNumber": 1,
  "AcquisitionTime": "18:03:59.477500",
  "BandwidthPerPixelPhaseEncode": 17.17,
  "BaseResolution": 104,
  "BodyPartExamined": "BRAIN",
  "CoilCombinationMethod": "Sum of Squares",
  "ConsistencyInfo": "N4_VE11C_LATEST_20160120",
  "ConversionSoftware": "dcm2niix",
  "ConversionSoftwareVersion": "v1.0.20211006",
  "DerivedVendorReportedEchoSpacing": 0.000560011,
  "DeviceSerialNumber": "167006",
  "DwellTime": 2.1e-06,
  "EchoTime": 0.037,
  "EchoTime1": 0.037,
  "EchoTime2": 0.001,
  "EchoTrainLength": 104,
  "EffectiveEchoSpacing": 0.000560011,
  "FlipAngle": 52,
  "HeudiconvVersion": "0.10.0",
  "ImageComments": "Unaliased MB4/PE3/LB",
  "ImageOrientationPatientDICOM": [0.993455, 0.112751, 0.0182829, -0.09916, 0.930766, -0.351911],
  "ImageOrientationText": "Tra>Cor(-20.4)>Sag(3.3)",
  "ImageType": [
    "ORIGINAL",
    "PRIMARY",
    "P",
    "MB",
    "ND",
    "MOSAIC",
    "PHASE"
],
  "ImagingFrequency": 123.259,
  "InPlanePhaseEncodingDirectionDICOM": "COL",
  "InstitutionAddress": "Chemin Queen-Mary 4565,Montreal,District,CA,H3W 1W5",
  "InstitutionName": "IUGM",
  "InstitutionalDepartmentName": "Department",
  "MRAcquisitionType": "2D",
  "MagneticFieldStrength": 3,
  "Manufacturer": "Siemens",
  "ManufacturersModelName": "Prisma_fit",
  "MatrixCoilMode": "SENSE",
  "Modality": "MR",
  "MultibandAccelerationFactor": 4,
  "PartialFourier": 1,
  "PatientPosition": "HFS",
  "PercentPhaseFOV": 100,
  "PercentSampling": 100,
  "PhaseEncodingDirection": "j",
  "PhaseEncodingSteps": 104,
  "PhaseResolution": 1,
  "PixelBandwidth": 2290,
  "ProcedureStepDescription": "games^mario",
  "ProtocolName": "func_task-mario_run-01",
  "PulseSequenceDetails": "%CustomerSeq%\\cmrr_mbep2d_bold",
  "ReceiveCoilActiveElements": "HC1-7;NC1,2",
  "ReceiveCoilName": "HeadNeck_64",
  "ReconMatrixPE": 104,
  "RepetitionTime": 1.49,
  "SAR": 0.0375362,
  "ScanOptions": "FS",
  "ScanningSequence": "EP",
  "SequenceName": "epfid2d1_104",
  "SequenceVariant": "SK\\SS",
  "SeriesDescription": "func_task-mario_run-01",
  "SeriesNumber": 11,
  "ShimSetting": [629, -7210, -8810, 662, 73, -39, -9, -12],
  "SliceThickness": 2,
  "SliceTiming": [0, 0.785, 0.1, 0.8825, 0.1975, 0.98, 0.295, 1.0775, 0.3925, 1.1775, 0.49, 1.275, 0.59, 1.3725, 0.6875, 0, 0.785, 0.1, 0.8825, 0.1975, 0.98, 0.295, 1.0775, 0.3925, 1.1775, 0.49, 1.275, 0.59, 1.3725, 0.6875, 0, 0.785, 0.1, 0.8825, 0.1975, 0.98, 0.295, 1.0775, 0.3925, 1.1775, 0.49, 1.275, 0.59, 1.3725, 0.6875, 0, 0.785, 0.1, 0.8825, 0.1975, 0.98, 0.295, 1.0775, 0.3925, 1.1775, 0.49, 1.275, 0.59, 1.3725, 0.6875],
  "SoftwareVersions": "syngo MR E11",
  "SpacingBetweenSlices": 2,
  "StationName": "MRC35049",
  "TaskName": "mario",
  "TotalReadoutTime": 0.0576811,
  "TxRefAmp": 245.198,
  "WipMemBlock": "bbdcff7d-19b8-4ea2-990e-f206745c1e02||Sequence: R016 ve11c/master r/e634e98; Dec 19 2017 11:00:25 by eja",
  "dcmmeta_affine": [
    [-1.986910104751587, -0.1983199566602707, 0.1133909821510315, 112.42594909667969],
    [-0.22550223767757416, 1.8615325689315796, -0.6955896615982056, -47.42350769042969],
    [0.03656585142016411, 0.7038220763206482, 1.8717097043991089, -57.672786712646484],
    [0.0, 0.0, 0.0, 1.0]
],
  "dcmmeta_reorient_transform": [
    [0.0, -1.0, 0.0, 103.0],
    [1.0, 0.0, 0.0, 0.0],
    [0.0, 0.0, 1.0, 0.0],
    [0.0, 0.0, 0.0, 1.0]
],
  "dcmmeta_shape": [104, 104, 60, 472],
  "dcmmeta_slice_dim": 2,
  "dcmmeta_version": 0.6,
  "global": {
    "const": {
      "AcquisitionMatrix": [104, 0, 0, 104],
      "AngioFlag": "N",
      "BitsAllocated": 16,
      "BitsStored": 16,
      "BodyPartExamined": "BRAIN",
      "Columns": 832,
      "EchoNumbers": 1,
      "EchoTime": 37.0,
      "EchoTrainLength": 104,
      "FlipAngle": 52.0,
      "HighBit": 15,
      "ImageOrientationPatient": [0.99345504197543, 0.11275111630357, 0.01828292498207, -0.0991599757698, 0.93076631275014, -0.351911026049],
      "ImagePositionPatient": [-743.04580274601, -903.99504085916, 257.70214194678],
      "ImageType": [
        "ORIGINAL",
        "PRIMARY",
        "P",
        "MB",
        "ND",
        "MOSAIC"
],
      "ImagedNucleus": "1H",
      "ImagingFrequency": 123.258869,
      "InPlanePhaseEncodingDirection": "COL",
      "LargestImagePixelValue": 4095,
      "MRAcquisitionType": "2D",
      "MagneticFieldStrength": 3.0,
      "Manufacturer": "SIEMENS",
      "ManufacturerModelName": "Prisma_fit",
      "Modality": "MR",
      "NumberOfAverages": 1.0,
      "NumberOfPhaseEncodingSteps": 104,
      "PercentPhaseFieldOfView": 100.0,
      "PercentSampling": 100.0,
      "PerformedProcedureStepStartTime": "175355.227000",
      "PhotometricInterpretation": "MONOCHROME2",
      "PixelBandwidth": 2290.0,
      "PixelRepresentation": 0,
      "PixelSpacing": [2.0, 2.0],
      "ProtocolName": "func_task-mario_run-01",
      "RepetitionTime": 1490.0,
      "RescaleIntercept": -4096.0,
      "RescaleSlope": 2.0,
      "RescaleType": "US",
      "Rows": 832,
      "SAR": 0.03753617344727,
      "SamplesPerPixel": 1,
      "ScanOptions": "FS",
      "ScanningSequence": "EP",
      "SequenceName": "epfid2d1_104",
      "SequenceVariant": [
        "SK",
        "SS"
],
      "SeriesDescription": "func_task-mario_run-01",
      "SeriesNumber": 11,
      "SeriesTime": "180520.239000",
      "SliceLocation": -31.105663145462,
      "SliceThickness": 2.0,
      "SmallestImagePixelValue": 0,
      "SoftwareVersions": "syngo MR E11",
      "SpacingBetweenSlices": 1.999999954835,
      "SpecificCharacterSet": "ISO_IR 100",
      "StudyID": "1",
      "StudyTime": "175355.157000",
      "TransmitCoilName": "Body",
      "VariableFlipAngleFlag": "N",
      "WindowCenterWidthExplanation": "Algo1",
      "dBdt": 0.0},
    "slices": {}
  },
  "time": {
    "samples": {
      "AcquisitionNumber": [1, 2, 3, 4, 5, 6, 7, 8, 9, 10, 11, 12, 13, 14, 15, 16, 17, 18, 19, 20, 21, 22, 23, 24, 25, 26, 27, 28, 29, 30, 31, 32, 33, 34, 35, 36, 37, 38, 39, 40, 41, 42, 43, 44, 45, 46, 47, 48, 49, 50, 51, 52, 53, 54, 55, 56, 57, 58, 59, 60, 61, 62, 63, 64, 65, 66, 67, 68, 69, 70, 71, 72, 73, 74, 75, 76, 77, 78, 79, 80, 81, 82, 83, 84, 85, 86, 87, 88, 89, 90, 91, 92, 93, 94, 95, 96, 97, 98, 99, 100, 101, 102, 103, 104, 105, 106, 107, 108, 109, 110, 111, 112, 113, 114, 115, 116, 117, 118, 119, 120, 121, 122, 123, 124, 125, 126, 127, 128, 129, 130, 131, 132, 133, 134, 135, 136, 137, 138, 139, 140, 141, 142, 143, 144, 145, 146, 147, 148, 149, 150, 151, 152, 153, 154, 155, 156, 157, 158, 159, 160, 161, 162, 163, 164, 165, 166, 167, 168, 169, 170, 171, 172, 173, 174, 175, 176, 177, 178, 179, 180, 181, 182, 183, 184, 185, 186, 187, 188, 189, 190, 191, 192, 193, 194, 195, 196, 197, 198, 199, 200, 201, 202, 203, 204, 205, 206, 207, 208, 209, 210, 211, 212, 213, 214, 215, 216, 217, 218, 219, 220, 221, 222, 223, 224, 225, 226, 227, 228, 229, 230, 231, 232, 233, 234, 235, 236, 237, 238, 239, 240, 241, 242, 243, 244, 245, 246, 247, 248, 249, 250, 251, 252, 253, 254, 255, 256, 257, 258, 259, 260, 261, 262, 263, 264, 265, 266, 267, 268, 269, 270, 271, 272, 273, 274, 275, 276, 277, 278, 279, 280, 281, 282, 283, 284, 285, 286, 287, 288, 289, 290, 291, 292, 293, 294, 295, 296, 297, 298, 299, 300, 301, 302, 303, 304, 305, 306, 307, 308, 309, 310, 311, 312, 313, 314, 315, 316, 317, 318, 319, 320, 321, 322, 323, 324, 325, 326, 327, 328, 329, 330, 331, 332, 333, 334, 335, 336, 337, 338, 339, 340, 341, 342, 343, 344, 345, 346, 347, 348, 349, 350, 351, 352, 353, 354, 355, 356, 357, 358, 359, 360, 361, 362, 363, 364, 365, 366, 367, 368, 369, 370, 371, 372, 373, 374, 375, 376, 377, 378, 379, 380, 381, 382, 383, 384, 385, 386, 387, 388, 389, 390, 391, 392, 393, 394, 395, 396, 397, 398, 399, 400, 401, 402, 403, 404, 405, 406, 407, 408, 409, 410, 411, 412, 413, 414, 415, 416, 417, 418, 419, 420, 421, 422, 423, 424, 425, 426, 427, 428, 429, 430, 431, 432, 433, 434, 435, 436, 437, 438, 439, 440, 441, 442, 443, 444, 445, 446, 447, 448, 449, 450, 451, 452, 453, 454, 455, 456, 457, 458, 459, 460, 461, 462, 463, 464, 465, 466, 467, 468, 469, 470, 471, 472],
      "AcquisitionTime": ["180359.477500", "180400.967500", "180402.457500", "180403.947500", "180405.437500", "180406.927500", "180408.417500", "180409.907500", "180411.397500", "180412.887500", "180414.377500", "180415.867500", "180417.357500", "180418.847500", "180420.337500", "180421.827500", "180423.317500", "180424.807500", "180426.297500", "180427.787500", "180429.277500", "180430.767500", "180432.257500", "180433.747500", "180435.237500", "180436.727500", "180438.217500", "180439.707500", "180441.197500", "180442.687500", "180444.177500", "180445.667500", "180447.157500", "180448.647500", "180450.137500", "180451.627500", "180453.117500", "180454.607500", "180456.097500", "180457.587500", "180459.077500", "180500.567500", "180502.057500", "180503.547500", "180505.037500", "180506.527500", "180508.017500", "180509.507500", "180510.997500", "180512.487500", "180513.977500", "180515.467500", "180516.957500", "180518.447500", "180519.937500", "180521.427500", "180522.917500", "180524.407500", "180525.897500", "180527.387500", "180528.877500", "180530.367500", "180531.857500", "180533.347500", "180534.837500", "180536.327500", "180537.817500", "180539.307500", "180540.797500", "180542.287500", "180543.777500", "180545.267500", "180546.757500", "180548.247500", "180549.737500", "180551.227500", "180552.717500", "180554.207500", "180555.697500", "180557.187500", "180558.677500", "180600.167500", "180601.657500", "180603.147500", "180604.637500", "180606.127500", "180607.617500", "180609.107500", "180610.597500", "180612.087500", "180613.577500", "180615.067500", "180616.557500", "180618.047500", "180619.537500", "180621.027500", "180622.517500", "180624.007500", "180625.497500", "180626.987500", "180628.477500", "180629.967500", "180631.457500", "180632.947500", "180634.437500", "180635.927500", "180637.417500", "180638.907500", "180640.397500", "180641.887500", "180643.377500", "180644.867500", "180646.357500", "180647.847500", "180649.337500", "180650.827500", "180652.317500", "180653.807500", "180655.297500", "180656.787500", "180658.277500", "180659.767500", "180701.257500", "180702.747500", "180704.237500", "180705.727500", "180707.217500", "180708.707500", "180710.197500", "180711.687500", "180713.177500", "180714.667500", "180716.157500", "180717.647500", "180719.137500", "180720.627500", "180722.117500", "180723.607500", "180725.097500", "180726.587500", "180728.077500", "180729.567500", "180731.057500", "180732.547500", "180734.037500", "180735.527500", "180737.017500", "180738.507500", "180739.997500", "180741.487500", "180742.977500", "180744.467500", "180745.957500", "180747.447500", "180748.937500", "180750.427500", "180751.917500", "180753.407500", "180754.897500", "180756.387500", "180757.877500", "180759.367500", "180800.857500", "180802.347500", "180803.837500", "180805.327500", "180806.817500", "180808.307500", "180809.797500", "180811.287500", "180812.777500", "180814.267500", "180815.757500", "180817.247500", "180818.737500", "180820.227500", "180821.717500", "180823.207500", "180824.697500", "180826.187500", "180827.677500", "180829.167500", "180830.657500", "180832.147500", "180833.637500", "180835.127500", "180836.617500", "180838.107500", "180839.597500", "180841.087500", "180842.577500", "180844.067500", "180845.557500", "180847.047500", "180848.537500", "180850.027500", "180851.517500", "180853.007500", "180854.497500", "180855.987500", "180857.477500", "180858.967500", "180900.457500", "180901.947500", "180903.437500", "180904.927500", "180906.417500", "180907.907500", "180909.397500", "180910.887500", "180912.377500", "180913.867500", "180915.357500", "180916.847500", "180918.337500", "180919.827500", "180921.317500", "180922.807500", "180924.297500", "180925.787500", "180927.277500", "180928.767500", "180930.257500", "180931.747500", "180933.237500", "180934.727500", "180936.217500", "180937.707500", "180939.197500", "180940.687500", "180942.177500", "180943.667500", "180945.157500", "180946.647500", "180948.137500", "180949.627500", "180951.117500", "180952.607500", "180954.097500", "180955.587500", "180957.077500", "180958.567500", "181000.057500", "181001.547500", "181003.037500", "181004.527500", "181006.017500", "181007.507500", "181008.997500", "181010.487500", "181011.977500", "181013.467500", "181014.957500", "181016.447500", "181017.937500", "181019.427500", "181020.917500", "181022.407500", "181023.897500", "181025.387500", "181026.877500", "181028.367500", "181029.857500", "181031.347500", "181032.837500", "181034.327500", "181035.817500", "181037.307500", "181038.797500", "181040.287500", "181041.777500", "181043.267500", "181044.757500", "181046.247500", "181047.737500", "181049.227500", "181050.717500", "181052.207500", "181053.697500", "181055.187500", "181056.677500", "181058.167500", "181059.657500", "181101.147500", "181102.637500", "181104.127500", "181105.617500", "181107.107500", "181108.597500", "181110.087500", "181111.577500", "181113.067500", "181114.557500", "181116.047500", "181117.537500", "181119.027500", "181120.517500", "181122.007500", "181123.497500", "181124.987500", "181126.477500", "181127.967500", "181129.457500", "181130.947500", "181132.437500", "181133.927500", "181135.417500", "181136.907500", "181138.397500", "181139.887500", "181141.377500", "181142.867500", "181144.357500", "181145.847500", "181147.337500", "181148.827500", "181150.317500", "181151.807500", "181153.297500", "181154.787500", "181156.277500", "181157.767500", "181159.257500", "181200.747500", "181202.237500", "181203.727500", "181205.217500", "181206.707500", "181208.197500", "181209.687500", "181211.177500", "181212.667500", "181214.157500", "181215.647500", "181217.137500", "181218.627500", "181220.117500", "181221.607500", "181223.097500", "181224.587500", "181226.077500", "181227.567500", "181229.057500", "181230.547500", "181232.037500", "181233.527500", "181235.017500", "181236.507500", "181237.997500", "181239.487500", "181240.977500", "181242.467500", "181243.957500", "181245.447500", "181246.937500", "181248.427500", "181249.917500", "181251.407500", "181252.897500", "181254.387500", "181255.877500", "181257.367500", "181258.857500", "181300.347500", "181301.837500", "181303.327500", "181304.817500", "181306.307500", "181307.797500", "181309.287500", "181310.777500", "181312.267500", "181313.757500", "181315.247500", "181316.737500", "181318.227500", "181319.717500", "181321.207500", "181322.697500", "181324.187500", "181325.677500", "181327.167500", "181328.657500", "181330.147500", "181331.637500", "181333.127500", "181334.617500", "181336.107500", "181337.597500", "181339.087500", "181340.577500", "181342.067500", "181343.557500", "181345.047500", "181346.537500", "181348.027500", "181349.517500", "181351.007500", "181352.497500", "181353.987500", "181355.477500", "181356.967500", "181358.457500", "181359.947500", "181401.437500", "181402.927500", "181404.417500", "181405.907500", "181407.397500", "181408.887500", "181410.377500", "181411.867500", "181413.357500", "181414.847500", "181416.337500", "181417.827500", "181419.317500", "181420.807500", "181422.297500", "181423.787500", "181425.277500", "181426.767500", "181428.257500", "181429.747500", "181431.237500", "181432.727500", "181434.217500", "181435.707500", "181437.197500", "181438.687500", "181440.177500", "181441.667500", "181443.157500", "181444.647500", "181446.137500", "181447.627500", "181449.117500", "181450.607500", "181452.097500", "181453.587500", "181455.077500", "181456.567500", "181458.057500", "181459.547500", "181501.037500", "181502.527500", "181504.017500", "181505.507500", "181506.997500", "181508.487500", "181509.977500", "181511.467500", "181512.957500", "181514.447500", "181515.937500", "181517.427500", "181518.917500", "181520.407500", "181521.897500", "181523.387500", "181524.877500", "181526.367500", "181527.857500", "181529.347500", "181530.837500", "181532.327500", "181533.817500", "181535.307500", "181536.797500", "181538.287500", "181539.777500", "181541.267500"],
      "ContentTime": ["180520.241000", "180520.244000", "180520.246000", "180520.249000", "180520.252000", "180520.254000", "180520.257000", "180520.259000", "180520.262000", "180520.264000", "180520.267000", "180520.269000", "180520.272000", "180520.274000", "180520.277000", "180520.279000", "180520.282000", "180520.285000", "180520.287000", "180520.290000", "180520.292000", "180520.295000", "180520.297000", "180520.300000", "180520.303000", "180520.309000", "180520.311000", "180540.175000", "180540.178000", "180540.180000", "180540.183000", "180540.185000", "180540.188000", "180540.190000", "180540.193000", "180540.196000", "180540.198000", "180540.201000", "180540.203000", "180540.206000", "180540.208000", "180540.211000", "180540.213000", "180540.216000", "180540.219000", "180540.221000", "180540.224000", "180600.174000", "180600.177000", "180600.179000", "180600.182000", "180600.185000", "180600.187000", "180600.190000", "180600.192000", "180600.205000", "180600.207000", "180600.210000", "180600.212000", "180600.215000", "180600.217000", "180600.220000", "180600.222000", "180600.225000", "180600.228000", "180600.230000", "180600.233000", "180620.173000", "180620.175000", "180620.178000", "180620.189000", "180620.192000", "180620.195000", "180620.197000", "180620.200000", "180620.203000", "180620.205000", "180620.208000", "180620.210000", "180620.213000", "180620.215000", "180620.218000", "180620.220000", "180620.223000", "180620.226000", "180620.228000", "180620.231000", "180640.177000", "180640.180000", "180640.183000", "180640.186000", "180640.189000", "180640.191000", "180640.194000", "180640.196000", "180640.199000", "180640.202000", "180640.204000", "180640.207000", "180640.209000", "180640.212000", "180640.214000", "180640.217000", "180640.220000", "180640.222000", "180640.225000", "180640.227000", "180720.220000", "180720.223000", "180720.226000", "180720.228000", "180720.231000", "180720.233000", "180720.236000", "180720.238000", "180720.241000", "180720.244000", "180720.246000", "180720.249000", "180720.251000", "180720.254000", "180720.257000", "180720.259000", "180720.262000", "180720.265000", "180720.267000", "180720.270000", "180720.272000", "180720.275000", "180720.278000", "180720.280000", "180720.283000", "180720.285000", "180720.288000", "180800.210000", "180800.213000", "180800.216000", "180800.218000", "180800.221000", "180800.224000", "180800.226000", "180800.229000", "180800.231000", "180800.234000", "180800.236000", "180800.239000", "180800.242000", "180800.244000", "180800.247000", "180800.249000", "180800.252000", "180800.254000", "180800.257000", "180800.260000", "180800.262000", "180800.265000", "180800.267000", "180800.270000", "180800.273000", "180800.275000", "180800.278000", "180840.195000", "180840.198000", "180840.200000", "180840.203000", "180840.205000", "180840.208000", "180840.211000", "180840.213000", "180840.216000", "180840.219000", "180840.221000", "180840.224000", "180840.226000", "180840.229000", "180840.231000", "180840.234000", "180840.237000", "180840.239000", "180840.242000", "180840.244000", "180840.247000", "180840.250000", "180840.252000", "180840.255000", "180840.257000", "180840.260000", "180840.262000", "180920.204000", "180920.206000", "180920.209000", "180920.212000", "180920.214000", "180920.217000", "180920.219000", "180920.222000", "180920.225000", "180920.227000", "180920.230000", "180920.232000", "180920.235000", "180920.237000", "180920.240000", "180920.242000", "180920.245000", "180920.248000", "180920.250000", "180920.253000", "180920.255000", "180920.258000", "180920.261000", "180920.263000", "180920.266000", "180920.268000", "181000.187000", "181000.190000", "181000.193000", "181000.196000", "181000.198000", "181000.201000", "181000.203000", "181000.206000", "181000.208000", "181000.211000", "181000.213000", "181000.216000", "181000.219000", "181000.221000", "181000.224000", "181000.227000", "181000.229000", "181000.232000", "181000.234000", "181000.237000", "181000.239000", "181000.242000", "181000.245000", "181000.247000", "181000.250000", "181000.252000", "181000.255000", "181020.162000", "181020.165000", "181020.177000", "181020.180000", "181020.182000", "181020.185000", "181020.188000", "181020.190000", "181020.193000", "181020.195000", "181020.198000", "181020.200000", "181020.203000", "181020.205000", "181100.205000", "181100.207000", "181100.210000", "181100.213000", "181100.215000", "181100.226000", "181100.229000", "181100.231000", "181100.234000", "181100.236000", "181100.239000", "181100.242000", "181100.244000", "181100.247000", "181100.249000", "181100.252000", "181100.255000", "181100.257000", "181100.260000", "181100.262000", "181100.265000", "181100.268000", "181100.270000", "181100.273000", "181100.275000", "181100.278000", "181100.280000", "181140.202000", "181140.205000", "181140.207000", "181140.210000", "181140.213000", "181140.215000", "181140.218000", "181140.220000", "181140.223000", "181140.226000", "181140.229000", "181140.231000", "181140.235000", "181140.238000", "181140.241000", "181140.245000", "181140.248000", "181140.251000", "181140.254000", "181140.257000", "181140.259000", "181140.262000", "181140.265000", "181140.267000", "181140.270000", "181140.272000", "181220.199000", "181220.201000", "181220.204000", "181220.207000", "181220.217000", "181220.219000", "181220.222000", "181220.225000", "181220.227000", "181220.230000", "181220.232000", "181220.235000", "181220.237000", "181220.240000", "181220.242000", "181220.245000", "181220.248000", "181220.250000", "181220.253000", "181220.256000", "181220.258000", "181220.261000", "181220.263000", "181220.266000", "181220.269000", "181220.271000", "181220.274000", "181300.640000", "181300.643000", "181300.645000", "181300.648000", "181300.650000", "181300.653000", "181300.656000", "181300.658000", "181300.661000", "181300.663000", "181300.666000", "181300.668000", "181300.671000", "181300.675000", "181300.678000", "181300.680000", "181300.683000", "181300.687000", "181300.690000", "181300.694000", "181300.697000", "181300.700000", "181300.703000", "181300.706000", "181300.709000", "181300.711000", "181300.714000", "181340.197000", "181340.200000", "181340.203000", "181340.205000", "181340.208000", "181340.210000", "181340.213000", "181340.215000", "181340.218000", "181340.220000", "181340.223000", "181340.226000", "181340.228000", "181340.231000", "181340.233000", "181340.236000", "181340.238000", "181340.241000", "181340.243000", "181340.246000", "181340.248000", "181340.251000", "181340.254000", "181340.256000", "181340.259000", "181340.261000", "181340.264000", "181420.189000", "181420.192000", "181420.195000", "181420.197000", "181420.200000", "181420.202000", "181420.205000", "181420.207000", "181420.210000", "181420.212000", "181420.215000", "181420.218000", "181420.220000", "181420.223000", "181420.225000", "181420.228000", "181420.230000", "181420.234000", "181420.236000", "181420.239000", "181420.241000", "181420.244000", "181420.246000", "181420.249000", "181420.252000", "181420.254000", "181420.257000", "181500.220000", "181500.223000", "181500.226000", "181500.228000", "181500.231000", "181500.233000", "181500.236000", "181500.239000", "181500.241000", "181500.244000", "181500.246000", "181500.249000", "181500.252000", "181500.254000", "181500.257000", "181500.259000", "181500.262000", "181500.265000", "181500.267000", "181500.270000", "181500.272000", "181500.275000", "181500.277000", "181500.280000", "181500.282000", "181500.285000", "181500.287000", "181540.228000", "181540.231000", "181540.238000", "181540.240000", "181540.243000", "181540.246000", "181540.248000", "181540.251000", "181540.253000", "181540.256000", "181540.258000", "181540.261000", "181540.264000", "181540.266000", "181540.269000", "181540.271000", "181540.274000", "181540.276000", "181540.279000", "181540.282000", "181540.284000", "181540.287000", "181540.289000", "181540.292000", "181540.295000", "181540.297000", "181544.535000", "181544.538000", "181544.541000"],
