{
  "AcquisitionMatrixPE": 104,
  "AcquisitionNumber": 1,
  "AcquisitionTime": "18:16:27.022500",
  "BandwidthPerPixelPhaseEncode": 17.17,
  "BaseResolution": 104,
  "BodyPartExamined": "BRAIN",
  "CoilCombinationMethod": "Sum of Squares",
  "ConsistencyInfo": "N4_VE11C_LATEST_20160120",
  "ConversionSoftware": "dcm2niix",
  "ConversionSoftwareVersion": "v1.0.20211006",
  "DerivedVendorReportedEchoSpacing": 0.000560011,
  "DeviceSerialNumber": "167006",
  "DwellTime": 2.1e-06,
  "EchoTime": 0.037,
  "EchoTime1": 0.037,
  "EchoTime2": 0.001,
  "EchoTrainLength": 104,
  "EffectiveEchoSpacing": 0.000560011,
  "FlipAngle": 52,
  "HeudiconvVersion": "0.10.0",
  "ImageComments": "Unaliased MB4/PE3/LB",
  "ImageOrientationPatientDICOM": [0.993455, 0.112751, 0.0182829, -0.09916, 0.930766, -0.351911],
  "ImageOrientationText": "Tra>Cor(-20.4)>Sag(3.3)",
  "ImageType": [
    "ORIGINAL",
    "PRIMARY",
    "P",
    "MB",
    "ND",
    "MOSAIC",
    "PHASE"
],
  "ImagingFrequency": 123.259,
  "InPlanePhaseEncodingDirectionDICOM": "COL",
  "InstitutionAddress": "Chemin Queen-Mary 4565,Montreal,District,CA,H3W 1W5",
  "InstitutionName": "IUGM",
  "InstitutionalDepartmentName": "Department",
  "MRAcquisitionType": "2D",
  "MagneticFieldStrength": 3,
  "Manufacturer": "Siemens",
  "ManufacturersModelName": "Prisma_fit",
  "MatrixCoilMode": "SENSE",
  "Modality": "MR",
  "MultibandAccelerationFactor": 4,
  "PartialFourier": 1,
  "PatientPosition": "HFS",
  "PercentPhaseFOV": 100,
  "PercentSampling": 100,
  "PhaseEncodingDirection": "j",
  "PhaseEncodingSteps": 104,
  "PhaseResolution": 1,
  "PixelBandwidth": 2290,
  "ProcedureStepDescription": "games^mario",
  "ProtocolName": "func_task-mario_run-02",
  "PulseSequenceDetails": "%CustomerSeq%\\cmrr_mbep2d_bold",
  "ReceiveCoilActiveElements": "HC1-7;NC1,2",
  "ReceiveCoilName": "HeadNeck_64",
  "ReconMatrixPE": 104,
  "RepetitionTime": 1.49,
  "SAR": 0.0375362,
  "ScanOptions": "FS",
  "ScanningSequence": "EP",
  "SequenceName": "epfid2d1_104",
  "SequenceVariant": "SK\\SS",
  "SeriesDescription": "func_task-mario_run-02",
  "SeriesNumber": 14,
  "ShimSetting": [629, -7210, -8810, 662, 73, -39, -9, -12],
  "SliceThickness": 2,
  "SliceTiming": [0, 0.7825, 0.0975, 0.8825, 0.195, 0.98, 0.2925, 1.0775, 0.3925, 1.175, 0.49, 1.2725, 0.5875, 1.37, 0.685, 0, 0.7825, 0.0975, 0.8825, 0.195, 0.98, 0.2925, 1.0775, 0.3925, 1.175, 0.49, 1.2725, 0.5875, 1.37, 0.685, 0, 0.7825, 0.0975, 0.8825, 0.195, 0.98, 0.2925, 1.0775, 0.3925, 1.175, 0.49, 1.2725, 0.5875, 1.37, 0.685, 0, 0.7825, 0.0975, 0.8825, 0.195, 0.98, 0.2925, 1.0775, 0.3925, 1.175, 0.49, 1.2725, 0.5875, 1.37, 0.685],
  "SoftwareVersions": "syngo MR E11",
  "SpacingBetweenSlices": 2,
  "StationName": "MRC35049",
  "TaskName": "mario",
  "TotalReadoutTime": 0.0576811,
  "TxRefAmp": 245.198,
  "WipMemBlock": "c468f7e4-4bc4-48d7-95c2-05b82103f080||Sequence: R016 ve11c/master r/e634e98; Dec 19 2017 11:00:25 by eja",
  "dcmmeta_affine": [
    [-1.986910104751587, -0.1983199566602707, 0.1133909821510315, 112.42594909667969],
    [-0.22550223767757416, 1.8615325689315796, -0.6955896615982056, -47.42350769042969],
    [0.03656585142016411, 0.7038220763206482, 1.8717097043991089, -57.672786712646484],
    [0.0, 0.0, 0.0, 1.0]
],
  "dcmmeta_reorient_transform": [
    [0.0, -1.0, 0.0, 103.0],
    [1.0, 0.0, 0.0, 0.0],
    [0.0, 0.0, 1.0, 0.0],
    [0.0, 0.0, 0.0, 1.0]
],
  "dcmmeta_shape": [104, 104, 60, 456],
  "dcmmeta_slice_dim": 2,
  "dcmmeta_version": 0.6,
  "global": {
    "const": {
      "AcquisitionMatrix": [104, 0, 0, 104],
      "AngioFlag": "N",
      "BitsAllocated": 16,
      "BitsStored": 16,
      "BodyPartExamined": "BRAIN",
      "Columns": 832,
      "EchoNumbers": 1,
      "EchoTime": 37.0,
      "EchoTrainLength": 104,
      "FlipAngle": 52.0,
      "HighBit": 15,
      "ImageOrientationPatient": [0.99345504197543, 0.11275111630357, 0.01828292498207, -0.0991599757698, 0.93076631275014, -0.351911026049],
      "ImagePositionPatient": [-743.04580274601, -903.99504085916, 257.70214194678],
      "ImageType": [
        "ORIGINAL",
        "PRIMARY",
        "P",
        "MB",
        "ND",
        "MOSAIC"
],
      "ImagedNucleus": "1H",
      "ImagingFrequency": 123.258878,
      "InPlanePhaseEncodingDirection": "COL",
      "LargestImagePixelValue": 4095,
      "MRAcquisitionType": "2D",
      "MagneticFieldStrength": 3.0,
      "Manufacturer": "SIEMENS",
      "ManufacturerModelName": "Prisma_fit",
      "Modality": "MR",
      "NumberOfAverages": 1.0,
      "NumberOfPhaseEncodingSteps": 104,
      "PercentPhaseFieldOfView": 100.0,
      "PercentSampling": 100.0,
      "PerformedProcedureStepStartTime": "175355.227000",
      "PhotometricInterpretation": "MONOCHROME2",
      "PixelBandwidth": 2290.0,
      "PixelRepresentation": 0,
      "PixelSpacing": [2.0, 2.0],
      "ProtocolName": "func_task-mario_run-02",
      "RepetitionTime": 1490.0,
      "RescaleIntercept": -4096.0,
      "RescaleSlope": 2.0,
      "RescaleType": "US",
      "Rows": 832,
      "SAR": 0.03753617344727,
      "SamplesPerPixel": 1,
      "ScanOptions": "FS",
      "ScanningSequence": "EP",
      "SequenceName": "epfid2d1_104",
      "SequenceVariant": [
        "SK",
        "SS"
],
      "SeriesDescription": "func_task-mario_run-02",
      "SeriesNumber": 14,
      "SeriesTime": "181744.209000",
      "SliceLocation": -31.105663145462,
      "SliceThickness": 2.0,
      "SmallestImagePixelValue": 0,
      "SoftwareVersions": "syngo MR E11",
      "SpacingBetweenSlices": 1.999999954835,
      "SpecificCharacterSet": "ISO_IR 100",
      "StudyID": "1",
      "StudyTime": "175355.157000",
      "TransmitCoilName": "Body",
      "VariableFlipAngleFlag": "N",
      "WindowCenterWidthExplanation": "Algo1",
      "dBdt": 0.0},
    "slices": {}
  },
  "time": {
    "samples": {
      "AcquisitionNumber": [1, 2, 3, 4, 5, 6, 7, 8, 9, 10, 11, 12, 13, 14, 15, 16, 17, 18, 19, 20, 21, 22, 23, 24, 25, 26, 27, 28, 29, 30, 31, 32, 33, 34, 35, 36, 37, 38, 39, 40, 41, 42, 43, 44, 45, 46, 47, 48, 49, 50, 51, 52, 53, 54, 55, 56, 57, 58, 59, 60, 61, 62, 63, 64, 65, 66, 67, 68, 69, 70, 71, 72, 73, 74, 75, 76, 77, 78, 79, 80, 81, 82, 83, 84, 85, 86, 87, 88, 89, 90, 91, 92, 93, 94, 95, 96, 97, 98, 99, 100, 101, 102, 103, 104, 105, 106, 107, 108, 109, 110, 111, 112, 113, 114, 115, 116, 117, 118, 119, 120, 121, 122, 123, 124, 125, 126, 127, 128, 129, 130, 131, 132, 133, 134, 135, 136, 137, 138, 139, 140, 141, 142, 143, 144, 145, 146, 147, 148, 149, 150, 151, 152, 153, 154, 155, 156, 157, 158, 159, 160, 161, 162, 163, 164, 165, 166, 167, 168, 169, 170, 171, 172, 173, 174, 175, 176, 177, 178, 179, 180, 181, 182, 183, 184, 185, 186, 187, 188, 189, 190, 191, 192, 193, 194, 195, 196, 197, 198, 199, 200, 201, 202, 203, 204, 205, 206, 207, 208, 209, 210, 211, 212, 213, 214, 215, 216, 217, 218, 219, 220, 221, 222, 223, 224, 225, 226, 227, 228, 229, 230, 231, 232, 233, 234, 235, 236, 237, 238, 239, 240, 241, 242, 243, 244, 245, 246, 247, 248, 249, 250, 251, 252, 253, 254, 255, 256, 257, 258, 259, 260, 261, 262, 263, 264, 265, 266, 267, 268, 269, 270, 271, 272, 273, 274, 275, 276, 277, 278, 279, 280, 281, 282, 283, 284, 285, 286, 287, 288, 289, 290, 291, 292, 293, 294, 295, 296, 297, 298, 299, 300, 301, 302, 303, 304, 305, 306, 307, 308, 309, 310, 311, 312, 313, 314, 315, 316, 317, 318, 319, 320, 321, 322, 323, 324, 325, 326, 327, 328, 329, 330, 331, 332, 333, 334, 335, 336, 337, 338, 339, 340, 341, 342, 343, 344, 345, 346, 347, 348, 349, 350, 351, 352, 353, 354, 355, 356, 357, 358, 359, 360, 361, 362, 363, 364, 365, 366, 367, 368, 369, 370, 371, 372, 373, 374, 375, 376, 377, 378, 379, 380, 381, 382, 383, 384, 385, 386, 387, 388, 389, 390, 391, 392, 393, 394, 395, 396, 397, 398, 399, 400, 401, 402, 403, 404, 405, 406, 407, 408, 409, 410, 411, 412, 413, 414, 415, 416, 417, 418, 419, 420, 421, 422, 423, 424, 425, 426, 427, 428, 429, 430, 431, 432, 433, 434, 435, 436, 437, 438, 439, 440, 441, 442, 443, 444, 445, 446, 447, 448, 449, 450, 451, 452, 453, 454, 455, 456],
      "AcquisitionTime": ["181627.022500", "181628.512500", "181630.002500", "181631.492500", "181632.982500", "181634.472500", "181635.962500", "181637.452500", "181638.942500", "181640.432500", "181641.922500", "181643.412500", "181644.902500", "181646.392500", "181647.882500", "181649.372500", "181650.862500", "181652.352500", "181653.842500", "181655.332500", "181656.822500", "181658.312500", "181659.802500", "181701.292500", "181702.782500", "181704.272500", "181705.762500", "181707.252500", "181708.742500", "181710.232500", "181711.722500", "181713.212500", "181714.702500", "181716.192500", "181717.682500", "181719.172500", "181720.662500", "181722.152500", "181723.642500", "181725.132500", "181726.622500", "181728.112500", "181729.602500", "181731.092500", "181732.582500", "181734.072500", "181735.562500", "181737.052500", "181738.542500", "181740.032500", "181741.522500", "181743.012500", "181744.502500", "181745.992500", "181747.482500", "181748.972500", "181750.462500", "181751.952500", "181753.442500", "181754.932500", "181756.422500", "181757.912500", "181759.402500", "181800.892500", "181802.382500", "181803.872500", "181805.362500", "181806.852500", "181808.342500", "181809.832500", "181811.322500", "181812.812500", "181814.302500", "181815.792500", "181817.282500", "181818.772500", "181820.262500", "181821.752500", "181823.242500", "181824.732500", "181826.222500", "181827.712500", "181829.202500", "181830.692500", "181832.182500", "181833.672500", "181835.162500", "181836.652500", "181838.142500", "181839.632500", "181841.122500", "181842.612500", "181844.102500", "181845.592500", "181847.082500", "181848.572500", "181850.062500", "181851.552500", "181853.042500", "181854.532500", "181856.022500", "181857.512500", "181859.002500", "181900.492500", "181901.982500", "181903.472500", "181904.962500", "181906.452500", "181907.942500", "181909.432500", "181910.922500", "181912.412500", "181913.902500", "181915.392500", "181916.882500", "181918.372500", "181919.862500", "181921.352500", "181922.842500", "181924.332500", "181925.822500", "181927.312500", "181928.802500", "181930.292500", "181931.782500", "181933.272500", "181934.762500", "181936.252500", "181937.742500", "181939.232500", "181940.722500", "181942.212500", "181943.702500", "181945.192500", "181946.682500", "181948.172500", "181949.662500", "181951.152500", "181952.642500", "181954.132500", "181955.622500", "181957.112500", "181958.602500", "182000.092500", "182001.582500", "182003.072500", "182004.562500", "182006.052500", "182007.542500", "182009.032500", "182010.522500", "182012.012500", "182013.502500", "182014.992500", "182016.482500", "182017.972500", "182019.462500", "182020.952500", "182022.442500", "182023.932500", "182025.422500", "182026.912500", "182028.402500", "182029.892500", "182031.382500", "182032.872500", "182034.362500", "182035.852500", "182037.342500", "182038.832500", "182040.322500", "182041.812500", "182043.302500", "182044.792500", "182046.282500", "182047.772500", "182049.262500", "182050.752500", "182052.242500", "182053.732500", "182055.222500", "182056.712500", "182058.202500", "182059.692500", "182101.182500", "182102.672500", "182104.162500", "182105.652500", "182107.142500", "182108.632500", "182110.122500", "182111.612500", "182113.102500", "182114.592500", "182116.082500", "182117.572500", "182119.062500", "182120.552500", "182122.042500", "182123.532500", "182125.022500", "182126.512500", "182128.002500", "182129.492500", "182130.982500", "182132.472500", "182133.962500", "182135.452500", "182136.942500", "182138.432500", "182139.922500", "182141.412500", "182142.902500", "182144.392500", "182145.882500", "182147.372500", "182148.862500", "182150.352500", "182151.842500", "182153.332500", "182154.822500", "182156.312500", "182157.802500", "182159.292500", "182200.782500", "182202.272500", "182203.762500", "182205.252500", "182206.742500", "182208.232500", "182209.722500", "182211.212500", "182212.702500", "182214.192500", "182215.682500", "182217.172500", "182218.662500", "182220.152500", "182221.642500", "182223.132500", "182224.622500", "182226.112500", "182227.602500", "182229.092500", "182230.582500", "182232.072500", "182233.562500", "182235.052500", "182236.542500", "182238.032500", "182239.522500", "182241.012500", "182242.502500", "182243.992500", "182245.482500", "182246.972500", "182248.462500", "182249.952500", "182251.442500", "182252.932500", "182254.422500", "182255.912500", "182257.402500", "182258.892500", "182300.382500", "182301.872500", "182303.362500", "182304.852500", "182306.342500", "182307.832500", "182309.322500", "182310.812500", "182312.302500", "182313.792500", "182315.282500", "182316.772500", "182318.262500", "182319.752500", "182321.242500", "182322.732500", "182324.222500", "182325.712500", "182327.202500", "182328.692500", "182330.182500", "182331.672500", "182333.162500", "182334.652500", "182336.142500", "182337.632500", "182339.122500", "182340.612500", "182342.102500", "182343.592500", "182345.082500", "182346.572500", "182348.062500", "182349.552500", "182351.042500", "182352.532500", "182354.022500", "182355.512500", "182357.002500", "182358.492500", "182359.982500", "182401.472500", "182402.962500", "182404.452500", "182405.942500", "182407.432500", "182408.922500", "182410.412500", "182411.902500", "182413.392500", "182414.882500", "182416.372500", "182417.862500", "182419.352500", "182420.842500", "182422.332500", "182423.822500", "182425.312500", "182426.802500", "182428.292500", "182429.782500", "182431.272500", "182432.762500", "182434.252500", "182435.742500", "182437.232500", "182438.722500", "182440.212500", "182441.702500", "182443.192500", "182444.682500", "182446.172500", "182447.662500", "182449.152500", "182450.642500", "182452.132500", "182453.622500", "182455.112500", "182456.602500", "182458.092500", "182459.582500", "182501.072500", "182502.562500", "182504.052500", "182505.542500", "182507.032500", "182508.522500", "182510.012500", "182511.502500", "182512.992500", "182514.482500", "182515.972500", "182517.462500", "182518.952500", "182520.442500", "182521.932500", "182523.422500", "182524.912500", "182526.402500", "182527.892500", "182529.382500", "182530.872500", "182532.362500", "182533.852500", "182535.342500", "182536.832500", "182538.322500", "182539.812500", "182541.302500", "182542.792500", "182544.282500", "182545.772500", "182547.262500", "182548.752500", "182550.242500", "182551.732500", "182553.222500", "182554.712500", "182556.202500", "182557.692500", "182559.182500", "182600.672500", "182602.162500", "182603.652500", "182605.142500", "182606.632500", "182608.122500", "182609.612500", "182611.102500", "182612.592500", "182614.082500", "182615.572500", "182617.062500", "182618.552500", "182620.042500", "182621.532500", "182623.022500", "182624.512500", "182626.002500", "182627.492500", "182628.982500", "182630.472500", "182631.962500", "182633.452500", "182634.942500", "182636.432500", "182637.922500", "182639.412500", "182640.902500", "182642.392500", "182643.882500", "182645.372500", "182646.862500", "182648.352500", "182649.842500", "182651.332500", "182652.822500", "182654.312500", "182655.802500", "182657.292500", "182658.782500", "182700.272500", "182701.762500", "182703.252500", "182704.742500", "182706.232500", "182707.722500", "182709.212500", "182710.702500", "182712.192500", "182713.682500", "182715.172500", "182716.662500", "182718.152500", "182719.642500", "182721.132500", "182722.622500", "182724.112500", "182725.602500", "182727.092500", "182728.582500", "182730.072500", "182731.562500", "182733.052500", "182734.542500", "182736.032500", "182737.522500", "182739.012500", "182740.502500", "182741.992500", "182743.482500", "182744.972500"],
      "ContentTime": ["181744.211000", "181744.213000", "181744.216000", "181744.219000", "181744.222000", "181744.224000", "181744.227000", "181744.229000", "181744.232000", "181744.235000", "181744.238000", "181744.240000", "181744.243000", "181744.246000", "181744.257000", "181744.260000", "181744.263000", "181744.265000", "181744.268000", "181744.270000", "181744.273000", "181744.275000", "181744.278000", "181804.163000", "181804.166000", "181804.171000", "181804.173000", "181804.176000", "181804.178000", "181804.181000", "181804.183000", "181804.186000", "181804.188000", "181804.191000", "181804.194000", "181804.196000", "181804.199000", "181804.201000", "181804.204000", "181804.206000", "181804.209000", "181804.212000", "181804.222000", "181824.146000", "181824.149000", "181824.152000", "181824.154000", "181824.157000", "181824.159000", "181824.162000", "181824.164000", "181824.167000", "181824.170000", "181824.172000", "181824.175000", "181824.177000", "181824.180000", "181824.182000", "181824.185000", "181824.187000", "181824.190000", "181824.192000", "181824.195000", "181824.197000", "181844.173000", "181844.176000", "181844.178000", "181844.181000", "181844.184000", "181844.186000", "181844.189000", "181844.192000", "181844.196000", "181844.198000", "181844.201000", "181844.204000", "181844.207000", "181844.229000", "181844.232000", "181844.234000", "181844.237000", "181844.240000", "181844.242000", "181844.245000", "181904.149000", "181904.152000", "181904.154000", "181904.157000", "181904.160000", "181904.162000", "181904.165000", "181904.167000", "181904.170000", "181904.172000", "181904.175000", "181904.177000", "181904.180000", "181904.183000", "181904.185000", "181904.188000", "181904.190000", "181904.193000", "181904.195000", "181904.198000", "181944.669000", "181944.672000", "181944.675000", "181944.677000", "181944.680000", "181944.683000", "181944.686000", "181944.688000", "181944.691000", "181944.693000", "181944.696000", "181944.698000", "181944.701000", "181944.704000", "181944.706000", "181944.709000", "181944.711000", "181944.714000", "181944.716000", "181944.719000", "181944.721000", "181944.724000", "181944.727000", "181944.729000", "181944.732000", "181944.734000", "181944.737000", "182024.186000", "182024.188000", "182024.191000", "182024.195000", "182024.198000", "182024.200000", "182024.203000", "182024.206000", "182024.208000", "182024.211000", "182024.213000", "182024.216000", "182024.219000", "182024.221000", "182024.224000", "182024.226000", "182024.229000", "182024.231000", "182024.234000", "182024.236000", "182024.239000", "182024.241000", "182024.244000", "182024.247000", "182024.250000", "182024.253000", "182024.255000", "182104.177000", "182104.180000", "182104.182000", "182104.185000", "182104.187000", "182104.190000", "182104.193000", "182104.195000", "182104.198000", "182104.200000", "182104.203000", "182104.205000", "182104.208000", "182104.211000", "182104.213000", "182104.216000", "182104.218000", "182104.221000", "182104.224000", "182104.226000", "182104.229000", "182104.231000", "182104.234000", "182104.237000", "182104.239000", "182104.242000", "182104.244000", "182144.190000", "182144.193000", "182144.195000", "182144.198000", "182144.201000", "182144.203000", "182144.206000", "182144.208000", "182144.211000", "182144.214000", "182144.216000", "182144.219000", "182144.222000", "182144.224000", "182144.227000", "182144.229000", "182144.232000", "182144.234000", "182144.237000", "182144.240000", "182144.242000", "182144.245000", "182144.247000", "182144.250000", "182144.253000", "182144.255000", "182144.258000", "182224.186000", "182224.189000", "182224.192000", "182224.194000", "182224.197000", "182224.200000", "182224.202000", "182224.205000", "182224.207000", "182224.210000", "182224.212000", "182224.215000", "182224.217000", "182224.220000", "182224.223000", "182224.225000", "182224.228000", "182224.230000", "182224.233000", "182224.235000", "182224.238000", "182224.241000", "182224.243000", "182224.246000", "182224.248000", "182224.251000", "182224.254000", "182304.184000", "182304.186000", "182304.189000", "182304.192000", "182304.194000", "182304.197000", "182304.199000", "182304.202000", "182304.205000", "182304.207000", "182304.210000", "182304.212000", "182304.215000", "182304.217000", "182304.220000", "182304.223000", "182304.225000", "182304.228000", "182304.230000", "182304.233000", "182304.236000", "182304.238000", "182304.241000", "182304.243000", "182304.246000", "182304.248000", "182304.251000", "182344.191000", "182344.194000", "182344.197000", "182344.199000", "182344.202000", "182344.205000", "182344.207000", "182344.210000", "182344.212000", "182344.215000", "182344.218000", "182344.220000", "182344.223000", "182344.225000", "182344.228000", "182344.230000", "182344.233000", "182344.236000", "182344.238000", "182344.241000", "182344.243000", "182344.246000", "182344.249000", "182344.251000", "182344.254000", "182344.256000", "182344.259000", "182424.188000", "182424.190000", "182424.193000", "182424.195000", "182424.198000", "182424.201000", "182424.203000", "182424.206000", "182424.209000", "182424.213000", "182424.216000", "182424.218000", "182424.221000", "182424.225000", "182424.228000", "182424.230000", "182424.233000", "182424.236000", "182424.238000", "182424.241000", "182424.243000", "182424.246000", "182424.248000", "182424.251000", "182424.254000", "182424.256000", "182504.179000", "182504.182000", "182504.185000", "182504.188000", "182504.190000", "182504.193000", "182504.195000", "182504.198000", "182504.201000", "182504.203000", "182504.206000", "182504.208000", "182504.211000", "182504.214000", "182504.216000", "182504.219000", "182504.221000", "182504.224000", "182504.226000", "182504.229000", "182504.232000", "182504.234000", "182504.237000", "182504.239000", "182504.242000", "182504.245000", "182504.247000", "182544.182000", "182544.185000", "182544.187000", "182544.190000", "182544.192000", "182544.195000", "182544.198000", "182544.200000", "182544.203000", "182544.205000", "182544.208000", "182544.210000", "182544.213000", "182544.216000", "182544.218000", "182544.221000", "182544.223000", "182544.226000", "182544.229000", "182544.231000", "182544.234000", "182544.236000", "182544.239000", "182544.241000", "182544.244000", "182544.247000", "182544.249000", "182624.190000", "182624.193000", "182624.195000", "182624.198000", "182624.200000", "182624.203000", "182624.205000", "182624.208000", "182624.211000", "182624.213000", "182624.216000", "182624.218000", "182624.221000", "182624.224000", "182624.226000", "182624.229000", "182624.231000", "182624.234000", "182624.236000", "182624.239000", "182624.242000", "182624.244000", "182624.247000", "182624.249000", "182624.252000", "182624.255000", "182624.257000", "182704.187000", "182704.189000", "182704.192000", "182704.195000", "182704.197000", "182704.207000", "182704.210000", "182704.212000", "182704.215000", "182704.217000", "182704.220000", "182704.223000", "182704.225000", "182704.228000", "182704.230000", "182704.233000", "182704.235000", "182704.238000", "182704.241000", "182704.243000", "182704.246000", "182704.248000", "182704.251000", "182704.254000", "182704.256000", "182704.259000", "182704.261000", "182744.178000", "182744.181000", "182744.184000", "182744.186000", "182744.189000", "182744.191000", "182744.194000", "182744.197000", "182744.199000", "182744.202000", "182744.204000", "182744.207000", "182744.209000", "182744.212000", "182744.214000", "182744.217000", "182744.220000", "182744.222000", "182744.225000", "182744.227000", "182744.230000", "182744.233000", "182744.235000", "182744.238000", "182744.240000", "182744.243000", "182744.245000", "182747.878000", "182747.881000"],
