{
  "AcquisitionMatrixPE": 104,
  "AcquisitionNumber": 1,
  "AcquisitionTime": "16:18:1.817500",
  "BandwidthPerPixelPhaseEncode": 17.17,
  "BaseResolution": 104,
  "BodyPartExamined": "BRAIN",
  "CoilCombinationMethod": "Sum of Squares",
  "ConsistencyInfo": "N4_VE11C_LATEST_20160120",
  "ConversionSoftware": "dcm2niix",
  "ConversionSoftwareVersion": "v1.0.20211006",
  "DerivedVendorReportedEchoSpacing": 0.000560011,
  "DeviceSerialNumber": "167006",
  "DwellTime": 2.1e-06,
  "EchoTime": 0.037,
  "EchoTrainLength": 104,
  "EffectiveEchoSpacing": 0.000560011,
  "FlipAngle": 52,
  "HeudiconvVersion": "0.10.0",
  "ImageComments": "Unaliased MB4/PE3/LB",
  "ImageOrientationPatientDICOM": [0.999381, -0.0339889, 0.0091024, 0.0350738, 0.941561, -0.335011],
  "ImageOrientationText": "Tra>Cor(-19.6)>Sag(-0.2)",
  "ImageType": [
    "ORIGINAL",
    "PRIMARY",
    "M",
    "MB",
    "ND",
    "MOSAIC"
],
  "ImagingFrequency": 123.259,
  "InPlanePhaseEncodingDirectionDICOM": "COL",
  "InstitutionAddress": "Chemin Queen-Mary 4565,Montreal,District,CA,H3W 1W5",
  "InstitutionName": "IUGM",
  "InstitutionalDepartmentName": "Department",
  "MRAcquisitionType": "2D",
  "MagneticFieldStrength": 3,
  "Manufacturer": "Siemens",
  "ManufacturersModelName": "Prisma_fit",
  "MatrixCoilMode": "SENSE",
  "Modality": "MR",
  "MultibandAccelerationFactor": 4,
  "PartialFourier": 1,
  "PatientPosition": "HFS",
  "PercentPhaseFOV": 100,
  "PercentSampling": 100,
  "PhaseEncodingDirection": "j",
  "PhaseEncodingSteps": 104,
  "PhaseResolution": 1,
  "PixelBandwidth": 2290,
  "ProcedureStepDescription": "games^mario",
  "ProtocolName": "func_task-mario_run-03",
  "PulseSequenceDetails": "%CustomerSeq%\\cmrr_mbep2d_bold",
  "ReceiveCoilActiveElements": "HC1-7;NC1,2",
  "ReceiveCoilName": "HeadNeck_64",
  "ReconMatrixPE": 104,
  "RepetitionTime": 1.49,
  "SAR": 0.0724014,
  "ScanOptions": "FS",
  "ScanningSequence": "EP",
  "SequenceName": "epfid2d1_104",
  "SequenceVariant": "SK\\SS",
  "SeriesDescription": "func_task-mario_run-03",
  "SeriesNumber": 16,
  "ShimSetting": [630, -7258, -8828, 535, 21, -226, -71, -29],
  "SliceThickness": 2,
  "SliceTiming": [0, 0.7825, 0.0975, 0.8825, 0.195, 0.98, 0.2925, 1.0775, 0.3925, 1.175, 0.49, 1.2725, 0.5875, 1.3725, 0.685, 0, 0.7825, 0.0975, 0.8825, 0.195, 0.98, 0.2925, 1.0775, 0.3925, 1.175, 0.49, 1.2725, 0.5875, 1.3725, 0.685, 0, 0.7825, 0.0975, 0.8825, 0.195, 0.98, 0.2925, 1.0775, 0.3925, 1.175, 0.49, 1.2725, 0.5875, 1.3725, 0.685, 0, 0.7825, 0.0975, 0.8825, 0.195, 0.98, 0.2925, 1.0775, 0.3925, 1.175, 0.49, 1.2725, 0.5875, 1.3725, 0.685],
  "SoftwareVersions": "syngo MR E11",
  "SpacingBetweenSlices": 2,
  "StationName": "MRC35049",
  "TaskName": "mario",
  "TotalReadoutTime": 0.0576811,
  "TxRefAmp": 303.103,
  "WipMemBlock": "38ce24eb-aecc-44b8-acf6-d832a29e8b62||Sequence: R016 ve11c/master r/e634e98; Dec 19 2017 11:00:25 by eja",
  "dcmmeta_affine": [
    [-1.998761534690857, 0.07014752924442291, -0.005632412154227495, 103.50434112548828],
    [0.06797783076763153, 1.8831220865249634, -0.6702463030815125, -68.64328002929688],
    [0.01820480078458786, 0.6700226664543152, 1.8843402862548828, -66.67061614990234],
    [0.0, 0.0, 0.0, 1.0]
],
  "dcmmeta_reorient_transform": [
    [0.0, -1.0, 0.0, 103.0],
    [1.0, 0.0, 0.0, 0.0],
    [0.0, 0.0, 1.0, 0.0],
    [0.0, 0.0, 0.0, 1.0]
],
  "dcmmeta_shape": [104, 104, 60, 422],
  "dcmmeta_slice_dim": 2,
  "dcmmeta_version": 0.6,
  "global": {
    "const": {
      "AcquisitionMatrix": [104, 0, 0, 104],
      "AngioFlag": "N",
      "BitsAllocated": 16,
      "BitsStored": 16,
      "BodyPartExamined": "BRAIN",
      "Columns": 832,
      "EchoNumbers": 1,
      "EchoTime": 37.0,
      "EchoTrainLength": 104,
      "FlipAngle": 52.0,
      "HighBit": 15,
      "ImageOrientationPatient": [0.99938075824615, -0.0339889150803, 0.00910240072853, 0.03507376556891, 0.94156106083824, -0.3350113426169],
      "ImagePositionPatient": [-863.8124271751, -786.03081903285, 239.60343279689],
      "ImageType": [
        "ORIGINAL",
        "PRIMARY",
        "M",
        "MB",
        "ND",
        "MOSAIC"
],
      "ImagedNucleus": "1H",
      "ImagingFrequency": 123.258832,
      "InPlanePhaseEncodingDirection": "COL",
      "MRAcquisitionType": "2D",
      "MagneticFieldStrength": 3.0,
      "Manufacturer": "SIEMENS",
      "ManufacturerModelName": "Prisma_fit",
      "Modality": "MR",
      "NumberOfAverages": 1.0,
      "NumberOfPhaseEncodingSteps": 104,
      "PercentPhaseFieldOfView": 100.0,
      "PercentSampling": 100.0,
      "PerformedProcedureStepStartTime": "153054.468000",
      "PhotometricInterpretation": "MONOCHROME2",
      "PixelBandwidth": 2290.0,
      "PixelRepresentation": 0,
      "PixelSpacing": [2.0, 2.0],
      "ProtocolName": "func_task-mario_run-03",
      "RepetitionTime": 1490.0,
      "Rows": 832,
      "SAR": 0.07240135186515,
      "SamplesPerPixel": 1,
      "ScanOptions": "FS",
      "ScanningSequence": "EP",
      "SequenceName": "epfid2d1_104",
      "SequenceVariant": [
        "SK",
        "SS"
],
      "SeriesDescription": "func_task-mario_run-03",
      "SeriesNumber": 16,
      "SeriesTime": "161929.322000",
      "SliceLocation": -40.102597425384,
      "SliceThickness": 2.0,
      "SmallestImagePixelValue": 0,
      "SoftwareVersions": "syngo MR E11",
      "SpacingBetweenSlices": 2.0000000055432,
      "SpecificCharacterSet": "ISO_IR 100",
      "StudyID": "1",
      "StudyTime": "153054.388000",
      "TransmitCoilName": "Body",
      "VariableFlipAngleFlag": "N",
      "WindowCenterWidthExplanation": "Algo1",
      "dBdt": 0.0},
    "slices": {}
  },
  "time": {
    "samples": {
      "AcquisitionNumber": [1, 2, 3, 4, 5, 6, 7, 8, 9, 10, 11, 12, 13, 14, 15, 16, 17, 18, 19, 20, 21, 22, 23, 24, 25, 26, 27, 28, 29, 30, 31, 32, 33, 34, 35, 36, 37, 38, 39, 40, 41, 42, 43, 44, 45, 46, 47, 48, 49, 50, 51, 52, 53, 54, 55, 56, 57, 58, 59, 60, 61, 62, 63, 64, 65, 66, 67, 68, 69, 70, 71, 72, 73, 74, 75, 76, 77, 78, 79, 80, 81, 82, 83, 84, 85, 86, 87, 88, 89, 90, 91, 92, 93, 94, 95, 96, 97, 98, 99, 100, 101, 102, 103, 104, 105, 106, 107, 108, 109, 110, 111, 112, 113, 114, 115, 116, 117, 118, 119, 120, 121, 122, 123, 124, 125, 126, 127, 128, 129, 130, 131, 132, 133, 134, 135, 136, 137, 138, 139, 140, 141, 142, 143, 144, 145, 146, 147, 148, 149, 150, 151, 152, 153, 154, 155, 156, 157, 158, 159, 160, 161, 162, 163, 164, 165, 166, 167, 168, 169, 170, 171, 172, 173, 174, 175, 176, 177, 178, 179, 180, 181, 182, 183, 184, 185, 186, 187, 188, 189, 190, 191, 192, 193, 194, 195, 196, 197, 198, 199, 200, 201, 202, 203, 204, 205, 206, 207, 208, 209, 210, 211, 212, 213, 214, 215, 216, 217, 218, 219, 220, 221, 222, 223, 224, 225, 226, 227, 228, 229, 230, 231, 232, 233, 234, 235, 236, 237, 238, 239, 240, 241, 242, 243, 244, 245, 246, 247, 248, 249, 250, 251, 252, 253, 254, 255, 256, 257, 258, 259, 260, 261, 262, 263, 264, 265, 266, 267, 268, 269, 270, 271, 272, 273, 274, 275, 276, 277, 278, 279, 280, 281, 282, 283, 284, 285, 286, 287, 288, 289, 290, 291, 292, 293, 294, 295, 296, 297, 298, 299, 300, 301, 302, 303, 304, 305, 306, 307, 308, 309, 310, 311, 312, 313, 314, 315, 316, 317, 318, 319, 320, 321, 322, 323, 324, 325, 326, 327, 328, 329, 330, 331, 332, 333, 334, 335, 336, 337, 338, 339, 340, 341, 342, 343, 344, 345, 346, 347, 348, 349, 350, 351, 352, 353, 354, 355, 356, 357, 358, 359, 360, 361, 362, 363, 364, 365, 366, 367, 368, 369, 370, 371, 372, 373, 374, 375, 376, 377, 378, 379, 380, 381, 382, 383, 384, 385, 386, 387, 388, 389, 390, 391, 392, 393, 394, 395, 396, 397, 398, 399, 400, 401, 402, 403, 404, 405, 406, 407, 408, 409, 410, 411, 412, 413, 414, 415, 416, 417, 418, 419, 420, 421, 422],
      "AcquisitionTime": ["161801.817500", "161803.307500", "161804.797500", "161806.287500", "161807.777500", "161809.267500", "161810.757500", "161812.247500", "161813.737500", "161815.227500", "161816.717500", "161818.207500", "161819.697500", "161821.187500", "161822.677500", "161824.167500", "161825.657500", "161827.147500", "161828.637500", "161830.127500", "161831.617500", "161833.107500", "161834.597500", "161836.087500", "161837.577500", "161839.067500", "161840.557500", "161842.047500", "161843.537500", "161845.027500", "161846.517500", "161848.007500", "161849.497500", "161850.987500", "161852.477500", "161853.967500", "161855.457500", "161856.947500", "161858.437500", "161859.927500", "161901.417500", "161902.907500", "161904.397500", "161905.887500", "161907.377500", "161908.867500", "161910.357500", "161911.847500", "161913.337500", "161914.827500", "161916.317500", "161917.807500", "161919.297500", "161920.787500", "161922.277500", "161923.767500", "161925.257500", "161926.747500", "161928.237500", "161929.727500", "161931.217500", "161932.707500", "161934.197500", "161935.687500", "161937.177500", "161938.667500", "161940.157500", "161941.647500", "161943.137500", "161944.627500", "161946.117500", "161947.607500", "161949.097500", "161950.587500", "161952.077500", "161953.567500", "161955.057500", "161956.547500", "161958.037500", "161959.527500", "162001.017500", "162002.507500", "162003.997500", "162005.487500", "162006.977500", "162008.467500", "162009.957500", "162011.447500", "162012.937500", "162014.427500", "162015.917500", "162017.407500", "162018.897500", "162020.387500", "162021.877500", "162023.367500", "162024.857500", "162026.347500", "162027.837500", "162029.327500", "162030.817500", "162032.307500", "162033.797500", "162035.287500", "162036.777500", "162038.267500", "162039.757500", "162041.247500", "162042.737500", "162044.227500", "162045.717500", "162047.207500", "162048.697500", "162050.187500", "162051.677500", "162053.167500", "162054.657500", "162056.147500", "162057.637500", "162059.127500", "162100.617500", "162102.107500", "162103.597500", "162105.087500", "162106.577500", "162108.067500", "162109.557500", "162111.047500", "162112.537500", "162114.027500", "162115.517500", "162117.007500", "162118.497500", "162119.987500", "162121.477500", "162122.967500", "162124.457500", "162125.947500", "162127.437500", "162128.927500", "162130.417500", "162131.907500", "162133.397500", "162134.887500", "162136.377500", "162137.867500", "162139.357500", "162140.847500", "162142.337500", "162143.827500", "162145.317500", "162146.807500", "162148.297500", "162149.787500", "162151.277500", "162152.767500", "162154.257500", "162155.747500", "162157.237500", "162158.727500", "162200.217500", "162201.707500", "162203.197500", "162204.687500", "162206.177500", "162207.667500", "162209.157500", "162210.647500", "162212.137500", "162213.627500", "162215.117500", "162216.607500", "162218.097500", "162219.587500", "162221.077500", "162222.567500", "162224.057500", "162225.547500", "162227.037500", "162228.527500", "162230.017500", "162231.507500", "162232.997500", "162234.487500", "162235.977500", "162237.467500", "162238.957500", "162240.447500", "162241.937500", "162243.427500", "162244.917500", "162246.407500", "162247.897500", "162249.387500", "162250.877500", "162252.367500", "162253.857500", "162255.347500", "162256.837500", "162258.327500", "162259.817500", "162301.307500", "162302.797500", "162304.287500", "162305.777500", "162307.267500", "162308.757500", "162310.247500", "162311.737500", "162313.227500", "162314.717500", "162316.207500", "162317.697500", "162319.187500", "162320.677500", "162322.167500", "162323.657500", "162325.147500", "162326.637500", "162328.127500", "162329.617500", "162331.107500", "162332.597500", "162334.087500", "162335.577500", "162337.067500", "162338.557500", "162340.047500", "162341.537500", "162343.027500", "162344.517500", "162346.007500", "162347.497500", "162348.987500", "162350.477500", "162351.967500", "162353.457500", "162354.947500", "162356.437500", "162357.927500", "162359.417500", "162400.907500", "162402.397500", "162403.887500", "162405.377500", "162406.867500", "162408.357500", "162409.847500", "162411.337500", "162412.827500", "162414.317500", "162415.807500", "162417.297500", "162418.787500", "162420.277500", "162421.767500", "162423.257500", "162424.747500", "162426.237500", "162427.727500", "162429.217500", "162430.707500", "162432.197500", "162433.687500", "162435.177500", "162436.667500", "162438.157500", "162439.647500", "162441.137500", "162442.627500", "162444.117500", "162445.607500", "162447.097500", "162448.587500", "162450.077500", "162451.567500", "162453.057500", "162454.547500", "162456.037500", "162457.527500", "162459.017500", "162500.507500", "162501.997500", "162503.487500", "162504.977500", "162506.467500", "162507.957500", "162509.447500", "162510.937500", "162512.427500", "162513.917500", "162515.407500", "162516.897500", "162518.387500", "162519.877500", "162521.367500", "162522.857500", "162524.347500", "162525.837500", "162527.327500", "162528.817500", "162530.307500", "162531.797500", "162533.287500", "162534.777500", "162536.267500", "162537.757500", "162539.247500", "162540.737500", "162542.227500", "162543.717500", "162545.207500", "162546.697500", "162548.187500", "162549.677500", "162551.167500", "162552.657500", "162554.147500", "162555.637500", "162557.127500", "162558.617500", "162600.107500", "162601.597500", "162603.087500", "162604.577500", "162606.067500", "162607.557500", "162609.047500", "162610.537500", "162612.027500", "162613.517500", "162615.007500", "162616.497500", "162617.987500", "162619.477500", "162620.967500", "162622.457500", "162623.947500", "162625.437500", "162626.927500", "162628.417500", "162629.907500", "162631.397500", "162632.887500", "162634.377500", "162635.867500", "162637.357500", "162638.847500", "162640.337500", "162641.827500", "162643.317500", "162644.807500", "162646.297500", "162647.787500", "162649.277500", "162650.767500", "162652.257500", "162653.747500", "162655.237500", "162656.727500", "162658.217500", "162659.707500", "162701.197500", "162702.687500", "162704.177500", "162705.667500", "162707.157500", "162708.647500", "162710.137500", "162711.627500", "162713.117500", "162714.607500", "162716.097500", "162717.587500", "162719.077500", "162720.567500", "162722.057500", "162723.547500", "162725.037500", "162726.527500", "162728.017500", "162729.507500", "162730.997500", "162732.487500", "162733.977500", "162735.467500", "162736.957500", "162738.447500", "162739.937500", "162741.427500", "162742.917500", "162744.407500", "162745.897500", "162747.387500", "162748.877500", "162750.367500", "162751.857500", "162753.347500", "162754.837500", "162756.327500", "162757.817500", "162759.307500", "162800.797500", "162802.287500", "162803.777500", "162805.267500", "162806.757500", "162808.247500", "162809.737500", "162811.227500", "162812.717500", "162814.207500", "162815.697500", "162817.187500", "162818.677500", "162820.167500", "162821.657500", "162823.147500", "162824.637500", "162826.127500", "162827.617500", "162829.107500"],
      "ContentTime": ["161929.326000", "161929.329000", "161929.332000", "161929.336000", "161929.339000", "161929.342000", "161929.346000", "161929.349000", "161929.352000", "161929.355000", "161929.359000", "161929.362000", "161929.365000", "161929.368000", "161929.372000", "161929.375000", "161929.378000", "161929.382000", "161929.385000", "161929.388000", "161929.391000", "161929.395000", "161929.398000", "161929.401000", "161929.404000", "161929.407000", "161929.411000", "161929.414000", "161929.417000", "161929.428000", "161929.432000", "161929.435000", "161929.438000", "161929.441000", "161949.289000", "161949.293000", "161949.296000", "161949.299000", "161949.302000", "161949.313000", "161949.316000", "161949.319000", "161949.323000", "161949.326000", "161949.329000", "161949.332000", "161949.336000", "161949.339000", "161949.342000", "161949.345000", "161949.348000", "161949.352000", "161949.355000", "161949.358000", "162009.288000", "162009.292000", "162009.295000", "162009.298000", "162009.301000", "162009.305000", "162009.308000", "162009.311000", "162009.315000", "162009.318000", "162009.321000", "162009.324000", "162009.327000", "162009.331000", "162009.334000", "162009.337000", "162009.341000", "162009.344000", "162009.347000", "162009.350000", "162029.289000", "162029.293000", "162029.303000", "162029.307000", "162029.310000", "162029.313000", "162029.317000", "162029.320000", "162029.323000", "162029.326000", "162029.330000", "162029.333000", "162029.336000", "162029.340000", "162029.343000", "162029.347000", "162029.350000", "162029.353000", "162029.356000", "162029.360000", "162109.289000", "162109.293000", "162109.296000", "162109.299000", "162109.302000", "162109.306000", "162109.309000", "162109.312000", "162109.316000", "162109.319000", "162109.322000", "162109.325000", "162109.329000", "162109.332000", "162109.335000", "162109.338000", "162109.342000", "162109.345000", "162109.348000", "162109.351000", "162109.355000", "162109.358000", "162109.361000", "162109.364000", "162109.368000", "162109.371000", "162109.374000", "162109.377000", "162109.381000", "162109.384000", "162109.387000", "162149.289000", "162149.293000", "162149.296000", "162149.299000", "162149.302000", "162149.306000", "162149.309000", "162149.312000", "162149.316000", "162149.319000", "162149.322000", "162149.326000", "162149.329000", "162149.332000", "162149.335000", "162149.339000", "162149.342000", "162149.345000", "162149.349000", "162149.352000", "162149.355000", "162149.358000", "162149.362000", "162149.377000", "162149.381000", "162149.384000", "162149.387000", "162229.288000", "162229.292000", "162229.295000", "162229.299000", "162229.302000", "162229.305000", "162229.308000", "162229.312000", "162229.315000", "162229.318000", "162229.322000", "162229.325000", "162229.328000", "162229.332000", "162229.335000", "162229.338000", "162229.342000", "162229.345000", "162229.348000", "162229.352000", "162229.355000", "162229.358000", "162229.361000", "162229.365000", "162229.368000", "162229.371000", "162229.374000", "162309.289000", "162309.293000", "162309.296000", "162309.299000", "162309.303000", "162309.306000", "162309.309000", "162309.312000", "162309.316000", "162309.319000", "162309.322000", "162309.326000", "162309.329000", "162309.332000", "162309.335000", "162309.339000", "162309.342000", "162309.345000", "162309.349000", "162309.352000", "162309.355000", "162309.358000", "162309.362000", "162309.365000", "162309.368000", "162309.371000", "162349.289000", "162349.293000", "162349.296000", "162349.300000", "162349.303000", "162349.306000", "162349.309000", "162349.313000", "162349.316000", "162349.319000", "162349.322000", "162349.326000", "162349.329000", "162349.332000", "162349.335000", "162349.339000", "162349.342000", "162349.345000", "162349.349000", "162349.352000", "162349.355000", "162349.358000", "162349.362000", "162349.365000", "162349.368000", "162349.371000", "162349.375000", "162429.290000", "162429.293000", "162429.297000", "162429.300000", "162429.303000", "162429.307000", "162429.310000", "162429.313000", "162429.334000", "162429.337000", "162429.341000", "162429.344000", "162429.347000", "162429.350000", "162429.354000", "162429.357000", "162429.360000", "162429.364000", "162429.367000", "162429.370000", "162429.373000", "162429.377000", "162429.380000", "162429.383000", "162429.386000", "162429.390000", "162429.393000", "162509.289000", "162509.293000", "162509.296000", "162509.299000", "162509.303000", "162509.306000", "162509.309000", "162509.312000", "162509.316000", "162509.319000", "162509.322000", "162509.326000", "162509.329000", "162509.332000", "162509.335000", "162509.339000", "162509.342000", "162509.345000", "162509.348000", "162509.352000", "162509.355000", "162509.358000", "162509.361000", "162509.365000", "162509.368000", "162509.371000", "162509.374000", "162549.289000", "162549.293000", "162549.296000", "162549.299000", "162549.303000", "162549.306000", "162549.309000", "162549.318000", "162549.322000", "162549.325000", "162549.328000", "162549.331000", "162549.335000", "162549.338000", "162549.341000", "162549.345000", "162549.348000", "162549.351000", "162549.355000", "162549.358000", "162549.361000", "162549.365000", "162549.368000", "162549.371000", "162549.375000", "162549.378000", "162549.381000", "162629.289000", "162629.293000", "162629.296000", "162629.299000", "162629.302000", "162629.306000", "162629.309000", "162629.312000", "162629.315000", "162629.319000", "162629.322000", "162629.325000", "162629.328000", "162629.332000", "162629.335000", "162629.338000", "162629.342000", "162629.345000", "162629.348000", "162629.357000", "162629.360000", "162629.364000", "162629.367000", "162629.370000", "162629.374000", "162629.377000", "162629.380000", "162709.289000", "162709.294000", "162709.298000", "162709.301000", "162709.304000", "162709.308000", "162709.311000", "162709.314000", "162709.317000", "162709.321000", "162709.324000", "162709.327000", "162709.331000", "162709.334000", "162709.337000", "162709.340000", "162709.344000", "162709.347000", "162709.350000", "162709.353000", "162709.357000", "162709.360000", "162709.363000", "162709.366000", "162709.370000", "162709.373000", "162749.290000", "162749.293000", "162749.297000", "162749.300000", "162749.304000", "162749.309000", "162749.312000", "162749.316000", "162749.319000", "162749.323000", "162749.326000", "162749.329000", "162749.333000", "162749.336000", "162749.340000", "162749.343000", "162749.347000", "162749.350000", "162749.353000", "162749.357000", "162749.360000", "162749.363000", "162749.367000", "162749.370000", "162749.374000", "162749.377000", "162749.381000", "162829.289000", "162829.293000", "162829.296000", "162829.300000", "162829.303000", "162829.306000", "162829.310000", "162829.313000", "162829.316000", "162829.319000", "162829.323000", "162829.326000", "162829.329000", "162829.333000", "162829.336000", "162829.339000", "162829.343000", "162829.346000", "162829.349000", "162829.352000", "162829.356000", "162829.359000", "162829.362000", "162829.365000", "162829.369000", "162829.372000", "162829.375000", "162831.364000", "162831.368000"],
      "InstanceCreationTime": ["161929.326000", "161929.329000", "161929.332000", "161929.336000", "161929.339000", "161929.342000", "161929.346000", "161929.349000", "161929.352000", "161929.355000", "161929.359000", "161929.362000", "161929.365000", "161929.368000", "161929.372000", "161929.375000", "161929.378000", "161929.382000", "161929.385000", "161929.388000", "161929.391000", "161929.395000", "161929.398000", "161929.401000", "161929.404000", "161929.407000", "161929.411000", "161929.414000", "161929.417000", "161929.428000", "161929.432000", "161929.435000", "161929.438000", "161929.441000", "161949.289000", "161949.293000", "161949.296000", "161949.299000", "161949.302000", "161949.313000", "161949.316000", "161949.319000", "161949.323000", "161949.326000", "161949.329000", "161949.332000", "161949.336000", "161949.339000", "161949.342000", "161949.345000", "161949.348000", "161949.352000", "161949.355000", "161949.358000", "162009.288000", "162009.292000", "162009.295000", "162009.298000", "162009.301000", "162009.305000", "162009.308000", "162009.311000", "162009.315000", "162009.318000", "162009.321000", "162009.324000", "162009.327000", "162009.331000", "162009.334000", "162009.337000", "162009.341000", "162009.344000", "162009.347000", "162009.350000", "162029.289000", "162029.293000", "162029.303000", "162029.307000", "162029.310000", "162029.313000", "162029.317000", "162029.320000", "162029.323000", "162029.326000", "162029.330000", "162029.333000", "162029.336000", "162029.340000", "162029.343000", "162029.347000", "162029.350000", "162029.353000", "162029.356000", "162029.360000", "162109.289000", "162109.293000", "162109.296000", "162109.299000", "162109.302000", "162109.306000", "162109.309000", "162109.312000", "162109.316000", "162109.319000", "162109.322000", "162109.325000", "162109.329000", "162109.332000", "162109.335000", "162109.338000", "162109.342000", "162109.345000", "162109.348000", "162109.351000", "162109.355000", "162109.358000", "162109.361000", "162109.364000", "162109.368000", "162109.371000", "162109.374000", "162109.377000", "162109.381000", "162109.384000", "162109.387000", "162149.289000", "162149.293000", "162149.296000", "162149.299000", "162149.302000", "162149.306000", "162149.309000", "162149.312000", "162149.316000", "162149.319000", "162149.322000", "162149.326000", "162149.329000", "162149.332000", "162149.335000", "162149.339000", "162149.342000", "162149.345000", "162149.349000", "162149.352000", "162149.355000", "162149.358000", "162149.362000", "162149.377000", "162149.381000", "162149.384000", "162149.387000", "162229.288000", "162229.292000", "162229.295000", "162229.299000", "162229.302000", "162229.305000", "162229.308000", "162229.312000", "162229.315000", "162229.318000", "162229.322000", "162229.325000", "162229.328000", "162229.332000", "162229.335000", "162229.338000", "162229.342000", "162229.345000", "162229.348000", "162229.352000", "162229.355000", "162229.358000", "162229.361000", "162229.365000", "162229.368000", "162229.371000", "162229.374000", "162309.289000", "162309.293000", "162309.296000", "162309.299000", "162309.303000", "162309.306000", "162309.309000", "162309.312000", "162309.316000", "162309.319000", "162309.322000", "162309.326000", "162309.329000", "162309.332000", "162309.335000", "162309.339000", "162309.342000", "162309.345000", "162309.349000", "162309.352000", "162309.355000", "162309.358000", "162309.362000", "162309.365000", "162309.368000", "162309.371000", "162349.289000", "162349.293000", "162349.296000", "162349.300000", "162349.303000", "162349.306000", "162349.309000", "162349.313000", "162349.316000", "162349.319000", "162349.322000", "162349.326000", "162349.329000", "162349.332000", "162349.335000", "162349.339000", "162349.342000", "162349.345000", "162349.349000", "162349.352000", "162349.355000", "162349.358000", "162349.362000", "162349.365000", "162349.368000", "162349.371000", "162349.375000", "162429.290000", "162429.293000", "162429.297000", "162429.300000", "162429.303000", "162429.307000", "162429.310000", "162429.313000", "162429.334000", "162429.337000", "162429.341000", "162429.344000", "162429.347000", "162429.350000", "162429.354000", "162429.357000", "162429.360000", "162429.364000", "162429.367000", "162429.370000", "162429.373000", "162429.377000", "162429.380000", "162429.383000", "162429.386000", "162429.390000", "162429.393000", "162509.289000", "162509.293000", "162509.296000", "162509.299000", "162509.303000", "162509.306000", "162509.309000", "162509.312000", "162509.316000", "162509.319000", "162509.322000", "162509.326000", "162509.329000", "162509.332000", "162509.335000", "162509.339000", "162509.342000", "162509.345000", "162509.348000", "162509.352000", "162509.355000", "162509.358000", "162509.361000", "162509.365000", "162509.368000", "162509.371000", "162509.374000", "162549.289000", "162549.293000", "162549.296000", "162549.299000", "162549.303000", "162549.306000", "162549.309000", "162549.318000", "162549.322000", "162549.325000", "162549.328000", "162549.331000", "162549.335000", "162549.338000", "162549.341000", "162549.345000", "162549.348000", "162549.351000", "162549.355000", "162549.358000", "162549.361000", "162549.365000", "162549.368000", "162549.371000", "162549.375000", "162549.378000", "162549.381000", "162629.289000", "162629.293000", "162629.296000", "162629.299000", "162629.302000", "162629.306000", "162629.309000", "162629.312000", "162629.315000", "162629.319000", "162629.322000", "162629.325000", "162629.328000", "162629.332000", "162629.335000", "162629.338000", "162629.342000", "162629.345000", "162629.348000", "162629.357000", "162629.360000", "162629.364000", "162629.367000", "162629.370000", "162629.374000", "162629.377000", "162629.380000", "162709.289000", "162709.294000", "162709.298000", "162709.301000", "162709.304000", "162709.308000", "162709.311000", "162709.314000", "162709.317000", "162709.321000", "162709.324000", "162709.327000", "162709.331000", "162709.334000", "162709.337000", "162709.340000", "162709.344000", "162709.347000", "162709.350000", "162709.353000", "162709.357000", "162709.360000", "162709.363000", "162709.366000", "162709.370000", "162709.373000", "162749.290000", "162749.293000", "162749.297000", "162749.300000", "162749.304000", "162749.309000", "162749.312000", "162749.316000", "162749.319000", "162749.323000", "162749.326000", "162749.329000", "162749.333000", "162749.336000", "162749.340000", "162749.343000", "162749.347000", "162749.350000", "162749.353000", "162749.357000", "162749.360000", "162749.363000", "162749.367000", "162749.370000", "162749.374000", "162749.377000", "162749.381000", "162829.289000", "162829.293000", "162829.296000", "162829.300000", "162829.303000", "162829.306000", "162829.310000", "162829.313000", "162829.316000", "162829.319000", "162829.323000", "162829.326000", "162829.329000", "162829.333000", "162829.336000", "162829.339000", "162829.343000", "162829.346000", "162829.349000", "162829.352000", "162829.356000", "162829.359000", "162829.362000", "162829.365000", "162829.369000", "162829.372000", "162829.375000", "162831.364000", "162831.368000"],
