{
  "AcquisitionMatrixPE": 104,
  "AcquisitionNumber": 1,
  "AcquisitionTime": "16:04:10.975000",
  "BandwidthPerPixelPhaseEncode": 17.17,
  "BaseResolution": 104,
  "BodyPartExamined": "BRAIN",
  "CoilCombinationMethod": "Sum of Squares",
  "ConsistencyInfo": "N4_VE11C_LATEST_20160120",
  "ConversionSoftware": "dcm2niix",
  "ConversionSoftwareVersion": "v1.0.20211006",
  "DerivedVendorReportedEchoSpacing": 0.000560011,
  "DeviceSerialNumber": "167006",
  "DwellTime": 2.1e-06,
  "EchoTime": 0.037,
  "EchoTime1": 0.037,
  "EchoTime2": 0.001,
  "EchoTrainLength": 104,
  "EffectiveEchoSpacing": 0.000560011,
  "FlipAngle": 52,
  "HeudiconvVersion": "0.10.0",
  "ImageComments": "Unaliased MB4/PE3/LB",
  "ImageOrientationPatientDICOM": [0.999381, -0.0339889, 0.0091024, 0.0350738, 0.941561, -0.335011],
  "ImageOrientationText": "Tra>Cor(-19.6)>Sag(-0.2)",
  "ImageType": [
    "ORIGINAL",
    "PRIMARY",
    "P",
    "MB",
    "ND",
    "MOSAIC",
    "PHASE"
],
  "ImagingFrequency": 123.259,
  "InPlanePhaseEncodingDirectionDICOM": "COL",
  "InstitutionAddress": "Chemin Queen-Mary 4565,Montreal,District,CA,H3W 1W5",
  "InstitutionName": "IUGM",
  "InstitutionalDepartmentName": "Department",
  "MRAcquisitionType": "2D",
  "MagneticFieldStrength": 3,
  "Manufacturer": "Siemens",
  "ManufacturersModelName": "Prisma_fit",
  "MatrixCoilMode": "SENSE",
  "Modality": "MR",
  "MultibandAccelerationFactor": 4,
  "PartialFourier": 1,
  "PatientPosition": "HFS",
  "PercentPhaseFOV": 100,
  "PercentSampling": 100,
  "PhaseEncodingDirection": "j",
  "PhaseEncodingSteps": 104,
  "PhaseResolution": 1,
  "PixelBandwidth": 2290,
  "ProcedureStepDescription": "games^mario",
  "ProtocolName": "func_task-mario_run-02",
  "PulseSequenceDetails": "%CustomerSeq%\\cmrr_mbep2d_bold",
  "ReceiveCoilActiveElements": "HC1-7;NC1,2",
  "ReceiveCoilName": "HeadNeck_64",
  "ReconMatrixPE": 104,
  "RepetitionTime": 1.49,
  "SAR": 0.0724014,
  "ScanOptions": "FS",
  "ScanningSequence": "EP",
  "SequenceName": "epfid2d1_104",
  "SequenceVariant": "SK\\SS",
  "SeriesDescription": "func_task-mario_run-02",
  "SeriesNumber": 14,
  "ShimSetting": [630, -7258, -8828, 535, 21, -226, -71, -29],
  "SliceThickness": 2,
  "SliceTiming": [0, 0.7825, 0.0975, 0.8825, 0.195, 0.98, 0.2925, 1.0775, 0.3925, 1.175, 0.49, 1.2725, 0.5875, 1.3725, 0.685, 0, 0.7825, 0.0975, 0.8825, 0.195, 0.98, 0.2925, 1.0775, 0.3925, 1.175, 0.49, 1.2725, 0.5875, 1.3725, 0.685, 0, 0.7825, 0.0975, 0.8825, 0.195, 0.98, 0.2925, 1.0775, 0.3925, 1.175, 0.49, 1.2725, 0.5875, 1.3725, 0.685, 0, 0.7825, 0.0975, 0.8825, 0.195, 0.98, 0.2925, 1.0775, 0.3925, 1.175, 0.49, 1.2725, 0.5875, 1.3725, 0.685],
  "SoftwareVersions": "syngo MR E11",
  "SpacingBetweenSlices": 2,
  "StationName": "MRC35049",
  "TaskName": "mario",
  "TotalReadoutTime": 0.0576811,
  "TxRefAmp": 303.103,
  "WipMemBlock": "000a9c7d-f29e-4044-8bf4-941ea2883bd7||Sequence: R016 ve11c/master r/e634e98; Dec 19 2017 11:00:25 by eja",
  "dcmmeta_affine": [
    [-1.998761534690857, 0.07014752924442291, -0.005632412154227495, 103.50434112548828],
    [0.06797783076763153, 1.8831220865249634, -0.6702463030815125, -68.64328002929688],
    [0.01820480078458786, 0.6700226664543152, 1.8843402862548828, -66.67061614990234],
    [0.0, 0.0, 0.0, 1.0]
],
  "dcmmeta_reorient_transform": [
    [0.0, -1.0, 0.0, 103.0],
    [1.0, 0.0, 0.0, 0.0],
    [0.0, 0.0, 1.0, 0.0],
    [0.0, 0.0, 0.0, 1.0]
],
  "dcmmeta_shape": [104, 104, 60, 501],
  "dcmmeta_slice_dim": 2,
  "dcmmeta_version": 0.6,
  "global": {
    "const": {
      "AcquisitionMatrix": [104, 0, 0, 104],
      "AngioFlag": "N",
      "BitsAllocated": 16,
      "BitsStored": 16,
      "BodyPartExamined": "BRAIN",
      "Columns": 832,
      "EchoNumbers": 1,
      "EchoTime": 37.0,
      "EchoTrainLength": 104,
      "FlipAngle": 52.0,
      "HighBit": 15,
      "ImageOrientationPatient": [0.99938075824615, -0.0339889150803, 0.00910240072853, 0.03507376556891, 0.94156106083824, -0.3350113426169],
      "ImagePositionPatient": [-863.8124271751, -786.03081903285, 239.60343279689],
      "ImageType": [
        "ORIGINAL",
        "PRIMARY",
        "P",
        "MB",
        "ND",
        "MOSAIC"
],
      "ImagedNucleus": "1H",
      "ImagingFrequency": 123.258827,
      "InPlanePhaseEncodingDirection": "COL",
      "LargestImagePixelValue": 4095,
      "MRAcquisitionType": "2D",
      "MagneticFieldStrength": 3.0,
      "Manufacturer": "SIEMENS",
      "ManufacturerModelName": "Prisma_fit",
      "Modality": "MR",
      "NumberOfAverages": 1.0,
      "NumberOfPhaseEncodingSteps": 104,
      "PercentPhaseFieldOfView": 100.0,
      "PercentSampling": 100.0,
      "PerformedProcedureStepStartTime": "153054.468000",
      "PhotometricInterpretation": "MONOCHROME2",
      "PixelBandwidth": 2290.0,
      "PixelRepresentation": 0,
      "PixelSpacing": [2.0, 2.0],
      "ProtocolName": "func_task-mario_run-02",
      "RepetitionTime": 1490.0,
      "RescaleIntercept": -4096.0,
      "RescaleSlope": 2.0,
      "RescaleType": "US",
      "Rows": 832,
      "SAR": 0.07240135186515,
      "SamplesPerPixel": 1,
      "ScanOptions": "FS",
      "ScanningSequence": "EP",
      "SequenceName": "epfid2d1_104",
      "SequenceVariant": [
        "SK",
        "SS"
],
      "SeriesDescription": "func_task-mario_run-02",
      "SeriesNumber": 14,
      "SeriesTime": "160526.213000",
      "SliceLocation": -40.102597425384,
      "SliceThickness": 2.0,
      "SmallestImagePixelValue": 0,
      "SoftwareVersions": "syngo MR E11",
      "SpacingBetweenSlices": 2.0000000055432,
      "SpecificCharacterSet": "ISO_IR 100",
      "StudyID": "1",
      "StudyTime": "153054.388000",
      "TransmitCoilName": "Body",
      "VariableFlipAngleFlag": "N",
      "WindowCenterWidthExplanation": "Algo1",
      "dBdt": 0.0},
    "slices": {}
  },
  "time": {
    "samples": {
      "AcquisitionNumber": [1, 2, 3, 4, 5, 6, 7, 8, 9, 10, 11, 12, 13, 14, 15, 16, 17, 18, 19, 20, 21, 22, 23, 24, 25, 26, 27, 28, 29, 30, 31, 32, 33, 34, 35, 36, 37, 38, 39, 40, 41, 42, 43, 44, 45, 46, 47, 48, 49, 50, 51, 52, 53, 54, 55, 56, 57, 58, 59, 60, 61, 62, 63, 64, 65, 66, 67, 68, 69, 70, 71, 72, 73, 74, 75, 76, 77, 78, 79, 80, 81, 82, 83, 84, 85, 86, 87, 88, 89, 90, 91, 92, 93, 94, 95, 96, 97, 98, 99, 100, 101, 102, 103, 104, 105, 106, 107, 108, 109, 110, 111, 112, 113, 114, 115, 116, 117, 118, 119, 120, 121, 122, 123, 124, 125, 126, 127, 128, 129, 130, 131, 132, 133, 134, 135, 136, 137, 138, 139, 140, 141, 142, 143, 144, 145, 146, 147, 148, 149, 150, 151, 152, 153, 154, 155, 156, 157, 158, 159, 160, 161, 162, 163, 164, 165, 166, 167, 168, 169, 170, 171, 172, 173, 174, 175, 176, 177, 178, 179, 180, 181, 182, 183, 184, 185, 186, 187, 188, 189, 190, 191, 192, 193, 194, 195, 196, 197, 198, 199, 200, 201, 202, 203, 204, 205, 206, 207, 208, 209, 210, 211, 212, 213, 214, 215, 216, 217, 218, 219, 220, 221, 222, 223, 224, 225, 226, 227, 228, 229, 230, 231, 232, 233, 234, 235, 236, 237, 238, 239, 240, 241, 242, 243, 244, 245, 246, 247, 248, 249, 250, 251, 252, 253, 254, 255, 256, 257, 258, 259, 260, 261, 262, 263, 264, 265, 266, 267, 268, 269, 270, 271, 272, 273, 274, 275, 276, 277, 278, 279, 280, 281, 282, 283, 284, 285, 286, 287, 288, 289, 290, 291, 292, 293, 294, 295, 296, 297, 298, 299, 300, 301, 302, 303, 304, 305, 306, 307, 308, 309, 310, 311, 312, 313, 314, 315, 316, 317, 318, 319, 320, 321, 322, 323, 324, 325, 326, 327, 328, 329, 330, 331, 332, 333, 334, 335, 336, 337, 338, 339, 340, 341, 342, 343, 344, 345, 346, 347, 348, 349, 350, 351, 352, 353, 354, 355, 356, 357, 358, 359, 360, 361, 362, 363, 364, 365, 366, 367, 368, 369, 370, 371, 372, 373, 374, 375, 376, 377, 378, 379, 380, 381, 382, 383, 384, 385, 386, 387, 388, 389, 390, 391, 392, 393, 394, 395, 396, 397, 398, 399, 400, 401, 402, 403, 404, 405, 406, 407, 408, 409, 410, 411, 412, 413, 414, 415, 416, 417, 418, 419, 420, 421, 422, 423, 424, 425, 426, 427, 428, 429, 430, 431, 432, 433, 434, 435, 436, 437, 438, 439, 440, 441, 442, 443, 444, 445, 446, 447, 448, 449, 450, 451, 452, 453, 454, 455, 456, 457, 458, 459, 460, 461, 462, 463, 464, 465, 466, 467, 468, 469, 470, 471, 472, 473, 474, 475, 476, 477, 478, 479, 480, 481, 482, 483, 484, 485, 486, 487, 488, 489, 490, 491, 492, 493, 494, 495, 496, 497, 498, 499, 500, 501],
      "AcquisitionTime": ["160410.975000", "160412.465000", "160413.955000", "160415.445000", "160416.935000", "160418.425000", "160419.915000", "160421.405000", "160422.895000", "160424.385000", "160425.875000", "160427.365000", "160428.855000", "160430.345000", "160431.835000", "160433.325000", "160434.815000", "160436.305000", "160437.795000", "160439.285000", "160440.775000", "160442.265000", "160443.755000", "160445.245000", "160446.735000", "160448.225000", "160449.715000", "160451.205000", "160452.695000", "160454.185000", "160455.675000", "160457.165000", "160458.655000", "160500.145000", "160501.635000", "160503.125000", "160504.615000", "160506.105000", "160507.595000", "160509.085000", "160510.575000", "160512.065000", "160513.555000", "160515.045000", "160516.535000", "160518.025000", "160519.515000", "160521.005000", "160522.495000", "160523.985000", "160525.475000", "160526.965000", "160528.455000", "160529.945000", "160531.435000", "160532.925000", "160534.415000", "160535.905000", "160537.395000", "160538.885000", "160540.375000", "160541.865000", "160543.355000", "160544.845000", "160546.335000", "160547.825000", "160549.315000", "160550.805000", "160552.295000", "160553.785000", "160555.275000", "160556.765000", "160558.255000", "160559.745000", "160601.235000", "160602.725000", "160604.215000", "160605.705000", "160607.195000", "160608.685000", "160610.175000", "160611.665000", "160613.155000", "160614.645000", "160616.135000", "160617.625000", "160619.115000", "160620.605000", "160622.095000", "160623.585000", "160625.075000", "160626.565000", "160628.055000", "160629.545000", "160631.035000", "160632.525000", "160634.015000", "160635.505000", "160636.995000", "160638.485000", "160639.975000", "160641.465000", "160642.955000", "160644.445000", "160645.935000", "160647.425000", "160648.915000", "160650.405000", "160651.895000", "160653.385000", "160654.875000", "160656.365000", "160657.855000", "160659.345000", "160700.835000", "160702.325000", "160703.815000", "160705.305000", "160706.795000", "160708.285000", "160709.775000", "160711.265000", "160712.755000", "160714.245000", "160715.735000", "160717.225000", "160718.715000", "160720.205000", "160721.695000", "160723.185000", "160724.675000", "160726.165000", "160727.655000", "160729.145000", "160730.635000", "160732.125000", "160733.615000", "160735.105000", "160736.595000", "160738.085000", "160739.575000", "160741.065000", "160742.555000", "160744.045000", "160745.535000", "160747.025000", "160748.515000", "160750.005000", "160751.495000", "160752.985000", "160754.475000", "160755.965000", "160757.455000", "160758.945000", "160800.435000", "160801.925000", "160803.415000", "160804.905000", "160806.395000", "160807.885000", "160809.375000", "160810.865000", "160812.355000", "160813.845000", "160815.335000", "160816.825000", "160818.315000", "160819.805000", "160821.295000", "160822.785000", "160824.275000", "160825.765000", "160827.255000", "160828.745000", "160830.235000", "160831.725000", "160833.215000", "160834.705000", "160836.195000", "160837.685000", "160839.175000", "160840.665000", "160842.155000", "160843.645000", "160845.135000", "160846.625000", "160848.115000", "160849.605000", "160851.095000", "160852.585000", "160854.075000", "160855.565000", "160857.055000", "160858.545000", "160900.035000", "160901.525000", "160903.015000", "160904.505000", "160905.995000", "160907.485000", "160908.975000", "160910.465000", "160911.955000", "160913.445000", "160914.935000", "160916.425000", "160917.915000", "160919.405000", "160920.895000", "160922.385000", "160923.875000", "160925.365000", "160926.855000", "160928.345000", "160929.835000", "160931.325000", "160932.815000", "160934.305000", "160935.795000", "160937.285000", "160938.775000", "160940.265000", "160941.755000", "160943.245000", "160944.735000", "160946.225000", "160947.715000", "160949.205000", "160950.695000", "160952.185000", "160953.675000", "160955.165000", "160956.655000", "160958.145000", "160959.635000", "161001.125000", "161002.615000", "161004.105000", "161005.595000", "161007.085000", "161008.575000", "161010.065000", "161011.555000", "161013.045000", "161014.535000", "161016.025000", "161017.515000", "161019.005000", "161020.495000", "161021.985000", "161023.475000", "161024.965000", "161026.455000", "161027.945000", "161029.435000", "161030.925000", "161032.415000", "161033.905000", "161035.395000", "161036.885000", "161038.375000", "161039.865000", "161041.355000", "161042.845000", "161044.335000", "161045.825000", "161047.315000", "161048.805000", "161050.295000", "161051.785000", "161053.275000", "161054.765000", "161056.255000", "161057.745000", "161059.235000", "161100.725000", "161102.215000", "161103.705000", "161105.195000", "161106.685000", "161108.175000", "161109.665000", "161111.155000", "161112.645000", "161114.135000", "161115.625000", "161117.115000", "161118.605000", "161120.095000", "161121.585000", "161123.075000", "161124.565000", "161126.055000", "161127.545000", "161129.035000", "161130.525000", "161132.015000", "161133.505000", "161134.995000", "161136.485000", "161137.975000", "161139.465000", "161140.955000", "161142.445000", "161143.935000", "161145.425000", "161146.915000", "161148.405000", "161149.895000", "161151.385000", "161152.875000", "161154.365000", "161155.855000", "161157.345000", "161158.835000", "161200.325000", "161201.815000", "161203.305000", "161204.795000", "161206.285000", "161207.775000", "161209.265000", "161210.755000", "161212.245000", "161213.735000", "161215.225000", "161216.715000", "161218.205000", "161219.695000", "161221.185000", "161222.675000", "161224.165000", "161225.655000", "161227.145000", "161228.635000", "161230.125000", "161231.615000", "161233.105000", "161234.595000", "161236.085000", "161237.575000", "161239.065000", "161240.555000", "161242.045000", "161243.535000", "161245.025000", "161246.515000", "161248.005000", "161249.495000", "161250.985000", "161252.475000", "161253.965000", "161255.455000", "161256.945000", "161258.435000", "161259.925000", "161301.415000", "161302.905000", "161304.395000", "161305.885000", "161307.375000", "161308.865000", "161310.355000", "161311.845000", "161313.335000", "161314.825000", "161316.315000", "161317.805000", "161319.295000", "161320.785000", "161322.275000", "161323.765000", "161325.255000", "161326.745000", "161328.235000", "161329.725000", "161331.215000", "161332.705000", "161334.195000", "161335.685000", "161337.175000", "161338.665000", "161340.155000", "161341.645000", "161343.135000", "161344.625000", "161346.115000", "161347.605000", "161349.095000", "161350.585000", "161352.075000", "161353.565000", "161355.055000", "161356.545000", "161358.035000", "161359.525000", "161401.015000", "161402.505000", "161403.995000", "161405.485000", "161406.975000", "161408.465000", "161409.955000", "161411.445000", "161412.935000", "161414.425000", "161415.915000", "161417.405000", "161418.895000", "161420.385000", "161421.875000", "161423.365000", "161424.855000", "161426.345000", "161427.835000", "161429.325000", "161430.815000", "161432.305000", "161433.795000", "161435.285000", "161436.775000", "161438.265000", "161439.755000", "161441.245000", "161442.735000", "161444.225000", "161445.715000", "161447.205000", "161448.695000", "161450.185000", "161451.675000", "161453.165000", "161454.655000", "161456.145000", "161457.635000", "161459.125000", "161500.615000", "161502.105000", "161503.595000", "161505.085000", "161506.575000", "161508.065000", "161509.555000", "161511.045000", "161512.535000", "161514.025000", "161515.515000", "161517.005000", "161518.495000", "161519.985000", "161521.475000", "161522.965000", "161524.455000", "161525.945000", "161527.435000", "161528.925000", "161530.415000", "161531.905000", "161533.395000", "161534.885000", "161536.375000", "161537.865000", "161539.355000", "161540.845000", "161542.335000", "161543.825000", "161545.315000", "161546.805000", "161548.295000", "161549.785000", "161551.275000", "161552.765000", "161554.255000", "161555.745000", "161557.235000", "161558.725000", "161600.215000", "161601.705000", "161603.195000", "161604.685000", "161606.175000", "161607.665000", "161609.155000", "161610.645000", "161612.135000", "161613.625000", "161615.115000", "161616.605000", "161618.095000", "161619.585000", "161621.075000", "161622.565000", "161624.055000", "161625.545000", "161627.035000", "161628.525000", "161630.015000", "161631.505000", "161632.995000", "161634.485000", "161635.975000"],
      "ContentTime": ["160526.215000", "160526.218000", "160526.221000", "160526.223000", "160526.226000", "160526.228000", "160526.231000", "160526.233000", "160526.236000", "160526.238000", "160526.240000", "160526.243000", "160526.245000", "160526.248000", "160526.250000", "160526.253000", "160526.255000", "160526.258000", "160526.266000", "160526.268000", "160546.144000", "160546.147000", "160546.150000", "160546.152000", "160546.154000", "160546.157000", "160546.159000", "160546.162000", "160546.164000", "160546.167000", "160546.169000", "160546.172000", "160546.174000", "160546.177000", "160546.179000", "160546.181000", "160546.184000", "160546.186000", "160546.189000", "160546.191000", "160546.194000", "160606.154000", "160606.157000", "160606.160000", "160606.162000", "160606.165000", "160606.167000", "160606.169000", "160606.172000", "160606.174000", "160606.177000", "160606.179000", "160606.182000", "160606.184000", "160606.186000", "160606.189000", "160606.191000", "160606.194000", "160606.196000", "160606.199000", "160606.201000", "160626.604000", "160626.607000", "160626.610000", "160626.612000", "160626.614000", "160626.617000", "160626.619000", "160626.622000", "160626.624000", "160626.627000", "160626.629000", "160626.632000", "160626.634000", "160626.637000", "160626.639000", "160626.642000", "160626.644000", "160626.647000", "160626.649000", "160626.652000", "160646.153000", "160646.156000", "160646.159000", "160646.161000", "160646.164000", "160646.166000", "160646.168000", "160646.171000", "160646.173000", "160646.176000", "160646.178000", "160646.181000", "160646.183000", "160646.186000", "160646.188000", "160646.191000", "160646.193000", "160646.195000", "160646.198000", "160646.200000", "160726.184000", "160726.187000", "160726.189000", "160726.192000", "160726.194000", "160726.197000", "160726.199000", "160726.202000", "160726.204000", "160726.207000", "160726.209000", "160726.211000", "160726.214000", "160726.216000", "160726.219000", "160726.221000", "160726.224000", "160726.226000", "160726.229000", "160726.231000", "160726.234000", "160726.236000", "160726.239000", "160726.241000", "160726.244000", "160726.246000", "160726.261000", "160726.264000", "160726.266000", "160806.221000", "160806.223000", "160806.226000", "160806.228000", "160806.231000", "160806.233000", "160806.236000", "160806.238000", "160806.240000", "160806.243000", "160806.245000", "160806.248000", "160806.250000", "160806.253000", "160806.255000", "160806.258000", "160806.260000", "160806.263000", "160806.265000", "160806.267000", "160806.270000", "160806.272000", "160806.275000", "160806.277000", "160806.280000", "160806.282000", "160806.285000", "160846.204000", "160846.206000", "160846.209000", "160846.211000", "160846.214000", "160846.216000", "160846.219000", "160846.221000", "160846.224000", "160846.226000", "160846.229000", "160846.231000", "160846.241000", "160846.244000", "160846.246000", "160846.249000", "160846.251000", "160846.254000", "160846.256000", "160846.258000", "160846.261000", "160846.263000", "160846.266000", "160846.268000", "160846.271000", "160846.273000", "160846.276000", "160926.178000", "160926.181000", "160926.183000", "160926.185000", "160926.188000", "160926.190000", "160926.193000", "160926.195000", "160926.198000", "160926.200000", "160926.203000", "160926.205000", "160926.208000", "160926.210000", "160926.213000", "160926.215000", "160926.217000", "160926.220000", "160926.222000", "160926.225000", "160926.227000", "160926.230000", "160926.232000", "160926.234000", "160926.237000", "160926.239000", "160926.242000", "161006.185000", "161006.188000", "161006.190000", "161006.193000", "161006.195000", "161006.198000", "161006.208000", "161006.210000", "161006.213000", "161006.215000", "161006.218000", "161006.220000", "161006.223000", "161006.225000", "161006.228000", "161006.230000", "161006.233000", "161006.235000", "161006.237000", "161006.240000", "161006.242000", "161006.245000", "161006.247000", "161006.250000", "161006.252000", "161006.255000", "161006.257000", "161046.193000", "161046.196000", "161046.198000", "161046.200000", "161046.203000", "161046.205000", "161046.208000", "161046.210000", "161046.213000", "161046.215000", "161046.218000", "161046.220000", "161046.223000", "161046.225000", "161046.228000", "161046.230000", "161046.233000", "161046.235000", "161046.237000", "161046.240000", "161046.242000", "161046.245000", "161046.247000", "161046.250000", "161046.252000", "161046.255000", "161046.257000", "161126.270000", "161126.273000", "161126.275000", "161126.278000", "161126.280000", "161126.283000", "161126.285000", "161126.288000", "161126.290000", "161126.293000", "161126.295000", "161126.298000", "161126.300000", "161126.303000", "161126.305000", "161126.307000", "161126.310000", "161126.312000", "161126.315000", "161126.317000", "161126.320000", "161126.322000", "161126.324000", "161126.327000", "161126.329000", "161126.332000", "161206.175000", "161206.183000", "161206.185000", "161206.188000", "161206.190000", "161206.193000", "161206.195000", "161206.198000", "161206.200000", "161206.203000", "161206.205000", "161206.208000", "161206.210000", "161206.213000", "161206.215000", "161206.218000", "161206.220000", "161206.223000", "161206.225000", "161206.228000", "161206.230000", "161206.233000", "161206.236000", "161206.238000", "161206.241000", "161206.243000", "161206.245000", "161246.198000", "161246.200000", "161246.203000", "161246.205000", "161246.208000", "161246.210000", "161246.213000", "161246.215000", "161246.217000", "161246.220000", "161246.222000", "161246.225000", "161246.227000", "161246.230000", "161246.232000", "161246.235000", "161246.237000", "161246.240000", "161246.242000", "161246.244000", "161246.247000", "161246.249000", "161246.252000", "161246.254000", "161246.257000", "161246.259000", "161246.267000", "161326.180000", "161326.182000", "161326.185000", "161326.187000", "161326.190000", "161326.192000", "161326.195000", "161326.197000", "161326.200000", "161326.202000", "161326.205000", "161326.207000", "161326.209000", "161326.212000", "161326.214000", "161326.217000", "161326.219000", "161326.222000", "161326.224000", "161326.227000", "161326.229000", "161326.232000", "161326.234000", "161326.237000", "161326.239000", "161326.242000", "161326.244000", "161406.189000", "161406.191000", "161406.194000", "161406.196000", "161406.199000", "161406.201000", "161406.204000", "161406.206000", "161406.209000", "161406.217000", "161406.219000", "161406.222000", "161406.224000", "161406.227000", "161406.229000", "161406.232000", "161406.234000", "161406.237000", "161406.239000", "161406.242000", "161406.244000", "161406.247000", "161406.249000", "161406.251000", "161406.254000", "161406.256000", "161406.259000", "161446.186000", "161446.188000", "161446.191000", "161446.194000", "161446.196000", "161446.199000", "161446.202000", "161446.204000", "161446.207000", "161446.209000", "161446.212000", "161446.214000", "161446.217000", "161446.219000", "161446.222000", "161446.224000", "161446.226000", "161446.229000", "161446.231000", "161446.234000", "161446.236000", "161446.239000", "161446.241000", "161446.244000", "161446.246000", "161446.249000", "161446.251000", "161526.222000", "161526.225000", "161526.236000", "161526.238000", "161526.241000", "161526.243000", "161526.246000", "161526.248000", "161526.251000", "161526.253000", "161526.255000", "161526.258000", "161526.260000", "161526.263000", "161526.265000", "161526.268000", "161526.270000", "161526.273000", "161526.275000", "161526.278000", "161526.280000", "161526.283000", "161526.285000", "161526.288000", "161526.290000", "161526.293000", "161546.129000", "161546.132000", "161546.135000", "161546.137000", "161546.139000", "161546.142000", "161546.144000", "161546.147000", "161546.149000", "161546.152000", "161546.154000", "161546.157000", "161546.186000", "161546.189000", "161626.567000", "161626.570000", "161626.572000", "161626.575000", "161626.577000", "161626.580000", "161626.582000", "161626.585000", "161626.587000", "161626.590000", "161626.592000", "161626.595000", "161626.597000", "161626.600000", "161626.602000", "161626.605000", "161626.607000", "161626.610000", "161626.613000", "161626.615000", "161626.618000", "161626.620000", "161626.623000", "161626.625000", "161626.628000", "161626.630000", "161626.633000", "161638.955000", "161638.958000", "161638.960000", "161638.963000", "161638.965000", "161638.968000", "161638.970000", "161638.973000"],
