{
  "AcquisitionMatrixPE": 104,
  "AcquisitionNumber": 1,
  "AcquisitionTime": "16:31:3.295000",
  "BandwidthPerPixelPhaseEncode": 17.17,
  "BaseResolution": 104,
  "BodyPartExamined": "BRAIN",
  "CoilCombinationMethod": "Sum of Squares",
  "ConsistencyInfo": "N4_VE11C_LATEST_20160120",
  "ConversionSoftware": "dcm2niix",
  "ConversionSoftwareVersion": "v1.0.20211006",
  "DerivedVendorReportedEchoSpacing": 0.000560011,
  "DeviceSerialNumber": "167006",
  "DwellTime": 2.1e-06,
  "EchoTime": 0.037,
  "EchoTime1": 0.037,
  "EchoTime2": 0.001,
  "EchoTrainLength": 104,
  "EffectiveEchoSpacing": 0.000560011,
  "FlipAngle": 52,
  "HeudiconvVersion": "0.10.0",
  "ImageComments": "Unaliased MB4/PE3/LB",
  "ImageOrientationPatientDICOM": [0.999381, -0.0339889, 0.0091024, 0.0350738, 0.941561, -0.335011],
  "ImageOrientationText": "Tra>Cor(-19.6)>Sag(-0.2)",
  "ImageType": [
    "ORIGINAL",
    "PRIMARY",
    "P",
    "MB",
    "ND",
    "MOSAIC",
    "PHASE"
],
  "ImagingFrequency": 123.259,
  "InPlanePhaseEncodingDirectionDICOM": "COL",
  "InstitutionAddress": "Chemin Queen-Mary 4565,Montreal,District,CA,H3W 1W5",
  "InstitutionName": "IUGM",
  "InstitutionalDepartmentName": "Department",
  "MRAcquisitionType": "2D",
  "MagneticFieldStrength": 3,
  "Manufacturer": "Siemens",
  "ManufacturersModelName": "Prisma_fit",
  "MatrixCoilMode": "SENSE",
  "Modality": "MR",
  "MultibandAccelerationFactor": 4,
  "PartialFourier": 1,
  "PatientPosition": "HFS",
  "PercentPhaseFOV": 100,
  "PercentSampling": 100,
  "PhaseEncodingDirection": "j",
  "PhaseEncodingSteps": 104,
  "PhaseResolution": 1,
  "PixelBandwidth": 2290,
  "ProcedureStepDescription": "games^mario",
  "ProtocolName": "func_task-mario_run-04",
  "PulseSequenceDetails": "%CustomerSeq%\\cmrr_mbep2d_bold",
  "ReceiveCoilActiveElements": "HC1-7;NC1,2",
  "ReceiveCoilName": "HeadNeck_64",
  "ReconMatrixPE": 104,
  "RepetitionTime": 1.49,
  "SAR": 0.0724014,
  "ScanOptions": "FS",
  "ScanningSequence": "EP",
  "SequenceName": "epfid2d1_104",
  "SequenceVariant": "SK\\SS",
  "SeriesDescription": "func_task-mario_run-04",
  "SeriesNumber": 20,
  "ShimSetting": [630, -7258, -8828, 535, 21, -226, -71, -29],
  "SliceThickness": 2,
  "SliceTiming": [0, 0.7825, 0.0975, 0.8825, 0.195, 0.98, 0.2925, 1.0775, 0.3925, 1.175, 0.49, 1.2725, 0.5875, 1.3725, 0.685, 0, 0.7825, 0.0975, 0.8825, 0.195, 0.98, 0.2925, 1.0775, 0.3925, 1.175, 0.49, 1.2725, 0.5875, 1.3725, 0.685, 0, 0.7825, 0.0975, 0.8825, 0.195, 0.98, 0.2925, 1.0775, 0.3925, 1.175, 0.49, 1.2725, 0.5875, 1.3725, 0.685, 0, 0.7825, 0.0975, 0.8825, 0.195, 0.98, 0.2925, 1.0775, 0.3925, 1.175, 0.49, 1.2725, 0.5875, 1.3725, 0.685],
  "SoftwareVersions": "syngo MR E11",
  "SpacingBetweenSlices": 2,
  "StationName": "MRC35049",
  "TaskName": "mario",
  "TotalReadoutTime": 0.0576811,
  "TxRefAmp": 303.103,
  "WipMemBlock": "4466c799-e2ed-4eb5-b151-5a9fb6c4e409||Sequence: R016 ve11c/master r/e634e98; Dec 19 2017 11:00:25 by eja",
  "dcmmeta_affine": [
    [-1.998761534690857, 0.07014752924442291, -0.005632412154227495, 103.50434112548828],
    [0.06797783076763153, 1.8831220865249634, -0.6702463030815125, -68.64328002929688],
    [0.01820480078458786, 0.6700226664543152, 1.8843402862548828, -66.67061614990234],
    [0.0, 0.0, 0.0, 1.0]
],
  "dcmmeta_reorient_transform": [
    [0.0, -1.0, 0.0, 103.0],
    [1.0, 0.0, 0.0, 0.0],
    [0.0, 0.0, 1.0, 0.0],
    [0.0, 0.0, 0.0, 1.0]
],
  "dcmmeta_shape": [104, 104, 60, 440],
  "dcmmeta_slice_dim": 2,
  "dcmmeta_version": 0.6,
  "global": {
    "const": {
      "AcquisitionMatrix": [104, 0, 0, 104],
      "AngioFlag": "N",
      "BitsAllocated": 16,
      "BitsStored": 16,
      "BodyPartExamined": "BRAIN",
      "Columns": 832,
      "EchoNumbers": 1,
      "EchoTime": 37.0,
      "EchoTrainLength": 104,
      "FlipAngle": 52.0,
      "HighBit": 15,
      "ImageOrientationPatient": [0.99938075824615, -0.0339889150803, 0.00910240072853, 0.03507376556891, 0.94156106083824, -0.3350113426169],
      "ImagePositionPatient": [-863.8124271751, -786.03081903285, 239.60343279689],
      "ImageType": [
        "ORIGINAL",
        "PRIMARY",
        "P",
        "MB",
        "ND",
        "MOSAIC"
],
      "ImagedNucleus": "1H",
      "ImagingFrequency": 123.258836,
      "InPlanePhaseEncodingDirection": "COL",
      "LargestImagePixelValue": 4095,
      "MRAcquisitionType": "2D",
      "MagneticFieldStrength": 3.0,
      "Manufacturer": "SIEMENS",
      "ManufacturerModelName": "Prisma_fit",
      "Modality": "MR",
      "NumberOfAverages": 1.0,
      "NumberOfPhaseEncodingSteps": 104,
      "PercentPhaseFieldOfView": 100.0,
      "PercentSampling": 100.0,
      "PerformedProcedureStepStartTime": "153054.468000",
      "PhotometricInterpretation": "MONOCHROME2",
      "PixelBandwidth": 2290.0,
      "PixelRepresentation": 0,
      "PixelSpacing": [2.0, 2.0],
      "ProtocolName": "func_task-mario_run-04",
      "RepetitionTime": 1490.0,
      "RescaleIntercept": -4096.0,
      "RescaleSlope": 2.0,
      "RescaleType": "US",
      "Rows": 832,
      "SAR": 0.07240135186515,
      "SamplesPerPixel": 1,
      "ScanOptions": "FS",
      "ScanningSequence": "EP",
      "SequenceName": "epfid2d1_104",
      "SequenceVariant": [
        "SK",
        "SS"
],
      "SeriesDescription": "func_task-mario_run-04",
      "SeriesNumber": 20,
      "SeriesTime": "163226.908000",
      "SliceLocation": -40.102597425384,
      "SliceThickness": 2.0,
      "SmallestImagePixelValue": 0,
      "SoftwareVersions": "syngo MR E11",
      "SpacingBetweenSlices": 2.0000000055432,
      "SpecificCharacterSet": "ISO_IR 100",
      "StudyID": "1",
      "StudyTime": "153054.388000",
      "TransmitCoilName": "Body",
      "VariableFlipAngleFlag": "N",
      "WindowCenterWidthExplanation": "Algo1",
      "dBdt": 0.0},
    "slices": {}
  },
  "time": {
    "samples": {
      "AcquisitionNumber": [1, 2, 3, 4, 5, 6, 7, 8, 9, 10, 11, 12, 13, 14, 15, 16, 17, 18, 19, 20, 21, 22, 23, 24, 25, 26, 27, 28, 29, 30, 31, 32, 33, 34, 35, 36, 37, 38, 39, 40, 41, 42, 43, 44, 45, 46, 47, 48, 49, 50, 51, 52, 53, 54, 55, 56, 57, 58, 59, 60, 61, 62, 63, 64, 65, 66, 67, 68, 69, 70, 71, 72, 73, 74, 75, 76, 77, 78, 79, 80, 81, 82, 83, 84, 85, 86, 87, 88, 89, 90, 91, 92, 93, 94, 95, 96, 97, 98, 99, 100, 101, 102, 103, 104, 105, 106, 107, 108, 109, 110, 111, 112, 113, 114, 115, 116, 117, 118, 119, 120, 121, 122, 123, 124, 125, 126, 127, 128, 129, 130, 131, 132, 133, 134, 135, 136, 137, 138, 139, 140, 141, 142, 143, 144, 145, 146, 147, 148, 149, 150, 151, 152, 153, 154, 155, 156, 157, 158, 159, 160, 161, 162, 163, 164, 165, 166, 167, 168, 169, 170, 171, 172, 173, 174, 175, 176, 177, 178, 179, 180, 181, 182, 183, 184, 185, 186, 187, 188, 189, 190, 191, 192, 193, 194, 195, 196, 197, 198, 199, 200, 201, 202, 203, 204, 205, 206, 207, 208, 209, 210, 211, 212, 213, 214, 215, 216, 217, 218, 219, 220, 221, 222, 223, 224, 225, 226, 227, 228, 229, 230, 231, 232, 233, 234, 235, 236, 237, 238, 239, 240, 241, 242, 243, 244, 245, 246, 247, 248, 249, 250, 251, 252, 253, 254, 255, 256, 257, 258, 259, 260, 261, 262, 263, 264, 265, 266, 267, 268, 269, 270, 271, 272, 273, 274, 275, 276, 277, 278, 279, 280, 281, 282, 283, 284, 285, 286, 287, 288, 289, 290, 291, 292, 293, 294, 295, 296, 297, 298, 299, 300, 301, 302, 303, 304, 305, 306, 307, 308, 309, 310, 311, 312, 313, 314, 315, 316, 317, 318, 319, 320, 321, 322, 323, 324, 325, 326, 327, 328, 329, 330, 331, 332, 333, 334, 335, 336, 337, 338, 339, 340, 341, 342, 343, 344, 345, 346, 347, 348, 349, 350, 351, 352, 353, 354, 355, 356, 357, 358, 359, 360, 361, 362, 363, 364, 365, 366, 367, 368, 369, 370, 371, 372, 373, 374, 375, 376, 377, 378, 379, 380, 381, 382, 383, 384, 385, 386, 387, 388, 389, 390, 391, 392, 393, 394, 395, 396, 397, 398, 399, 400, 401, 402, 403, 404, 405, 406, 407, 408, 409, 410, 411, 412, 413, 414, 415, 416, 417, 418, 419, 420, 421, 422, 423, 424, 425, 426, 427, 428, 429, 430, 431, 432, 433, 434, 435, 436, 437, 438, 439, 440],
      "AcquisitionTime": ["163103.295000", "163104.785000", "163106.275000", "163107.765000", "163109.255000", "163110.745000", "163112.235000", "163113.725000", "163115.215000", "163116.705000", "163118.195000", "163119.685000", "163121.175000", "163122.665000", "163124.155000", "163125.645000", "163127.135000", "163128.625000", "163130.115000", "163131.605000", "163133.095000", "163134.585000", "163136.075000", "163137.565000", "163139.055000", "163140.545000", "163142.035000", "163143.525000", "163145.015000", "163146.505000", "163147.995000", "163149.485000", "163150.975000", "163152.465000", "163153.955000", "163155.445000", "163156.935000", "163158.425000", "163159.915000", "163201.405000", "163202.895000", "163204.385000", "163205.875000", "163207.365000", "163208.855000", "163210.345000", "163211.835000", "163213.325000", "163214.815000", "163216.305000", "163217.795000", "163219.285000", "163220.775000", "163222.265000", "163223.755000", "163225.245000", "163226.735000", "163228.225000", "163229.715000", "163231.205000", "163232.695000", "163234.185000", "163235.675000", "163237.165000", "163238.655000", "163240.145000", "163241.635000", "163243.125000", "163244.615000", "163246.105000", "163247.595000", "163249.085000", "163250.575000", "163252.065000", "163253.555000", "163255.045000", "163256.535000", "163258.025000", "163259.515000", "163301.005000", "163302.495000", "163303.985000", "163305.475000", "163306.965000", "163308.455000", "163309.945000", "163311.435000", "163312.925000", "163314.415000", "163315.905000", "163317.395000", "163318.885000", "163320.375000", "163321.865000", "163323.355000", "163324.845000", "163326.335000", "163327.825000", "163329.315000", "163330.805000", "163332.295000", "163333.785000", "163335.275000", "163336.765000", "163338.255000", "163339.745000", "163341.235000", "163342.725000", "163344.215000", "163345.705000", "163347.195000", "163348.685000", "163350.175000", "163351.665000", "163353.155000", "163354.645000", "163356.135000", "163357.625000", "163359.115000", "163400.605000", "163402.095000", "163403.585000", "163405.075000", "163406.565000", "163408.055000", "163409.545000", "163411.035000", "163412.525000", "163414.015000", "163415.505000", "163416.995000", "163418.485000", "163419.975000", "163421.465000", "163422.955000", "163424.445000", "163425.935000", "163427.425000", "163428.915000", "163430.405000", "163431.895000", "163433.385000", "163434.875000", "163436.365000", "163437.855000", "163439.345000", "163440.835000", "163442.325000", "163443.815000", "163445.305000", "163446.795000", "163448.285000", "163449.775000", "163451.265000", "163452.755000", "163454.245000", "163455.735000", "163457.225000", "163458.715000", "163500.205000", "163501.695000", "163503.185000", "163504.675000", "163506.165000", "163507.655000", "163509.145000", "163510.635000", "163512.125000", "163513.615000", "163515.105000", "163516.595000", "163518.085000", "163519.575000", "163521.065000", "163522.555000", "163524.045000", "163525.535000", "163527.025000", "163528.515000", "163530.005000", "163531.495000", "163532.985000", "163534.475000", "163535.965000", "163537.455000", "163538.945000", "163540.435000", "163541.925000", "163543.415000", "163544.905000", "163546.395000", "163547.885000", "163549.375000", "163550.865000", "163552.355000", "163553.845000", "163555.335000", "163556.825000", "163558.315000", "163559.805000", "163601.295000", "163602.785000", "163604.275000", "163605.765000", "163607.255000", "163608.745000", "163610.235000", "163611.725000", "163613.215000", "163614.705000", "163616.195000", "163617.685000", "163619.175000", "163620.665000", "163622.155000", "163623.645000", "163625.135000", "163626.625000", "163628.115000", "163629.605000", "163631.095000", "163632.585000", "163634.075000", "163635.565000", "163637.055000", "163638.545000", "163640.035000", "163641.525000", "163643.015000", "163644.505000", "163645.995000", "163647.485000", "163648.975000", "163650.465000", "163651.955000", "163653.445000", "163654.935000", "163656.425000", "163657.915000", "163659.405000", "163700.895000", "163702.385000", "163703.875000", "163705.365000", "163706.855000", "163708.345000", "163709.835000", "163711.325000", "163712.815000", "163714.305000", "163715.795000", "163717.285000", "163718.775000", "163720.265000", "163721.755000", "163723.245000", "163724.735000", "163726.225000", "163727.715000", "163729.205000", "163730.695000", "163732.185000", "163733.675000", "163735.165000", "163736.655000", "163738.145000", "163739.635000", "163741.125000", "163742.615000", "163744.105000", "163745.595000", "163747.085000", "163748.575000", "163750.065000", "163751.555000", "163753.045000", "163754.535000", "163756.025000", "163757.515000", "163759.005000", "163800.495000", "163801.985000", "163803.475000", "163804.965000", "163806.455000", "163807.945000", "163809.435000", "163810.925000", "163812.415000", "163813.905000", "163815.395000", "163816.885000", "163818.375000", "163819.865000", "163821.355000", "163822.845000", "163824.335000", "163825.825000", "163827.315000", "163828.805000", "163830.295000", "163831.785000", "163833.275000", "163834.765000", "163836.255000", "163837.745000", "163839.235000", "163840.725000", "163842.215000", "163843.705000", "163845.195000", "163846.685000", "163848.175000", "163849.665000", "163851.155000", "163852.645000", "163854.135000", "163855.625000", "163857.115000", "163858.605000", "163900.095000", "163901.585000", "163903.075000", "163904.565000", "163906.055000", "163907.545000", "163909.035000", "163910.525000", "163912.015000", "163913.505000", "163914.995000", "163916.485000", "163917.975000", "163919.465000", "163920.955000", "163922.445000", "163923.935000", "163925.425000", "163926.915000", "163928.405000", "163929.895000", "163931.385000", "163932.875000", "163934.365000", "163935.855000", "163937.345000", "163938.835000", "163940.325000", "163941.815000", "163943.305000", "163944.795000", "163946.285000", "163947.775000", "163949.265000", "163950.755000", "163952.245000", "163953.735000", "163955.225000", "163956.715000", "163958.205000", "163959.695000", "164001.185000", "164002.675000", "164004.165000", "164005.655000", "164007.145000", "164008.635000", "164010.125000", "164011.615000", "164013.105000", "164014.595000", "164016.085000", "164017.575000", "164019.065000", "164020.555000", "164022.045000", "164023.535000", "164025.025000", "164026.515000", "164028.005000", "164029.495000", "164030.985000", "164032.475000", "164033.965000", "164035.455000", "164036.945000", "164038.435000", "164039.925000", "164041.415000", "164042.905000", "164044.395000", "164045.885000", "164047.375000", "164048.865000", "164050.355000", "164051.845000", "164053.335000", "164054.825000", "164056.315000", "164057.805000", "164059.295000", "164100.785000", "164102.275000", "164103.765000", "164105.255000", "164106.745000", "164108.235000", "164109.725000", "164111.215000", "164112.705000", "164114.195000", "164115.685000", "164117.175000", "164118.665000", "164120.155000", "164121.645000", "164123.135000", "164124.625000", "164126.115000", "164127.605000", "164129.095000", "164130.585000", "164132.075000", "164133.565000", "164135.055000", "164136.545000", "164138.035000", "164139.525000", "164141.015000", "164142.505000", "164143.995000", "164145.485000", "164146.975000", "164148.465000", "164149.955000", "164151.445000", "164152.935000", "164154.425000", "164155.915000", "164157.405000"],
      "ContentTime": ["163226.910000", "163226.913000", "163226.915000", "163226.918000", "163226.930000", "163226.932000", "163226.935000", "163226.937000", "163226.940000", "163226.942000", "163226.945000", "163226.947000", "163226.950000", "163226.952000", "163226.955000", "163226.958000", "163226.961000", "163226.963000", "163226.966000", "163226.968000", "163226.971000", "163226.973000", "163226.976000", "163226.978000", "163226.981000", "163226.983000", "163226.986000", "163226.988000", "163226.991000", "163226.993000", "163246.798000", "163246.801000", "163246.804000", "163246.806000", "163246.809000", "163246.811000", "163246.813000", "163246.816000", "163246.818000", "163246.821000", "163246.823000", "163246.826000", "163246.828000", "163246.831000", "163246.833000", "163246.836000", "163246.838000", "163246.840000", "163246.843000", "163246.845000", "163306.802000", "163306.805000", "163306.807000", "163306.810000", "163306.812000", "163306.814000", "163306.817000", "163306.819000", "163306.822000", "163306.824000", "163306.827000", "163306.829000", "163306.831000", "163306.834000", "163306.836000", "163306.839000", "163306.841000", "163306.848000", "163306.851000", "163306.853000", "163326.824000", "163326.826000", "163326.829000", "163326.831000", "163326.834000", "163326.836000", "163326.839000", "163326.841000", "163326.844000", "163326.846000", "163326.848000", "163326.851000", "163326.853000", "163326.856000", "163326.858000", "163326.860000", "163326.863000", "163326.865000", "163326.868000", "163326.870000", "163406.872000", "163406.875000", "163406.877000", "163406.880000", "163406.882000", "163406.884000", "163406.887000", "163406.890000", "163406.892000", "163406.895000", "163406.897000", "163406.900000", "163406.902000", "163406.904000", "163406.907000", "163406.909000", "163406.912000", "163406.914000", "163406.917000", "163406.919000", "163406.922000", "163406.924000", "163406.927000", "163406.929000", "163406.931000", "163406.934000", "163406.936000", "163406.939000", "163406.941000", "163406.944000", "163406.946000", "163406.949000", "163446.829000", "163446.831000", "163446.834000", "163446.836000", "163446.839000", "163446.841000", "163446.844000", "163446.846000", "163446.849000", "163446.851000", "163446.854000", "163446.856000", "163446.859000", "163446.861000", "163446.863000", "163446.866000", "163446.868000", "163446.871000", "163446.873000", "163446.876000", "163446.878000", "163446.881000", "163446.883000", "163446.886000", "163446.888000", "163446.891000", "163446.893000", "163526.830000", "163526.833000", "163526.836000", "163526.838000", "163526.841000", "163526.843000", "163526.846000", "163526.848000", "163526.850000", "163526.853000", "163526.855000", "163526.858000", "163526.860000", "163526.863000", "163526.865000", "163526.867000", "163526.870000", "163526.873000", "163526.875000", "163526.878000", "163526.880000", "163526.883000", "163526.885000", "163526.888000", "163526.890000", "163526.893000", "163526.895000", "163546.771000", "163546.774000", "163546.776000", "163546.779000", "163546.781000", "163546.784000", "163546.786000", "163546.789000", "163546.791000", "163546.793000", "163546.796000", "163546.798000", "163546.801000", "163626.865000", "163626.868000", "163626.870000", "163626.872000", "163626.875000", "163626.877000", "163626.880000", "163626.882000", "163626.885000", "163626.887000", "163626.890000", "163626.892000", "163626.895000", "163626.897000", "163626.900000", "163626.902000", "163626.905000", "163626.907000", "163626.909000", "163626.912000", "163626.914000", "163626.917000", "163626.919000", "163626.922000", "163626.924000", "163626.927000", "163626.929000", "163706.845000", "163706.848000", "163706.850000", "163706.853000", "163706.855000", "163706.858000", "163706.860000", "163706.863000", "163706.865000", "163706.868000", "163706.870000", "163706.873000", "163706.875000", "163706.878000", "163706.880000", "163706.883000", "163706.885000", "163706.887000", "163706.890000", "163706.892000", "163706.895000", "163706.897000", "163706.900000", "163706.910000", "163706.913000", "163706.915000", "163706.918000", "163746.841000", "163746.844000", "163746.846000", "163746.849000", "163746.851000", "163746.854000", "163746.856000", "163746.859000", "163746.861000", "163746.863000", "163746.866000", "163746.868000", "163746.871000", "163746.873000", "163746.876000", "163746.878000", "163746.880000", "163746.883000", "163746.885000", "163746.888000", "163746.890000", "163746.893000", "163746.895000", "163746.897000", "163746.900000", "163746.902000", "163746.905000", "163826.854000", "163826.857000", "163826.860000", "163826.862000", "163826.864000", "163826.867000", "163826.869000", "163826.872000", "163826.874000", "163826.877000", "163826.879000", "163826.882000", "163826.884000", "163826.886000", "163826.889000", "163826.891000", "163826.894000", "163826.896000", "163826.899000", "163826.901000", "163826.904000", "163826.906000", "163826.909000", "163826.911000", "163826.913000", "163826.916000", "163906.846000", "163906.849000", "163906.858000", "163906.861000", "163906.863000", "163906.866000", "163906.868000", "163906.871000", "163906.873000", "163906.876000", "163906.878000", "163906.881000", "163906.883000", "163906.886000", "163906.896000", "163906.899000", "163906.901000", "163906.904000", "163906.906000", "163906.909000", "163906.911000", "163906.914000", "163906.916000", "163906.919000", "163906.921000", "163906.924000", "163906.926000", "163946.843000", "163946.845000", "163946.848000", "163946.851000", "163946.853000", "163946.855000", "163946.858000", "163946.860000", "163946.863000", "163946.865000", "163946.868000", "163946.870000", "163946.872000", "163946.875000", "163946.877000", "163946.880000", "163946.882000", "163946.885000", "163946.887000", "163946.890000", "163946.892000", "163946.895000", "163946.897000", "163946.899000", "163946.902000", "163946.904000", "163946.907000", "164026.840000", "164026.842000", "164026.845000", "164026.847000", "164026.850000", "164026.852000", "164026.855000", "164026.857000", "164026.860000", "164026.862000", "164026.865000", "164026.867000", "164026.870000", "164026.872000", "164026.875000", "164026.877000", "164026.880000", "164026.882000", "164026.885000", "164026.887000", "164026.890000", "164026.892000", "164026.895000", "164026.897000", "164026.900000", "164026.902000", "164026.905000", "164106.853000", "164106.856000", "164106.858000", "164106.861000", "164106.863000", "164106.866000", "164106.868000", "164106.871000", "164106.873000", "164106.876000", "164106.878000", "164106.881000", "164106.883000", "164106.886000", "164106.889000", "164106.891000", "164106.894000", "164106.896000", "164106.899000", "164106.901000", "164106.904000", "164106.906000", "164106.909000", "164106.911000", "164106.914000", "164106.916000", "164106.919000", "164147.256000", "164147.258000", "164147.261000", "164147.264000", "164147.266000", "164147.268000", "164147.271000", "164147.273000", "164147.276000", "164147.278000", "164147.281000", "164147.284000", "164147.286000", "164147.289000", "164147.291000", "164147.294000", "164147.297000", "164147.299000", "164147.302000", "164147.305000", "164147.307000", "164147.309000", "164147.312000", "164147.315000", "164147.317000", "164147.320000", "164147.322000", "164200.169000", "164200.172000", "164200.175000", "164200.177000", "164200.180000", "164200.182000", "164200.185000", "164200.187000", "164200.190000"],
