{
  "AcquisitionMatrixPE": 104,
  "AcquisitionNumber": 1,
  "AcquisitionTime": "15:50:32.427500",
  "BandwidthPerPixelPhaseEncode": 17.17,
  "BaseResolution": 104,
  "BodyPartExamined": "BRAIN",
  "CoilCombinationMethod": "Sum of Squares",
  "ConsistencyInfo": "N4_VE11C_LATEST_20160120",
  "ConversionSoftware": "dcm2niix",
  "ConversionSoftwareVersion": "v1.0.20211006",
  "DerivedVendorReportedEchoSpacing": 0.000560011,
  "DeviceSerialNumber": "167006",
  "DwellTime": 2.1e-06,
  "EchoTime": 0.037,
  "EchoTrainLength": 104,
  "EffectiveEchoSpacing": 0.000560011,
  "FlipAngle": 52,
  "HeudiconvVersion": "0.10.0",
  "ImageComments": "Unaliased MB4/PE3/LB",
  "ImageOrientationPatientDICOM": [0.999381, -0.0339889, 0.0091024, 0.0350738, 0.941561, -0.335011],
  "ImageOrientationText": "Tra>Cor(-19.6)>Sag(-0.2)",
  "ImageType": [
    "ORIGINAL",
    "PRIMARY",
    "M",
    "MB",
    "ND",
    "MOSAIC"
],
  "ImagingFrequency": 123.259,
  "InPlanePhaseEncodingDirectionDICOM": "COL",
  "InstitutionAddress": "Chemin Queen-Mary 4565,Montreal,District,CA,H3W 1W5",
  "InstitutionName": "IUGM",
  "InstitutionalDepartmentName": "Department",
  "MRAcquisitionType": "2D",
  "MagneticFieldStrength": 3,
  "Manufacturer": "Siemens",
  "ManufacturersModelName": "Prisma_fit",
  "MatrixCoilMode": "SENSE",
  "Modality": "MR",
  "MultibandAccelerationFactor": 4,
  "PartialFourier": 1,
  "PatientPosition": "HFS",
  "PercentPhaseFOV": 100,
  "PercentSampling": 100,
  "PhaseEncodingDirection": "j",
  "PhaseEncodingSteps": 104,
  "PhaseResolution": 1,
  "PixelBandwidth": 2290,
  "ProcedureStepDescription": "games^mario",
  "ProtocolName": "func_task-mario_run-01",
  "PulseSequenceDetails": "%CustomerSeq%\\cmrr_mbep2d_bold",
  "ReceiveCoilActiveElements": "HC1-7;NC1,2",
  "ReceiveCoilName": "HeadNeck_64",
  "ReconMatrixPE": 104,
  "RepetitionTime": 1.49,
  "SAR": 0.0724014,
  "ScanOptions": "FS",
  "ScanningSequence": "EP",
  "SequenceName": "epfid2d1_104",
  "SequenceVariant": "SK\\SS",
  "SeriesDescription": "func_task-mario_run-01",
  "SeriesNumber": 10,
  "ShimSetting": [630, -7258, -8828, 535, 21, -226, -71, -29],
  "SliceThickness": 2,
  "SliceTiming": [0, 0.785, 0.0975, 0.8825, 0.1975, 0.98, 0.295, 1.0775, 0.3925, 1.1775, 0.49, 1.275, 0.5875, 1.3725, 0.6875, 0, 0.785, 0.0975, 0.8825, 0.1975, 0.98, 0.295, 1.0775, 0.3925, 1.1775, 0.49, 1.275, 0.5875, 1.3725, 0.6875, 0, 0.785, 0.0975, 0.8825, 0.1975, 0.98, 0.295, 1.0775, 0.3925, 1.1775, 0.49, 1.275, 0.5875, 1.3725, 0.6875, 0, 0.785, 0.0975, 0.8825, 0.1975, 0.98, 0.295, 1.0775, 0.3925, 1.1775, 0.49, 1.275, 0.5875, 1.3725, 0.6875],
  "SoftwareVersions": "syngo MR E11",
  "SpacingBetweenSlices": 2,
  "StationName": "MRC35049",
  "TaskName": "mario",
  "TotalReadoutTime": 0.0576811,
  "TxRefAmp": 303.103,
  "WipMemBlock": "f37a222a-7eea-4c13-a7c3-f14fc979745a||Sequence: R016 ve11c/master r/e634e98; Dec 19 2017 11:00:25 by eja",
  "dcmmeta_affine": [
    [-1.998761534690857, 0.07014752924442291, -0.005632412154227495, 103.50434112548828],
    [0.06797783076763153, 1.8831220865249634, -0.6702463030815125, -68.64328002929688],
    [0.01820480078458786, 0.6700226664543152, 1.8843402862548828, -66.67061614990234],
    [0.0, 0.0, 0.0, 1.0]
],
  "dcmmeta_reorient_transform": [
    [0.0, -1.0, 0.0, 103.0],
    [1.0, 0.0, 0.0, 0.0],
    [0.0, 0.0, 1.0, 0.0],
    [0.0, 0.0, 0.0, 1.0]
],
  "dcmmeta_shape": [104, 104, 60, 487],
  "dcmmeta_slice_dim": 2,
  "dcmmeta_version": 0.6,
  "global": {
    "const": {
      "AcquisitionMatrix": [104, 0, 0, 104],
      "AngioFlag": "N",
      "BitsAllocated": 16,
      "BitsStored": 16,
      "BodyPartExamined": "BRAIN",
      "Columns": 832,
      "EchoNumbers": 1,
      "EchoTime": 37.0,
      "EchoTrainLength": 104,
      "FlipAngle": 52.0,
      "HighBit": 15,
      "ImageOrientationPatient": [0.99938075824615, -0.0339889150803, 0.00910240072853, 0.03507376556891, 0.94156106083824, -0.3350113426169],
      "ImagePositionPatient": [-863.8124271751, -786.03081903285, 239.60343279689],
      "ImageType": [
        "ORIGINAL",
        "PRIMARY",
        "M",
        "MB",
        "ND",
        "MOSAIC"
],
      "ImagedNucleus": "1H",
      "ImagingFrequency": 123.258816,
      "InPlanePhaseEncodingDirection": "COL",
      "MRAcquisitionType": "2D",
      "MagneticFieldStrength": 3.0,
      "Manufacturer": "SIEMENS",
      "ManufacturerModelName": "Prisma_fit",
      "Modality": "MR",
      "NumberOfAverages": 1.0,
      "NumberOfPhaseEncodingSteps": 104,
      "PercentPhaseFieldOfView": 100.0,
      "PercentSampling": 100.0,
      "PerformedProcedureStepStartTime": "153054.468000",
      "PhotometricInterpretation": "MONOCHROME2",
      "PixelBandwidth": 2290.0,
      "PixelRepresentation": 0,
      "PixelSpacing": [2.0, 2.0],
      "ProtocolName": "func_task-mario_run-01",
      "RepetitionTime": 1490.0,
      "Rows": 832,
      "SAR": 0.07240135186515,
      "SamplesPerPixel": 1,
      "ScanOptions": "FS",
      "ScanningSequence": "EP",
      "SequenceName": "epfid2d1_104",
      "SequenceVariant": [
        "SK",
        "SS"
],
      "SeriesDescription": "func_task-mario_run-01",
      "SeriesNumber": 10,
      "SeriesTime": "155146.743000",
      "SliceLocation": -40.102597425384,
      "SliceThickness": 2.0,
      "SmallestImagePixelValue": 0,
      "SoftwareVersions": "syngo MR E11",
      "SpacingBetweenSlices": 2.0000000055432,
      "SpecificCharacterSet": "ISO_IR 100",
      "StudyID": "1",
      "StudyTime": "153054.388000",
      "TransmitCoilName": "Body",
      "VariableFlipAngleFlag": "N",
      "WindowCenterWidthExplanation": "Algo1",
      "dBdt": 0.0},
    "slices": {}
  },
  "time": {
    "samples": {
      "AcquisitionNumber": [1, 2, 3, 4, 5, 6, 7, 8, 9, 10, 11, 12, 13, 14, 15, 16, 17, 18, 19, 20, 21, 22, 23, 24, 25, 26, 27, 28, 29, 30, 31, 32, 33, 34, 35, 36, 37, 38, 39, 40, 41, 42, 43, 44, 45, 46, 47, 48, 49, 50, 51, 52, 53, 54, 55, 56, 57, 58, 59, 60, 61, 62, 63, 64, 65, 66, 67, 68, 69, 70, 71, 72, 73, 74, 75, 76, 77, 78, 79, 80, 81, 82, 83, 84, 85, 86, 87, 88, 89, 90, 91, 92, 93, 94, 95, 96, 97, 98, 99, 100, 101, 102, 103, 104, 105, 106, 107, 108, 109, 110, 111, 112, 113, 114, 115, 116, 117, 118, 119, 120, 121, 122, 123, 124, 125, 126, 127, 128, 129, 130, 131, 132, 133, 134, 135, 136, 137, 138, 139, 140, 141, 142, 143, 144, 145, 146, 147, 148, 149, 150, 151, 152, 153, 154, 155, 156, 157, 158, 159, 160, 161, 162, 163, 164, 165, 166, 167, 168, 169, 170, 171, 172, 173, 174, 175, 176, 177, 178, 179, 180, 181, 182, 183, 184, 185, 186, 187, 188, 189, 190, 191, 192, 193, 194, 195, 196, 197, 198, 199, 200, 201, 202, 203, 204, 205, 206, 207, 208, 209, 210, 211, 212, 213, 214, 215, 216, 217, 218, 219, 220, 221, 222, 223, 224, 225, 226, 227, 228, 229, 230, 231, 232, 233, 234, 235, 236, 237, 238, 239, 240, 241, 242, 243, 244, 245, 246, 247, 248, 249, 250, 251, 252, 253, 254, 255, 256, 257, 258, 259, 260, 261, 262, 263, 264, 265, 266, 267, 268, 269, 270, 271, 272, 273, 274, 275, 276, 277, 278, 279, 280, 281, 282, 283, 284, 285, 286, 287, 288, 289, 290, 291, 292, 293, 294, 295, 296, 297, 298, 299, 300, 301, 302, 303, 304, 305, 306, 307, 308, 309, 310, 311, 312, 313, 314, 315, 316, 317, 318, 319, 320, 321, 322, 323, 324, 325, 326, 327, 328, 329, 330, 331, 332, 333, 334, 335, 336, 337, 338, 339, 340, 341, 342, 343, 344, 345, 346, 347, 348, 349, 350, 351, 352, 353, 354, 355, 356, 357, 358, 359, 360, 361, 362, 363, 364, 365, 366, 367, 368, 369, 370, 371, 372, 373, 374, 375, 376, 377, 378, 379, 380, 381, 382, 383, 384, 385, 386, 387, 388, 389, 390, 391, 392, 393, 394, 395, 396, 397, 398, 399, 400, 401, 402, 403, 404, 405, 406, 407, 408, 409, 410, 411, 412, 413, 414, 415, 416, 417, 418, 419, 420, 421, 422, 423, 424, 425, 426, 427, 428, 429, 430, 431, 432, 433, 434, 435, 436, 437, 438, 439, 440, 441, 442, 443, 444, 445, 446, 447, 448, 449, 450, 451, 452, 453, 454, 455, 456, 457, 458, 459, 460, 461, 462, 463, 464, 465, 466, 467, 468, 469, 470, 471, 472, 473, 474, 475, 476, 477, 478, 479, 480, 481, 482, 483, 484, 485, 486, 487],
      "AcquisitionTime": ["155032.427500", "155033.917500", "155035.407500", "155036.897500", "155038.387500", "155039.877500", "155041.367500", "155042.857500", "155044.347500", "155045.837500", "155047.327500", "155048.817500", "155050.307500", "155051.797500", "155053.287500", "155054.777500", "155056.267500", "155057.757500", "155059.247500", "155100.737500", "155102.227500", "155103.717500", "155105.207500", "155106.697500", "155108.187500", "155109.677500", "155111.167500", "155112.657500", "155114.147500", "155115.637500", "155117.127500", "155118.617500", "155120.107500", "155121.597500", "155123.087500", "155124.577500", "155126.067500", "155127.557500", "155129.047500", "155130.537500", "155132.027500", "155133.517500", "155135.007500", "155136.497500", "155137.987500", "155139.477500", "155140.967500", "155142.457500", "155143.947500", "155145.437500", "155146.927500", "155148.417500", "155149.907500", "155151.397500", "155152.887500", "155154.377500", "155155.867500", "155157.357500", "155158.847500", "155200.337500", "155201.827500", "155203.317500", "155204.807500", "155206.297500", "155207.787500", "155209.277500", "155210.767500", "155212.257500", "155213.747500", "155215.237500", "155216.727500", "155218.217500", "155219.707500", "155221.197500", "155222.687500", "155224.177500", "155225.667500", "155227.157500", "155228.647500", "155230.137500", "155231.627500", "155233.117500", "155234.607500", "155236.097500", "155237.587500", "155239.077500", "155240.567500", "155242.057500", "155243.547500", "155245.037500", "155246.527500", "155248.017500", "155249.507500", "155250.997500", "155252.487500", "155253.977500", "155255.467500", "155256.957500", "155258.447500", "155259.937500", "155301.427500", "155302.917500", "155304.407500", "155305.897500", "155307.387500", "155308.877500", "155310.367500", "155311.857500", "155313.347500", "155314.837500", "155316.327500", "155317.817500", "155319.307500", "155320.797500", "155322.287500", "155323.777500", "155325.267500", "155326.757500", "155328.247500", "155329.737500", "155331.227500", "155332.717500", "155334.207500", "155335.697500", "155337.187500", "155338.677500", "155340.167500", "155341.657500", "155343.147500", "155344.637500", "155346.127500", "155347.617500", "155349.107500", "155350.597500", "155352.087500", "155353.577500", "155355.067500", "155356.557500", "155358.047500", "155359.537500", "155401.027500", "155402.517500", "155404.007500", "155405.497500", "155406.987500", "155408.477500", "155409.967500", "155411.457500", "155412.947500", "155414.437500", "155415.927500", "155417.417500", "155418.907500", "155420.397500", "155421.887500", "155423.377500", "155424.867500", "155426.357500", "155427.847500", "155429.337500", "155430.827500", "155432.317500", "155433.807500", "155435.297500", "155436.787500", "155438.277500", "155439.767500", "155441.257500", "155442.747500", "155444.237500", "155445.727500", "155447.217500", "155448.707500", "155450.197500", "155451.687500", "155453.177500", "155454.667500", "155456.157500", "155457.647500", "155459.137500", "155500.627500", "155502.117500", "155503.607500", "155505.097500", "155506.587500", "155508.077500", "155509.567500", "155511.057500", "155512.547500", "155514.037500", "155515.527500", "155517.017500", "155518.507500", "155519.997500", "155521.487500", "155522.977500", "155524.467500", "155525.957500", "155527.447500", "155528.937500", "155530.427500", "155531.917500", "155533.407500", "155534.897500", "155536.387500", "155537.877500", "155539.367500", "155540.857500", "155542.347500", "155543.837500", "155545.327500", "155546.817500", "155548.307500", "155549.797500", "155551.287500", "155552.777500", "155554.267500", "155555.757500", "155557.247500", "155558.737500", "155600.227500", "155601.717500", "155603.207500", "155604.697500", "155606.187500", "155607.677500", "155609.167500", "155610.657500", "155612.147500", "155613.637500", "155615.127500", "155616.617500", "155618.107500", "155619.597500", "155621.087500", "155622.577500", "155624.067500", "155625.557500", "155627.047500", "155628.537500", "155630.027500", "155631.517500", "155633.007500", "155634.497500", "155635.987500", "155637.477500", "155638.967500", "155640.457500", "155641.947500", "155643.437500", "155644.927500", "155646.417500", "155647.907500", "155649.397500", "155650.887500", "155652.377500", "155653.867500", "155655.357500", "155656.847500", "155658.337500", "155659.827500", "155701.317500", "155702.807500", "155704.297500", "155705.787500", "155707.277500", "155708.767500", "155710.257500", "155711.747500", "155713.237500", "155714.727500", "155716.217500", "155717.707500", "155719.197500", "155720.687500", "155722.177500", "155723.667500", "155725.157500", "155726.647500", "155728.137500", "155729.627500", "155731.117500", "155732.607500", "155734.097500", "155735.587500", "155737.077500", "155738.567500", "155740.057500", "155741.547500", "155743.037500", "155744.527500", "155746.017500", "155747.507500", "155748.997500", "155750.487500", "155751.977500", "155753.467500", "155754.957500", "155756.447500", "155757.937500", "155759.427500", "155800.917500", "155802.407500", "155803.897500", "155805.387500", "155806.877500", "155808.367500", "155809.857500", "155811.347500", "155812.837500", "155814.327500", "155815.817500", "155817.307500", "155818.797500", "155820.287500", "155821.777500", "155823.267500", "155824.757500", "155826.247500", "155827.737500", "155829.227500", "155830.717500", "155832.207500", "155833.697500", "155835.187500", "155836.677500", "155838.167500", "155839.657500", "155841.147500", "155842.637500", "155844.127500", "155845.617500", "155847.107500", "155848.597500", "155850.087500", "155851.577500", "155853.067500", "155854.557500", "155856.047500", "155857.537500", "155859.027500", "155900.517500", "155902.007500", "155903.497500", "155904.987500", "155906.477500", "155907.967500", "155909.457500", "155910.947500", "155912.437500", "155913.927500", "155915.417500", "155916.907500", "155918.397500", "155919.887500", "155921.377500", "155922.867500", "155924.357500", "155925.847500", "155927.337500", "155928.827500", "155930.317500", "155931.807500", "155933.297500", "155934.787500", "155936.277500", "155937.767500", "155939.257500", "155940.747500", "155942.237500", "155943.727500", "155945.217500", "155946.707500", "155948.197500", "155949.687500", "155951.177500", "155952.667500", "155954.157500", "155955.647500", "155957.137500", "155958.627500", "160000.117500", "160001.607500", "160003.097500", "160004.587500", "160006.077500", "160007.567500", "160009.057500", "160010.547500", "160012.037500", "160013.527500", "160015.017500", "160016.507500", "160017.997500", "160019.487500", "160020.977500", "160022.467500", "160023.957500", "160025.447500", "160026.937500", "160028.427500", "160029.917500", "160031.407500", "160032.897500", "160034.387500", "160035.877500", "160037.367500", "160038.857500", "160040.347500", "160041.837500", "160043.327500", "160044.817500", "160046.307500", "160047.797500", "160049.287500", "160050.777500", "160052.267500", "160053.757500", "160055.247500", "160056.737500", "160058.227500", "160059.717500", "160101.207500", "160102.697500", "160104.187500", "160105.677500", "160107.167500", "160108.657500", "160110.147500", "160111.637500", "160113.127500", "160114.617500", "160116.107500", "160117.597500", "160119.087500", "160120.577500", "160122.067500", "160123.557500", "160125.047500", "160126.537500", "160128.027500", "160129.517500", "160131.007500", "160132.497500", "160133.987500", "160135.477500", "160136.967500", "160138.457500", "160139.947500", "160141.437500", "160142.927500", "160144.417500", "160145.907500", "160147.397500", "160148.887500", "160150.377500", "160151.867500", "160153.357500", "160154.847500", "160156.337500", "160157.827500", "160159.317500", "160200.807500", "160202.297500", "160203.787500", "160205.277500", "160206.767500", "160208.257500", "160209.747500", "160211.237500", "160212.727500", "160214.217500", "160215.707500", "160217.197500", "160218.687500", "160220.177500", "160221.667500", "160223.157500", "160224.647500", "160226.137500", "160227.627500", "160229.117500", "160230.607500", "160232.097500", "160233.587500", "160235.077500", "160236.567500"],
      "ContentTime": ["155146.746000", "155146.750000", "155146.754000", "155146.757000", "155146.760000", "155146.763000", "155146.767000", "155146.778000", "155146.782000", "155146.785000", "155146.788000", "155146.791000", "155146.794000", "155146.798000", "155146.801000", "155146.805000", "155146.808000", "155146.811000", "155146.814000", "155146.817000", "155146.837000", "155226.702000", "155226.706000", "155226.709000", "155226.712000", "155226.715000", "155226.725000", "155226.729000", "155226.732000", "155226.735000", "155226.739000", "155226.742000", "155226.746000", "155226.749000", "155226.752000", "155226.755000", "155226.759000", "155226.762000", "155226.765000", "155226.768000", "155226.772000", "155226.775000", "155226.778000", "155226.781000", "155226.785000", "155226.788000", "155226.791000", "155226.795000", "155226.798000", "155226.801000", "155226.805000", "155226.809000", "155226.812000", "155226.815000", "155226.818000", "155226.822000", "155226.828000", "155226.831000", "155226.835000", "155226.838000", "155226.841000", "155246.702000", "155246.706000", "155246.709000", "155246.712000", "155246.715000", "155246.719000", "155246.722000", "155246.725000", "155246.728000", "155246.732000", "155246.735000", "155246.738000", "155246.742000", "155246.745000", "155246.748000", "155246.751000", "155246.755000", "155246.758000", "155246.761000", "155246.764000", "155306.702000", "155306.706000", "155306.709000", "155306.712000", "155306.715000", "155306.719000", "155306.722000", "155306.725000", "155306.728000", "155306.732000", "155306.735000", "155306.738000", "155306.741000", "155306.745000", "155306.748000", "155306.759000", "155306.762000", "155306.765000", "155306.769000", "155306.772000", "155346.702000", "155346.706000", "155346.709000", "155346.712000", "155346.715000", "155346.738000", "155346.741000", "155346.744000", "155346.748000", "155346.751000", "155346.754000", "155346.757000", "155346.761000", "155346.764000", "155346.767000", "155346.771000", "155346.774000", "155346.777000", "155346.780000", "155346.783000", "155346.787000", "155346.790000", "155346.793000", "155346.797000", "155346.800000", "155346.803000", "155346.806000", "155346.810000", "155346.813000", "155426.702000", "155426.706000", "155426.709000", "155426.712000", "155426.716000", "155426.719000", "155426.722000", "155426.725000", "155426.729000", "155426.732000", "155426.735000", "155426.738000", "155426.742000", "155426.745000", "155426.748000", "155426.751000", "155426.755000", "155426.758000", "155426.761000", "155426.764000", "155426.768000", "155426.771000", "155426.774000", "155426.778000", "155426.781000", "155426.784000", "155426.787000", "155506.702000", "155506.706000", "155506.709000", "155506.713000", "155506.716000", "155506.719000", "155506.722000", "155506.726000", "155506.729000", "155506.732000", "155506.735000", "155506.739000", "155506.742000", "155506.745000", "155506.748000", "155506.752000", "155506.755000", "155506.765000", "155506.768000", "155506.771000", "155506.775000", "155506.778000", "155506.781000", "155506.785000", "155506.788000", "155506.792000", "155546.702000", "155546.706000", "155546.709000", "155546.712000", "155546.716000", "155546.719000", "155546.722000", "155546.725000", "155546.729000", "155546.732000", "155546.735000", "155546.738000", "155546.742000", "155546.745000", "155546.748000", "155546.758000", "155546.761000", "155546.764000", "155546.768000", "155546.771000", "155546.774000", "155546.777000", "155546.781000", "155546.784000", "155546.787000", "155546.790000", "155546.807000", "155626.702000", "155626.706000", "155626.709000", "155626.713000", "155626.721000", "155626.724000", "155626.728000", "155626.731000", "155626.734000", "155626.738000", "155626.741000", "155626.744000", "155626.748000", "155626.751000", "155626.754000", "155626.757000", "155626.761000", "155626.764000", "155626.768000", "155626.771000", "155626.774000", "155626.777000", "155626.781000", "155626.784000", "155626.787000", "155626.790000", "155626.794000", "155706.702000", "155706.706000", "155706.709000", "155706.712000", "155706.716000", "155706.719000", "155706.722000", "155706.725000", "155706.728000", "155706.732000", "155706.735000", "155706.738000", "155706.741000", "155706.745000", "155706.748000", "155706.751000", "155706.754000", "155706.758000", "155706.761000", "155706.764000", "155706.768000", "155706.771000", "155706.774000", "155706.777000", "155706.781000", "155706.784000", "155706.787000", "155746.702000", "155746.706000", "155746.709000", "155746.712000", "155746.716000", "155746.719000", "155746.722000", "155746.725000", "155746.729000", "155746.732000", "155746.735000", "155746.738000", "155746.742000", "155746.745000", "155746.748000", "155746.759000", "155746.763000", "155746.766000", "155746.769000", "155746.772000", "155746.776000", "155746.779000", "155746.782000", "155746.785000", "155746.789000", "155746.792000", "155746.795000", "155826.702000", "155826.706000", "155826.709000", "155826.712000", "155826.716000", "155826.719000", "155826.722000", "155826.725000", "155826.729000", "155826.746000", "155826.749000", "155826.752000", "155826.756000", "155826.759000", "155826.762000", "155826.765000", "155826.769000", "155826.772000", "155826.775000", "155826.779000", "155826.782000", "155826.785000", "155826.788000", "155826.792000", "155826.795000", "155826.798000", "155826.801000", "155906.702000", "155906.715000", "155906.719000", "155906.722000", "155906.725000", "155906.729000", "155906.732000", "155906.735000", "155906.739000", "155906.742000", "155906.745000", "155906.748000", "155906.752000", "155906.755000", "155906.763000", "155906.767000", "155906.770000", "155906.773000", "155906.776000", "155906.780000", "155906.783000", "155906.786000", "155906.789000", "155906.793000", "155906.804000", "155906.807000", "155906.810000", "155946.702000", "155946.706000", "155946.709000", "155946.713000", "155946.716000", "155946.719000", "155946.723000", "155946.726000", "155946.729000", "155946.733000", "155946.736000", "155946.739000", "155946.743000", "155946.746000", "155946.749000", "155946.752000", "155946.756000", "155946.759000", "155946.762000", "155946.766000", "155946.770000", "155946.774000", "155946.777000", "155946.780000", "155946.784000", "155946.787000", "160026.702000", "160026.706000", "160026.709000", "160026.713000", "160026.722000", "160026.725000", "160026.729000", "160026.732000", "160026.735000", "160026.739000", "160026.742000", "160026.745000", "160026.748000", "160026.752000", "160026.756000", "160026.760000", "160026.763000", "160026.766000", "160026.770000", "160026.773000", "160026.776000", "160026.779000", "160026.783000", "160026.786000", "160026.789000", "160026.806000", "160026.810000", "160106.702000", "160106.706000", "160106.709000", "160106.712000", "160106.716000", "160106.719000", "160106.722000", "160106.726000", "160106.729000", "160106.732000", "160106.736000", "160106.739000", "160106.742000", "160106.745000", "160106.749000", "160106.752000", "160106.755000", "160106.759000", "160106.762000", "160106.765000", "160106.768000", "160106.772000", "160106.775000", "160106.778000", "160106.781000", "160106.785000", "160106.788000", "160146.702000", "160146.706000", "160146.709000", "160146.713000", "160146.716000", "160146.719000", "160146.723000", "160146.726000", "160146.729000", "160146.733000", "160146.736000", "160146.739000", "160146.742000", "160146.746000", "160146.749000", "160146.752000", "160146.755000", "160146.759000", "160146.762000", "160146.765000", "160146.769000", "160146.772000", "160146.775000", "160146.779000", "160146.782000", "160146.785000", "160146.789000", "160226.702000", "160226.706000", "160226.709000", "160226.713000", "160226.716000", "160226.719000", "160226.722000", "160226.737000", "160226.741000", "160226.744000", "160226.747000", "160226.751000", "160226.754000", "160226.757000", "160226.760000", "160226.764000", "160226.767000", "160226.770000", "160226.774000", "160226.777000", "160226.780000", "160226.784000", "160226.787000", "160226.790000", "160226.794000", "160226.797000", "160226.800000", "160238.386000", "160238.402000", "160238.405000", "160238.410000", "160238.413000", "160238.417000", "160238.420000", "160238.423000"],
