{
  "AcquisitionMatrixPE": 104,
  "AcquisitionNumber": 1,
  "AcquisitionTime": "14:37:49.775000",
  "BandwidthPerPixelPhaseEncode": 17.17,
  "BaseResolution": 104,
  "BodyPartExamined": "BRAIN",
  "CoilString": "HC1-7;NC1_2",
  "ConsistencyInfo": "N4_VE11C_LATEST_20160120",
  "ConversionSoftware": "dcm2niix",
  "ConversionSoftwareVersion": "v1.0.20190902",
  "DerivedVendorReportedEchoSpacing": 0.000560011,
  "DeviceSerialNumber": "167006",
  "DwellTime": 2.1e-06,
  "EchoTime": 0.037,
  "EchoTrainLength": 104,
  "EffectiveEchoSpacing": 0.000560011,
  "FlipAngle": 52,
  "HeudiconvVersion": "0.10.0",
  "ImageComments": "Unaliased_MB4_PE3_LB",
  "ImageOrientationPatientDICOM": [0.999436, 0.0159996, 0.0295139, 0.00139551, 0.858571, -0.512693],
  "ImageType": [
    "ORIGINAL",
    "PRIMARY",
    "M",
    "MB",
    "ND",
    "MOSAIC"
],
  "ImagingFrequency": 123.259,
  "InPlanePhaseEncodingDirectionDICOM": "COL",
  "InstitutionAddress": "Chemin_Queen-Mary_4565_Montreal_District_CA_H3W_1W5",
  "InstitutionName": "IUGM",
  "InstitutionalDepartmentName": "Department",
  "MRAcquisitionType": "2D",
  "MagneticFieldStrength": 3,
  "Manufacturer": "Siemens",
  "ManufacturersModelName": "Prisma_fit",
  "Modality": "MR",
  "MultibandAccelerationFactor": 4,
  "PartialFourier": 1,
  "PatientPosition": "HFS",
  "PercentPhaseFOV": 100,
  "PhaseEncodingDirection": "j",
  "PhaseEncodingSteps": 104,
  "PhaseResolution": 1,
  "PixelBandwidth": 2290,
  "ProcedureStepDescription": "games_mario",
  "ProtocolName": "func_task-mario_run-04",
  "PulseSequenceDetails": "%CustomerSeq%_cmrr_mbep2d_bold",
  "ReceiveCoilActiveElements": "HC1-7;NC1,2",
  "ReceiveCoilName": "HeadNeck_64",
  "ReconMatrixPE": 104,
  "RepetitionTime": 1.49,
  "SAR": 0.0451311,
  "ScanOptions": "FS",
  "ScanningSequence": "EP",
  "SequenceName": "epfid2d1_104",
  "SequenceVariant": "SK_SS",
  "SeriesDescription": "func_task-mario_run-04",
  "SeriesNumber": 22,
  "ShimSetting": [619, -7190, -8858, 268, 13, -152, -15, -27],
  "SliceThickness": 2,
  "SliceTiming": [0, 0.785, 0.0975, 0.8825, 0.195, 0.98, 0.295, 1.0775, 0.3925, 1.175, 0.49, 1.275, 0.5875, 1.3725, 0.685, 0, 0.785, 0.0975, 0.8825, 0.195, 0.98, 0.295, 1.0775, 0.3925, 1.175, 0.49, 1.275, 0.5875, 1.3725, 0.685, 0, 0.785, 0.0975, 0.8825, 0.195, 0.98, 0.295, 1.0775, 0.3925, 1.175, 0.49, 1.275, 0.5875, 1.3725, 0.685, 0, 0.785, 0.0975, 0.8825, 0.195, 0.98, 0.295, 1.0775, 0.3925, 1.175, 0.49, 1.275, 0.5875, 1.3725, 0.685],
  "SoftwareVersions": "syngo_MR_E11",
  "SpacingBetweenSlices": 2,
  "StationName": "MRC35049",
  "TaskName": "mario",
  "TotalReadoutTime": 0.0576811,
  "TxRefAmp": 260.477,
  "WipMemBlock": "33c582c1-99a1-401a-909f-1df3894d901a||Sequence: R016 ve11c/master r/e634e98; Dec 19 2017 11:00:25 by eja",
  "dcmmeta_affine": [
    [-1.9988726377487183, 0.002791011007502675, 0.06708529591560364, 104.97388458251953],
    [-0.03199929744005203, 1.7171416282653809, -1.0248905420303345, -49.55873489379883],
    [0.05902771279215813, 1.025386095046997, 1.7161290645599365, -87.00694274902344],
    [0.0, 0.0, 0.0, 1.0]
],
  "dcmmeta_reorient_transform": [
    [0.0, -1.0, 0.0, 103.0],
    [1.0, 0.0, 0.0, 0.0],
    [0.0, 0.0, 1.0, 0.0],
    [0.0, 0.0, 0.0, 1.0]
],
  "dcmmeta_shape": [104, 104, 60, 435],
  "dcmmeta_slice_dim": 2,
  "dcmmeta_version": 0.6,
  "global": {
    "const": {
      "AcquisitionMatrix": [104, 0, 0, 104],
      "AngioFlag": "N",
      "BitsAllocated": 16,
      "BitsStored": 16,
      "BodyPartExamined": "BRAIN",
      "Columns": 832,
      "EchoNumbers": 1,
      "EchoTime": 37.0,
      "EchoTrainLength": 104,
      "FlipAngle": 52.0,
      "HighBit": 15,
      "ImageOrientationPatient": [0.99943631287899, 0.01599964794588, 0.02951385715982, 0.00139550556098, 0.85857083061167, -0.5126930674263],
      "ImagePositionPatient": [-833.8669231675, -763.9941663276, 370.36229402755],
      "ImageType": [
        "ORIGINAL",
        "PRIMARY",
        "M",
        "MB",
        "ND",
        "MOSAIC"
],
      "ImagedNucleus": "1H",
      "ImagingFrequency": 123.258946,
      "InPlanePhaseEncodingDirection": "COL",
      "MRAcquisitionType": "2D",
      "MagneticFieldStrength": 3.0,
      "Manufacturer": "SIEMENS",
      "ManufacturerModelName": "Prisma_fit",
      "Modality": "MR",
      "NumberOfAverages": 1.0,
      "NumberOfPhaseEncodingSteps": 104,
      "PercentPhaseFieldOfView": 100.0,
      "PercentSampling": 100.0,
      "PerformedProcedureStepStartTime": "135015.778000",
      "PhotometricInterpretation": "MONOCHROME2",
      "PixelBandwidth": 2290.0,
      "PixelRepresentation": 0,
      "PixelSpacing": [2.0, 2.0],
      "ProtocolName": "func_task-mario_run-04",
      "RepetitionTime": 1490.0,
      "Rows": 832,
      "SAR": 0.04513105168587,
      "SamplesPerPixel": 1,
      "ScanOptions": "FS",
      "ScanningSequence": "EP",
      "SequenceName": "epfid2d1_104",
      "SequenceVariant": [
        "SK",
        "SS"
],
      "SeriesDescription": "func_task-mario_run-04",
      "SeriesNumber": 22,
      "SeriesTime": "143902.931000",
      "SliceLocation": -45.740332764701,
      "SliceThickness": 2.0,
      "SmallestImagePixelValue": 0,
      "SoftwareVersions": "syngo MR E11",
      "SpacingBetweenSlices": 2.0000000403079,
      "SpecificCharacterSet": "ISO_IR 100",
      "StudyID": "1",
      "StudyTime": "135015.712000",
      "TransmitCoilName": "Body",
      "VariableFlipAngleFlag": "N",
      "WindowCenterWidthExplanation": "Algo1",
      "dBdt": 0.0},
    "slices": {}
  },
  "time": {
    "samples": {
      "AcquisitionNumber": [1, 2, 3, 4, 5, 6, 7, 8, 9, 10, 11, 12, 13, 14, 15, 16, 17, 18, 19, 20, 21, 22, 23, 24, 25, 26, 27, 28, 29, 30, 31, 32, 33, 34, 35, 36, 37, 38, 39, 40, 41, 42, 43, 44, 45, 46, 47, 48, 49, 50, 51, 52, 53, 54, 55, 56, 57, 58, 59, 60, 61, 62, 63, 64, 65, 66, 67, 68, 69, 70, 71, 72, 73, 74, 75, 76, 77, 78, 79, 80, 81, 82, 83, 84, 85, 86, 87, 88, 89, 90, 91, 92, 93, 94, 95, 96, 97, 98, 99, 100, 101, 102, 103, 104, 105, 106, 107, 108, 109, 110, 111, 112, 113, 114, 115, 116, 117, 118, 119, 120, 121, 122, 123, 124, 125, 126, 127, 128, 129, 130, 131, 132, 133, 134, 135, 136, 137, 138, 139, 140, 141, 142, 143, 144, 145, 146, 147, 148, 149, 150, 151, 152, 153, 154, 155, 156, 157, 158, 159, 160, 161, 162, 163, 164, 165, 166, 167, 168, 169, 170, 171, 172, 173, 174, 175, 176, 177, 178, 179, 180, 181, 182, 183, 184, 185, 186, 187, 188, 189, 190, 191, 192, 193, 194, 195, 196, 197, 198, 199, 200, 201, 202, 203, 204, 205, 206, 207, 208, 209, 210, 211, 212, 213, 214, 215, 216, 217, 218, 219, 220, 221, 222, 223, 224, 225, 226, 227, 228, 229, 230, 231, 232, 233, 234, 235, 236, 237, 238, 239, 240, 241, 242, 243, 244, 245, 246, 247, 248, 249, 250, 251, 252, 253, 254, 255, 256, 257, 258, 259, 260, 261, 262, 263, 264, 265, 266, 267, 268, 269, 270, 271, 272, 273, 274, 275, 276, 277, 278, 279, 280, 281, 282, 283, 284, 285, 286, 287, 288, 289, 290, 291, 292, 293, 294, 295, 296, 297, 298, 299, 300, 301, 302, 303, 304, 305, 306, 307, 308, 309, 310, 311, 312, 313, 314, 315, 316, 317, 318, 319, 320, 321, 322, 323, 324, 325, 326, 327, 328, 329, 330, 331, 332, 333, 334, 335, 336, 337, 338, 339, 340, 341, 342, 343, 344, 345, 346, 347, 348, 349, 350, 351, 352, 353, 354, 355, 356, 357, 358, 359, 360, 361, 362, 363, 364, 365, 366, 367, 368, 369, 370, 371, 372, 373, 374, 375, 376, 377, 378, 379, 380, 381, 382, 383, 384, 385, 386, 387, 388, 389, 390, 391, 392, 393, 394, 395, 396, 397, 398, 399, 400, 401, 402, 403, 404, 405, 406, 407, 408, 409, 410, 411, 412, 413, 414, 415, 416, 417, 418, 419, 420, 421, 422, 423, 424, 425, 426, 427, 428, 429, 430, 431, 432, 433, 434, 435],
      "AcquisitionTime": ["143749.775000", "143751.265000", "143752.755000", "143754.245000", "143755.735000", "143757.225000", "143758.715000", "143800.205000", "143801.695000", "143803.185000", "143804.675000", "143806.165000", "143807.655000", "143809.145000", "143810.635000", "143812.125000", "143813.615000", "143815.105000", "143816.595000", "143818.085000", "143819.575000", "143821.065000", "143822.555000", "143824.045000", "143825.535000", "143827.025000", "143828.515000", "143830.005000", "143831.495000", "143832.985000", "143834.475000", "143835.965000", "143837.455000", "143838.945000", "143840.435000", "143841.925000", "143843.415000", "143844.905000", "143846.395000", "143847.885000", "143849.375000", "143850.865000", "143852.355000", "143853.845000", "143855.335000", "143856.825000", "143858.315000", "143859.805000", "143901.295000", "143902.785000", "143904.275000", "143905.765000", "143907.255000", "143908.745000", "143910.235000", "143911.725000", "143913.215000", "143914.705000", "143916.195000", "143917.685000", "143919.175000", "143920.665000", "143922.155000", "143923.645000", "143925.135000", "143926.625000", "143928.115000", "143929.605000", "143931.095000", "143932.585000", "143934.075000", "143935.565000", "143937.055000", "143938.545000", "143940.035000", "143941.525000", "143943.015000", "143944.505000", "143945.995000", "143947.485000", "143948.975000", "143950.465000", "143951.955000", "143953.445000", "143954.935000", "143956.425000", "143957.915000", "143959.405000", "144000.895000", "144002.385000", "144003.875000", "144005.365000", "144006.855000", "144008.345000", "144009.835000", "144011.325000", "144012.815000", "144014.305000", "144015.795000", "144017.285000", "144018.775000", "144020.265000", "144021.755000", "144023.245000", "144024.735000", "144026.225000", "144027.715000", "144029.205000", "144030.695000", "144032.185000", "144033.675000", "144035.165000", "144036.655000", "144038.145000", "144039.635000", "144041.125000", "144042.615000", "144044.105000", "144045.595000", "144047.085000", "144048.575000", "144050.065000", "144051.555000", "144053.045000", "144054.535000", "144056.025000", "144057.515000", "144059.005000", "144100.495000", "144101.985000", "144103.475000", "144104.965000", "144106.455000", "144107.945000", "144109.435000", "144110.925000", "144112.415000", "144113.905000", "144115.395000", "144116.885000", "144118.375000", "144119.865000", "144121.355000", "144122.845000", "144124.335000", "144125.825000", "144127.315000", "144128.805000", "144130.295000", "144131.785000", "144133.275000", "144134.765000", "144136.255000", "144137.745000", "144139.235000", "144140.725000", "144142.215000", "144143.705000", "144145.195000", "144146.685000", "144148.175000", "144149.665000", "144151.155000", "144152.645000", "144154.135000", "144155.625000", "144157.115000", "144158.605000", "144200.095000", "144201.585000", "144203.075000", "144204.565000", "144206.055000", "144207.545000", "144209.035000", "144210.525000", "144212.015000", "144213.505000", "144214.995000", "144216.485000", "144217.975000", "144219.465000", "144220.955000", "144222.445000", "144223.935000", "144225.425000", "144226.915000", "144228.405000", "144229.895000", "144231.385000", "144232.875000", "144234.365000", "144235.855000", "144237.345000", "144238.835000", "144240.325000", "144241.815000", "144243.305000", "144244.795000", "144246.285000", "144247.775000", "144249.265000", "144250.755000", "144252.245000", "144253.735000", "144255.225000", "144256.715000", "144258.205000", "144259.695000", "144301.185000", "144302.675000", "144304.165000", "144305.655000", "144307.145000", "144308.635000", "144310.125000", "144311.615000", "144313.105000", "144314.595000", "144316.085000", "144317.575000", "144319.065000", "144320.555000", "144322.045000", "144323.535000", "144325.025000", "144326.515000", "144328.005000", "144329.495000", "144330.985000", "144332.475000", "144333.965000", "144335.455000", "144336.945000", "144338.435000", "144339.925000", "144341.415000", "144342.905000", "144344.395000", "144345.885000", "144347.375000", "144348.865000", "144350.355000", "144351.845000", "144353.335000", "144354.825000", "144356.315000", "144357.805000", "144359.295000", "144400.785000", "144402.275000", "144403.765000", "144405.255000", "144406.745000", "144408.235000", "144409.725000", "144411.215000", "144412.705000", "144414.195000", "144415.685000", "144417.175000", "144418.665000", "144420.155000", "144421.645000", "144423.135000", "144424.625000", "144426.115000", "144427.605000", "144429.095000", "144430.585000", "144432.075000", "144433.565000", "144435.055000", "144436.545000", "144438.035000", "144439.525000", "144441.015000", "144442.505000", "144443.995000", "144445.485000", "144446.975000", "144448.465000", "144449.955000", "144451.445000", "144452.935000", "144454.425000", "144455.915000", "144457.405000", "144458.895000", "144500.385000", "144501.875000", "144503.365000", "144504.855000", "144506.345000", "144507.835000", "144509.325000", "144510.815000", "144512.305000", "144513.795000", "144515.285000", "144516.775000", "144518.265000", "144519.755000", "144521.245000", "144522.735000", "144524.225000", "144525.715000", "144527.205000", "144528.695000", "144530.185000", "144531.675000", "144533.165000", "144534.655000", "144536.145000", "144537.635000", "144539.125000", "144540.615000", "144542.105000", "144543.595000", "144545.085000", "144546.575000", "144548.065000", "144549.555000", "144551.045000", "144552.535000", "144554.025000", "144555.515000", "144557.005000", "144558.495000", "144559.985000", "144601.475000", "144602.965000", "144604.455000", "144605.945000", "144607.435000", "144608.925000", "144610.415000", "144611.905000", "144613.395000", "144614.885000", "144616.375000", "144617.865000", "144619.355000", "144620.845000", "144622.335000", "144623.825000", "144625.315000", "144626.805000", "144628.295000", "144629.785000", "144631.275000", "144632.765000", "144634.255000", "144635.745000", "144637.235000", "144638.725000", "144640.215000", "144641.705000", "144643.195000", "144644.685000", "144646.175000", "144647.665000", "144649.155000", "144650.645000", "144652.135000", "144653.625000", "144655.115000", "144656.605000", "144658.095000", "144659.585000", "144701.075000", "144702.565000", "144704.055000", "144705.545000", "144707.035000", "144708.525000", "144710.015000", "144711.505000", "144712.995000", "144714.485000", "144715.975000", "144717.465000", "144718.955000", "144720.445000", "144721.935000", "144723.425000", "144724.915000", "144726.405000", "144727.895000", "144729.385000", "144730.875000", "144732.365000", "144733.855000", "144735.345000", "144736.835000", "144738.325000", "144739.815000", "144741.305000", "144742.795000", "144744.285000", "144745.775000", "144747.265000", "144748.755000", "144750.245000", "144751.735000", "144753.225000", "144754.715000", "144756.205000", "144757.695000", "144759.185000", "144800.675000", "144802.165000", "144803.655000", "144805.145000", "144806.635000", "144808.125000", "144809.615000", "144811.105000", "144812.595000", "144814.085000", "144815.575000", "144817.065000", "144818.555000", "144820.045000", "144821.535000", "144823.025000", "144824.515000", "144826.005000", "144827.495000", "144828.985000", "144830.475000", "144831.965000", "144833.455000", "144834.945000", "144836.435000"],
      "ContentTime": ["143902.933000", "143902.937000", "143902.941000", "143902.944000", "143902.947000", "143902.950000", "143902.954000", "143902.957000", "143902.960000", "143902.963000", "143902.967000", "143902.980000", "143902.983000", "143902.986000", "143902.989000", "143902.993000", "143902.996000", "143902.999000", "143903.002000", "143903.006000", "143922.883000", "143922.887000", "143922.890000", "143922.904000", "143922.908000", "143922.911000", "143922.915000", "143922.918000", "143922.921000", "143922.925000", "143922.928000", "143922.931000", "143922.935000", "143922.938000", "143922.941000", "143922.945000", "143922.948000", "143922.951000", "143922.955000", "143922.958000", "143942.882000", "143942.886000", "143942.889000", "143942.892000", "143942.896000", "143942.899000", "143942.902000", "143942.906000", "143942.909000", "143942.912000", "143942.915000", "143942.919000", "143942.922000", "143942.926000", "143942.929000", "143942.932000", "143942.935000", "143942.939000", "143942.942000", "143942.945000", "144002.882000", "144002.886000", "144002.889000", "144002.892000", "144002.896000", "144002.899000", "144002.902000", "144002.906000", "144002.909000", "144002.912000", "144002.916000", "144002.919000", "144002.923000", "144002.926000", "144002.929000", "144002.933000", "144002.936000", "144002.939000", "144002.943000", "144002.946000", "144022.882000", "144022.886000", "144022.889000", "144022.893000", "144022.896000", "144022.900000", "144022.903000", "144022.906000", "144022.910000", "144022.913000", "144022.916000", "144022.920000", "144022.923000", "144022.926000", "144022.930000", "144022.933000", "144022.936000", "144022.940000", "144022.944000", "144022.947000", "144022.950000", "144102.882000", "144102.886000", "144102.904000", "144102.908000", "144102.911000", "144102.914000", "144102.918000", "144102.921000", "144102.924000", "144102.927000", "144102.931000", "144102.934000", "144102.937000", "144102.941000", "144102.944000", "144102.947000", "144102.950000", "144102.954000", "144102.957000", "144102.960000", "144102.963000", "144102.967000", "144102.970000", "144102.973000", "144102.977000", "144102.980000", "144102.983000", "144102.987000", "144142.883000", "144142.887000", "144142.890000", "144142.893000", "144142.897000", "144142.900000", "144142.903000", "144142.907000", "144142.910000", "144142.913000", "144142.916000", "144142.920000", "144142.923000", "144142.926000", "144142.929000", "144142.933000", "144142.936000", "144142.939000", "144142.943000", "144142.946000", "144142.949000", "144142.952000", "144142.956000", "144142.959000", "144142.962000", "144142.966000", "144142.969000", "144222.882000", "144222.886000", "144222.890000", "144222.893000", "144222.896000", "144222.900000", "144222.903000", "144222.906000", "144222.910000", "144222.913000", "144222.916000", "144222.919000", "144222.923000", "144222.926000", "144222.929000", "144222.933000", "144222.936000", "144222.939000", "144222.942000", "144222.946000", "144222.949000", "144222.952000", "144222.956000", "144222.959000", "144222.962000", "144222.965000", "144222.969000", "144302.882000", "144302.886000", "144302.889000", "144302.892000", "144302.896000", "144302.899000", "144302.903000", "144302.906000", "144302.909000", "144302.913000", "144302.916000", "144302.919000", "144302.939000", "144302.943000", "144302.947000", "144302.951000", "144302.955000", "144302.959000", "144302.963000", "144302.967000", "144302.970000", "144302.973000", "144302.977000", "144302.980000", "144302.983000", "144302.987000", "144322.882000", "144322.886000", "144322.889000", "144322.893000", "144322.896000", "144322.899000", "144322.903000", "144322.906000", "144322.909000", "144322.913000", "144322.916000", "144322.919000", "144322.922000", "144322.926000", "144402.883000", "144402.887000", "144402.890000", "144402.894000", "144402.897000", "144402.900000", "144402.904000", "144402.907000", "144402.910000", "144402.914000", "144402.917000", "144402.920000", "144402.924000", "144402.927000", "144402.930000", "144402.934000", "144402.937000", "144402.940000", "144402.944000", "144402.947000", "144402.950000", "144402.954000", "144402.957000", "144402.960000", "144402.963000", "144402.967000", "144402.970000", "144442.882000", "144442.886000", "144442.889000", "144442.893000", "144442.896000", "144442.899000", "144442.903000", "144442.906000", "144442.910000", "144442.913000", "144442.916000", "144442.920000", "144442.923000", "144442.926000", "144442.929000", "144442.933000", "144442.936000", "144442.939000", "144442.943000", "144442.946000", "144442.950000", "144442.953000", "144442.956000", "144442.960000", "144442.963000", "144442.966000", "144442.969000", "144522.882000", "144522.886000", "144522.890000", "144522.893000", "144522.896000", "144522.900000", "144522.903000", "144522.906000", "144522.909000", "144522.913000", "144522.916000", "144522.920000", "144522.923000", "144522.927000", "144522.930000", "144522.933000", "144522.949000", "144522.952000", "144522.956000", "144522.959000", "144522.962000", "144522.965000", "144522.969000", "144522.972000", "144522.975000", "144522.979000", "144602.883000", "144602.887000", "144602.890000", "144602.894000", "144602.897000", "144602.901000", "144602.904000", "144602.907000", "144602.911000", "144602.921000", "144602.924000", "144602.928000", "144602.931000", "144602.934000", "144602.938000", "144602.941000", "144602.944000", "144602.948000", "144602.951000", "144602.954000", "144602.958000", "144602.961000", "144602.964000", "144602.968000", "144602.971000", "144602.974000", "144602.978000", "144642.882000", "144642.886000", "144642.890000", "144642.893000", "144642.897000", "144642.900000", "144642.903000", "144642.907000", "144642.910000", "144642.914000", "144642.917000", "144642.920000", "144642.924000", "144642.927000", "144642.930000", "144642.934000", "144642.937000", "144642.940000", "144642.943000", "144642.947000", "144642.950000", "144642.954000", "144642.957000", "144642.960000", "144642.964000", "144642.967000", "144642.970000", "144722.882000", "144722.886000", "144722.889000", "144722.893000", "144722.896000", "144722.899000", "144722.903000", "144722.906000", "144722.909000", "144722.913000", "144722.916000", "144722.919000", "144722.923000", "144722.926000", "144722.929000", "144722.933000", "144722.936000", "144722.939000", "144722.943000", "144722.946000", "144722.949000", "144722.952000", "144722.956000", "144722.959000", "144722.962000", "144722.966000", "144722.969000", "144802.882000", "144802.886000", "144802.889000", "144802.893000", "144802.896000", "144802.899000", "144802.903000", "144802.906000", "144802.909000", "144802.913000", "144802.916000", "144802.919000", "144802.923000", "144802.926000", "144802.929000", "144802.933000", "144802.936000", "144802.939000", "144802.942000", "144802.946000", "144802.949000", "144802.953000", "144802.956000", "144802.959000", "144802.963000", "144802.966000", "144802.969000", "144839.294000", "144839.297000", "144839.301000", "144839.304000", "144839.307000", "144839.311000", "144839.314000", "144839.317000", "144839.321000", "144839.324000", "144839.327000", "144839.331000", "144839.334000", "144839.338000", "144839.341000", "144839.344000", "144839.347000", "144839.351000", "144839.354000", "144839.358000", "144839.361000", "144839.364000", "144839.368000", "144839.371000"],
      "InstanceCreationTime": ["143902.933000", "143902.937000", "143902.941000", "143902.944000", "143902.947000", "143902.950000", "143902.954000", "143902.957000", "143902.960000", "143902.963000", "143902.967000", "143902.980000", "143902.983000", "143902.986000", "143902.989000", "143902.993000", "143902.996000", "143902.999000", "143903.002000", "143903.006000", "143922.883000", "143922.887000", "143922.890000", "143922.904000", "143922.908000", "143922.911000", "143922.915000", "143922.918000", "143922.921000", "143922.925000", "143922.928000", "143922.931000", "143922.935000", "143922.938000", "143922.941000", "143922.945000", "143922.948000", "143922.951000", "143922.955000", "143922.958000", "143942.882000", "143942.886000", "143942.889000", "143942.892000", "143942.896000", "143942.899000", "143942.902000", "143942.906000", "143942.909000", "143942.912000", "143942.915000", "143942.919000", "143942.922000", "143942.926000", "143942.929000", "143942.932000", "143942.935000", "143942.939000", "143942.942000", "143942.945000", "144002.882000", "144002.886000", "144002.889000", "144002.892000", "144002.896000", "144002.899000", "144002.902000", "144002.906000", "144002.909000", "144002.912000", "144002.916000", "144002.919000", "144002.923000", "144002.926000", "144002.929000", "144002.933000", "144002.936000", "144002.939000", "144002.943000", "144002.946000", "144022.882000", "144022.886000", "144022.889000", "144022.893000", "144022.896000", "144022.900000", "144022.903000", "144022.906000", "144022.910000", "144022.913000", "144022.916000", "144022.920000", "144022.923000", "144022.926000", "144022.930000", "144022.933000", "144022.936000", "144022.940000", "144022.944000", "144022.947000", "144022.950000", "144102.882000", "144102.886000", "144102.904000", "144102.908000", "144102.911000", "144102.914000", "144102.918000", "144102.921000", "144102.924000", "144102.927000", "144102.931000", "144102.934000", "144102.937000", "144102.941000", "144102.944000", "144102.947000", "144102.950000", "144102.954000", "144102.957000", "144102.960000", "144102.963000", "144102.967000", "144102.970000", "144102.973000", "144102.977000", "144102.980000", "144102.983000", "144102.987000", "144142.883000", "144142.887000", "144142.890000", "144142.893000", "144142.897000", "144142.900000", "144142.903000", "144142.907000", "144142.910000", "144142.913000", "144142.916000", "144142.920000", "144142.923000", "144142.926000", "144142.929000", "144142.933000", "144142.936000", "144142.939000", "144142.943000", "144142.946000", "144142.949000", "144142.952000", "144142.956000", "144142.959000", "144142.962000", "144142.966000", "144142.969000", "144222.882000", "144222.886000", "144222.890000", "144222.893000", "144222.896000", "144222.900000", "144222.903000", "144222.906000", "144222.910000", "144222.913000", "144222.916000", "144222.919000", "144222.923000", "144222.926000", "144222.929000", "144222.933000", "144222.936000", "144222.939000", "144222.942000", "144222.946000", "144222.949000", "144222.952000", "144222.956000", "144222.959000", "144222.962000", "144222.965000", "144222.969000", "144302.882000", "144302.886000", "144302.889000", "144302.892000", "144302.896000", "144302.899000", "144302.903000", "144302.906000", "144302.909000", "144302.913000", "144302.916000", "144302.919000", "144302.939000", "144302.943000", "144302.947000", "144302.951000", "144302.955000", "144302.959000", "144302.963000", "144302.967000", "144302.970000", "144302.973000", "144302.977000", "144302.980000", "144302.983000", "144302.987000", "144322.882000", "144322.886000", "144322.889000", "144322.893000", "144322.896000", "144322.899000", "144322.903000", "144322.906000", "144322.909000", "144322.913000", "144322.916000", "144322.919000", "144322.922000", "144322.926000", "144402.883000", "144402.887000", "144402.890000", "144402.894000", "144402.897000", "144402.900000", "144402.904000", "144402.907000", "144402.910000", "144402.914000", "144402.917000", "144402.920000", "144402.924000", "144402.927000", "144402.930000", "144402.934000", "144402.937000", "144402.940000", "144402.944000", "144402.947000", "144402.950000", "144402.954000", "144402.957000", "144402.960000", "144402.963000", "144402.967000", "144402.970000", "144442.882000", "144442.886000", "144442.889000", "144442.893000", "144442.896000", "144442.899000", "144442.903000", "144442.906000", "144442.910000", "144442.913000", "144442.916000", "144442.920000", "144442.923000", "144442.926000", "144442.929000", "144442.933000", "144442.936000", "144442.939000", "144442.943000", "144442.946000", "144442.950000", "144442.953000", "144442.956000", "144442.960000", "144442.963000", "144442.966000", "144442.969000", "144522.882000", "144522.886000", "144522.890000", "144522.893000", "144522.896000", "144522.900000", "144522.903000", "144522.906000", "144522.909000", "144522.913000", "144522.916000", "144522.920000", "144522.923000", "144522.927000", "144522.930000", "144522.933000", "144522.949000", "144522.952000", "144522.956000", "144522.959000", "144522.962000", "144522.965000", "144522.969000", "144522.972000", "144522.975000", "144522.979000", "144602.883000", "144602.887000", "144602.890000", "144602.894000", "144602.897000", "144602.901000", "144602.904000", "144602.907000", "144602.911000", "144602.921000", "144602.924000", "144602.928000", "144602.931000", "144602.934000", "144602.938000", "144602.941000", "144602.944000", "144602.948000", "144602.951000", "144602.954000", "144602.958000", "144602.961000", "144602.964000", "144602.968000", "144602.971000", "144602.974000", "144602.978000", "144642.882000", "144642.886000", "144642.890000", "144642.893000", "144642.897000", "144642.900000", "144642.903000", "144642.907000", "144642.910000", "144642.914000", "144642.917000", "144642.920000", "144642.924000", "144642.927000", "144642.930000", "144642.934000", "144642.937000", "144642.940000", "144642.943000", "144642.947000", "144642.950000", "144642.954000", "144642.957000", "144642.960000", "144642.964000", "144642.967000", "144642.970000", "144722.882000", "144722.886000", "144722.889000", "144722.893000", "144722.896000", "144722.899000", "144722.903000", "144722.906000", "144722.909000", "144722.913000", "144722.916000", "144722.919000", "144722.923000", "144722.926000", "144722.929000", "144722.933000", "144722.936000", "144722.939000", "144722.943000", "144722.946000", "144722.949000", "144722.952000", "144722.956000", "144722.959000", "144722.962000", "144722.966000", "144722.969000", "144802.882000", "144802.886000", "144802.889000", "144802.893000", "144802.896000", "144802.899000", "144802.903000", "144802.906000", "144802.909000", "144802.913000", "144802.916000", "144802.919000", "144802.923000", "144802.926000", "144802.929000", "144802.933000", "144802.936000", "144802.939000", "144802.942000", "144802.946000", "144802.949000", "144802.953000", "144802.956000", "144802.959000", "144802.963000", "144802.966000", "144802.969000", "144839.294000", "144839.297000", "144839.301000", "144839.304000", "144839.307000", "144839.311000", "144839.314000", "144839.317000", "144839.321000", "144839.324000", "144839.327000", "144839.331000", "144839.334000", "144839.338000", "144839.341000", "144839.344000", "144839.347000", "144839.351000", "144839.354000", "144839.358000", "144839.361000", "144839.364000", "144839.368000", "144839.371000"],
