{
  "AcquisitionMatrixPE": 104,
  "AcquisitionNumber": 1,
  "AcquisitionTime": "14:01:15.652500",
  "BandwidthPerPixelPhaseEncode": 17.17,
  "BaseResolution": 104,
  "BodyPartExamined": "BRAIN",
  "CoilString": "HC1-7;NC1_2",
  "ConsistencyInfo": "N4_VE11C_LATEST_20160120",
  "ConversionSoftware": "dcm2niix",
  "ConversionSoftwareVersion": "v1.0.20190902",
  "DerivedVendorReportedEchoSpacing": 0.000560011,
  "DeviceSerialNumber": "167006",
  "DwellTime": 2.1e-06,
  "EchoTime": 0.037,
  "EchoTrainLength": 104,
  "EffectiveEchoSpacing": 0.000560011,
  "FlipAngle": 52,
  "HeudiconvVersion": "0.10.0",
  "ImageComments": "Unaliased_MB4_PE3_LB",
  "ImageOrientationPatientDICOM": [0.999436, 0.0159996, 0.0295139, 0.00139551, 0.858571, -0.512693],
  "ImageType": [
    "ORIGINAL",
    "PRIMARY",
    "M",
    "MB",
    "ND",
    "MOSAIC"
],
  "ImagingFrequency": 123.259,
  "InPlanePhaseEncodingDirectionDICOM": "COL",
  "InstitutionAddress": "Chemin_Queen-Mary_4565_Montreal_District_CA_H3W_1W5",
  "InstitutionName": "IUGM",
  "InstitutionalDepartmentName": "Department",
  "MRAcquisitionType": "2D",
  "MagneticFieldStrength": 3,
  "Manufacturer": "Siemens",
  "ManufacturersModelName": "Prisma_fit",
  "Modality": "MR",
  "MultibandAccelerationFactor": 4,
  "PartialFourier": 1,
  "PatientPosition": "HFS",
  "PercentPhaseFOV": 100,
  "PhaseEncodingDirection": "j",
  "PhaseEncodingSteps": 104,
  "PhaseResolution": 1,
  "PixelBandwidth": 2290,
  "ProcedureStepDescription": "games_mario",
  "ProtocolName": "func_task-mario_run-01",
  "PulseSequenceDetails": "%CustomerSeq%_cmrr_mbep2d_bold",
  "ReceiveCoilActiveElements": "HC1-7;NC1,2",
  "ReceiveCoilName": "HeadNeck_64",
  "ReconMatrixPE": 104,
  "RepetitionTime": 1.49,
  "SAR": 0.0451311,
  "ScanOptions": "FS",
  "ScanningSequence": "EP",
  "SequenceName": "epfid2d1_104",
  "SequenceVariant": "SK_SS",
  "SeriesDescription": "func_task-mario_run-01",
  "SeriesNumber": 13,
  "ShimSetting": [619, -7190, -8858, 268, 13, -152, -15, -27],
  "SliceThickness": 2,
  "SliceTiming": [0, 0.7825, 0.0975, 0.8825, 0.195, 0.98, 0.2925, 1.0775, 0.3925, 1.175, 0.49, 1.2725, 0.5875, 1.3725, 0.685, 0, 0.7825, 0.0975, 0.8825, 0.195, 0.98, 0.2925, 1.0775, 0.3925, 1.175, 0.49, 1.2725, 0.5875, 1.3725, 0.685, 0, 0.7825, 0.0975, 0.8825, 0.195, 0.98, 0.2925, 1.0775, 0.3925, 1.175, 0.49, 1.2725, 0.5875, 1.3725, 0.685, 0, 0.7825, 0.0975, 0.8825, 0.195, 0.98, 0.2925, 1.0775, 0.3925, 1.175, 0.49, 1.2725, 0.5875, 1.3725, 0.685],
  "SoftwareVersions": "syngo_MR_E11",
  "SpacingBetweenSlices": 2,
  "StationName": "MRC35049",
  "TaskName": "mario",
  "TotalReadoutTime": 0.0576811,
  "TxRefAmp": 260.477,
  "WipMemBlock": "23dd8303-fbe9-4cc3-b7e5-25fdda37f9d9||Sequence: R016 ve11c/master r/e634e98; Dec 19 2017 11:00:25 by eja",
  "dcmmeta_affine": [
    [-1.9988726377487183, 0.002791011007502675, 0.06708529591560364, 104.97388458251953],
    [-0.03199929744005203, 1.7171416282653809, -1.0248905420303345, -49.55873489379883],
    [0.05902771279215813, 1.025386095046997, 1.7161290645599365, -87.00694274902344],
    [0.0, 0.0, 0.0, 1.0]
],
  "dcmmeta_reorient_transform": [
    [0.0, -1.0, 0.0, 103.0],
    [1.0, 0.0, 0.0, 0.0],
    [0.0, 0.0, 1.0, 0.0],
    [0.0, 0.0, 0.0, 1.0]
],
  "dcmmeta_shape": [104, 104, 60, 414],
  "dcmmeta_slice_dim": 2,
  "dcmmeta_version": 0.6,
  "global": {
    "const": {
      "AcquisitionMatrix": [104, 0, 0, 104],
      "AngioFlag": "N",
      "BitsAllocated": 16,
      "BitsStored": 16,
      "BodyPartExamined": "BRAIN",
      "Columns": 832,
      "EchoNumbers": 1,
      "EchoTime": 37.0,
      "EchoTrainLength": 104,
      "FlipAngle": 52.0,
      "HighBit": 15,
      "ImageOrientationPatient": [0.99943631287899, 0.01599964794588, 0.02951385715982, 0.00139550556098, 0.85857083061167, -0.5126930674263],
      "ImagePositionPatient": [-833.8669231675, -763.9941663276, 370.36229402755],
      "ImageType": [
        "ORIGINAL",
        "PRIMARY",
        "M",
        "MB",
        "ND",
        "MOSAIC"
],
      "ImagedNucleus": "1H",
      "ImagingFrequency": 123.258927,
      "InPlanePhaseEncodingDirection": "COL",
      "MRAcquisitionType": "2D",
      "MagneticFieldStrength": 3.0,
      "Manufacturer": "SIEMENS",
      "ManufacturerModelName": "Prisma_fit",
      "Modality": "MR",
      "NumberOfAverages": 1.0,
      "NumberOfPhaseEncodingSteps": 104,
      "PercentPhaseFieldOfView": 100.0,
      "PercentSampling": 100.0,
      "PerformedProcedureStepStartTime": "135015.778000",
      "PhotometricInterpretation": "MONOCHROME2",
      "PixelBandwidth": 2290.0,
      "PixelRepresentation": 0,
      "PixelSpacing": [2.0, 2.0],
      "ProtocolName": "func_task-mario_run-01",
      "RepetitionTime": 1490.0,
      "Rows": 832,
      "SAR": 0.04513105168587,
      "SamplesPerPixel": 1,
      "ScanOptions": "FS",
      "ScanningSequence": "EP",
      "SequenceName": "epfid2d1_104",
      "SequenceVariant": [
        "SK",
        "SS"
],
      "SeriesDescription": "func_task-mario_run-01",
      "SeriesNumber": 13,
      "SeriesTime": "140242.923000",
      "SliceLocation": -45.740332764701,
      "SliceThickness": 2.0,
      "SmallestImagePixelValue": 0,
      "SoftwareVersions": "syngo MR E11",
      "SpacingBetweenSlices": 2.0000000403079,
      "SpecificCharacterSet": "ISO_IR 100",
      "StudyID": "1",
      "StudyTime": "135015.712000",
      "TransmitCoilName": "Body",
      "VariableFlipAngleFlag": "N",
      "WindowCenterWidthExplanation": "Algo1",
      "dBdt": 0.0},
    "slices": {}
  },
  "time": {
    "samples": {
      "AcquisitionNumber": [1, 2, 3, 4, 5, 6, 7, 8, 9, 10, 11, 12, 13, 14, 15, 16, 17, 18, 19, 20, 21, 22, 23, 24, 25, 26, 27, 28, 29, 30, 31, 32, 33, 34, 35, 36, 37, 38, 39, 40, 41, 42, 43, 44, 45, 46, 47, 48, 49, 50, 51, 52, 53, 54, 55, 56, 57, 58, 59, 60, 61, 62, 63, 64, 65, 66, 67, 68, 69, 70, 71, 72, 73, 74, 75, 76, 77, 78, 79, 80, 81, 82, 83, 84, 85, 86, 87, 88, 89, 90, 91, 92, 93, 94, 95, 96, 97, 98, 99, 100, 101, 102, 103, 104, 105, 106, 107, 108, 109, 110, 111, 112, 113, 114, 115, 116, 117, 118, 119, 120, 121, 122, 123, 124, 125, 126, 127, 128, 129, 130, 131, 132, 133, 134, 135, 136, 137, 138, 139, 140, 141, 142, 143, 144, 145, 146, 147, 148, 149, 150, 151, 152, 153, 154, 155, 156, 157, 158, 159, 160, 161, 162, 163, 164, 165, 166, 167, 168, 169, 170, 171, 172, 173, 174, 175, 176, 177, 178, 179, 180, 181, 182, 183, 184, 185, 186, 187, 188, 189, 190, 191, 192, 193, 194, 195, 196, 197, 198, 199, 200, 201, 202, 203, 204, 205, 206, 207, 208, 209, 210, 211, 212, 213, 214, 215, 216, 217, 218, 219, 220, 221, 222, 223, 224, 225, 226, 227, 228, 229, 230, 231, 232, 233, 234, 235, 236, 237, 238, 239, 240, 241, 242, 243, 244, 245, 246, 247, 248, 249, 250, 251, 252, 253, 254, 255, 256, 257, 258, 259, 260, 261, 262, 263, 264, 265, 266, 267, 268, 269, 270, 271, 272, 273, 274, 275, 276, 277, 278, 279, 280, 281, 282, 283, 284, 285, 286, 287, 288, 289, 290, 291, 292, 293, 294, 295, 296, 297, 298, 299, 300, 301, 302, 303, 304, 305, 306, 307, 308, 309, 310, 311, 312, 313, 314, 315, 316, 317, 318, 319, 320, 321, 322, 323, 324, 325, 326, 327, 328, 329, 330, 331, 332, 333, 334, 335, 336, 337, 338, 339, 340, 341, 342, 343, 344, 345, 346, 347, 348, 349, 350, 351, 352, 353, 354, 355, 356, 357, 358, 359, 360, 361, 362, 363, 364, 365, 366, 367, 368, 369, 370, 371, 372, 373, 374, 375, 376, 377, 378, 379, 380, 381, 382, 383, 384, 385, 386, 387, 388, 389, 390, 391, 392, 393, 394, 395, 396, 397, 398, 399, 400, 401, 402, 403, 404, 405, 406, 407, 408, 409, 410, 411, 412, 413, 414],
      "AcquisitionTime": ["140115.652500", "140117.142500", "140118.632500", "140120.122500", "140121.612500", "140123.102500", "140124.592500", "140126.082500", "140127.572500", "140129.062500", "140130.552500", "140132.042500", "140133.532500", "140135.022500", "140136.512500", "140138.002500", "140139.492500", "140140.982500", "140142.472500", "140143.962500", "140145.452500", "140146.942500", "140148.432500", "140149.922500", "140151.412500", "140152.902500", "140154.392500", "140155.882500", "140157.372500", "140158.862500", "140200.352500", "140201.842500", "140203.332500", "140204.822500", "140206.312500", "140207.802500", "140209.292500", "140210.782500", "140212.272500", "140213.762500", "140215.252500", "140216.742500", "140218.232500", "140219.722500", "140221.212500", "140222.702500", "140224.192500", "140225.682500", "140227.172500", "140228.662500", "140230.152500", "140231.642500", "140233.132500", "140234.622500", "140236.112500", "140237.602500", "140239.092500", "140240.582500", "140242.072500", "140243.562500", "140245.052500", "140246.542500", "140248.032500", "140249.522500", "140251.012500", "140252.502500", "140253.992500", "140255.482500", "140256.972500", "140258.462500", "140259.952500", "140301.442500", "140302.932500", "140304.422500", "140305.912500", "140307.402500", "140308.892500", "140310.382500", "140311.872500", "140313.362500", "140314.852500", "140316.342500", "140317.832500", "140319.322500", "140320.812500", "140322.302500", "140323.792500", "140325.282500", "140326.772500", "140328.262500", "140329.752500", "140331.242500", "140332.732500", "140334.222500", "140335.712500", "140337.202500", "140338.692500", "140340.182500", "140341.672500", "140343.162500", "140344.652500", "140346.142500", "140347.632500", "140349.122500", "140350.612500", "140352.102500", "140353.592500", "140355.082500", "140356.572500", "140358.062500", "140359.552500", "140401.042500", "140402.532500", "140404.022500", "140405.512500", "140407.002500", "140408.492500", "140409.982500", "140411.472500", "140412.962500", "140414.452500", "140415.942500", "140417.432500", "140418.922500", "140420.412500", "140421.902500", "140423.392500", "140424.882500", "140426.372500", "140427.862500", "140429.352500", "140430.842500", "140432.332500", "140433.822500", "140435.312500", "140436.802500", "140438.292500", "140439.782500", "140441.272500", "140442.762500", "140444.252500", "140445.742500", "140447.232500", "140448.722500", "140450.212500", "140451.702500", "140453.192500", "140454.682500", "140456.172500", "140457.662500", "140459.152500", "140500.642500", "140502.132500", "140503.622500", "140505.112500", "140506.602500", "140508.092500", "140509.582500", "140511.072500", "140512.562500", "140514.052500", "140515.542500", "140517.032500", "140518.522500", "140520.012500", "140521.502500", "140522.992500", "140524.482500", "140525.972500", "140527.462500", "140528.952500", "140530.442500", "140531.932500", "140533.422500", "140534.912500", "140536.402500", "140537.892500", "140539.382500", "140540.872500", "140542.362500", "140543.852500", "140545.342500", "140546.832500", "140548.322500", "140549.812500", "140551.302500", "140552.792500", "140554.282500", "140555.772500", "140557.262500", "140558.752500", "140600.242500", "140601.732500", "140603.222500", "140604.712500", "140606.202500", "140607.692500", "140609.182500", "140610.672500", "140612.162500", "140613.652500", "140615.142500", "140616.632500", "140618.122500", "140619.612500", "140621.102500", "140622.592500", "140624.082500", "140625.572500", "140627.062500", "140628.552500", "140630.042500", "140631.532500", "140633.022500", "140634.512500", "140636.002500", "140637.492500", "140638.982500", "140640.472500", "140641.962500", "140643.452500", "140644.942500", "140646.432500", "140647.922500", "140649.412500", "140650.902500", "140652.392500", "140653.882500", "140655.372500", "140656.862500", "140658.352500", "140659.842500", "140701.332500", "140702.822500", "140704.312500", "140705.802500", "140707.292500", "140708.782500", "140710.272500", "140711.762500", "140713.252500", "140714.742500", "140716.232500", "140717.722500", "140719.212500", "140720.702500", "140722.192500", "140723.682500", "140725.172500", "140726.662500", "140728.152500", "140729.642500", "140731.132500", "140732.622500", "140734.112500", "140735.602500", "140737.092500", "140738.582500", "140740.072500", "140741.562500", "140743.052500", "140744.542500", "140746.032500", "140747.522500", "140749.012500", "140750.502500", "140751.992500", "140753.482500", "140754.972500", "140756.462500", "140757.952500", "140759.442500", "140800.932500", "140802.422500", "140803.912500", "140805.402500", "140806.892500", "140808.382500", "140809.872500", "140811.362500", "140812.852500", "140814.342500", "140815.832500", "140817.322500", "140818.812500", "140820.302500", "140821.792500", "140823.282500", "140824.772500", "140826.262500", "140827.752500", "140829.242500", "140830.732500", "140832.222500", "140833.712500", "140835.202500", "140836.692500", "140838.182500", "140839.672500", "140841.162500", "140842.652500", "140844.142500", "140845.632500", "140847.122500", "140848.612500", "140850.102500", "140851.592500", "140853.082500", "140854.572500", "140856.062500", "140857.552500", "140859.042500", "140900.532500", "140902.022500", "140903.512500", "140905.002500", "140906.492500", "140907.982500", "140909.472500", "140910.962500", "140912.452500", "140913.942500", "140915.432500", "140916.922500", "140918.412500", "140919.902500", "140921.392500", "140922.882500", "140924.372500", "140925.862500", "140927.352500", "140928.842500", "140930.332500", "140931.822500", "140933.312500", "140934.802500", "140936.292500", "140937.782500", "140939.272500", "140940.762500", "140942.252500", "140943.742500", "140945.232500", "140946.722500", "140948.212500", "140949.702500", "140951.192500", "140952.682500", "140954.172500", "140955.662500", "140957.152500", "140958.642500", "141000.132500", "141001.622500", "141003.112500", "141004.602500", "141006.092500", "141007.582500", "141009.072500", "141010.562500", "141012.052500", "141013.542500", "141015.032500", "141016.522500", "141018.012500", "141019.502500", "141020.992500", "141022.482500", "141023.972500", "141025.462500", "141026.952500", "141028.442500", "141029.932500", "141031.422500", "141032.912500", "141034.402500", "141035.892500", "141037.382500", "141038.872500", "141040.362500", "141041.852500", "141043.342500", "141044.832500", "141046.322500", "141047.812500", "141049.302500", "141050.792500", "141052.282500", "141053.772500", "141055.262500", "141056.752500", "141058.242500", "141059.732500", "141101.222500", "141102.712500", "141104.202500", "141105.692500", "141107.182500", "141108.672500", "141110.162500", "141111.652500", "141113.142500", "141114.632500", "141116.122500", "141117.612500", "141119.102500", "141120.592500", "141122.082500", "141123.572500", "141125.062500", "141126.552500", "141128.042500", "141129.532500", "141131.022500"],
      "ContentTime": ["140242.926000", "140242.929000", "140242.933000", "140242.936000", "140242.939000", "140242.943000", "140242.946000", "140242.949000", "140242.953000", "140242.956000", "140242.959000", "140242.963000", "140242.966000", "140242.970000", "140242.975000", "140242.978000", "140242.985000", "140242.988000", "140242.991000", "140242.995000", "140242.998000", "140243.003000", "140243.006000", "140243.010000", "140243.013000", "140243.016000", "140243.019000", "140243.023000", "140243.026000", "140243.030000", "140243.033000", "140243.036000", "140243.039000", "140243.043000", "140302.882000", "140302.886000", "140302.889000", "140302.892000", "140302.896000", "140302.899000", "140302.902000", "140302.906000", "140302.909000", "140302.912000", "140302.916000", "140302.937000", "140302.941000", "140302.944000", "140302.947000", "140302.950000", "140302.954000", "140302.957000", "140302.960000", "140302.964000", "140302.967000", "140322.882000", "140322.886000", "140322.889000", "140322.892000", "140322.896000", "140322.899000", "140322.902000", "140322.906000", "140322.909000", "140322.912000", "140322.916000", "140322.919000", "140322.922000", "140322.926000", "140322.929000", "140322.932000", "140322.936000", "140322.939000", "140322.942000", "140322.945000", "140342.882000", "140342.886000", "140342.889000", "140342.892000", "140342.896000", "140342.899000", "140342.902000", "140342.906000", "140342.909000", "140342.912000", "140342.916000", "140342.919000", "140342.922000", "140342.926000", "140342.929000", "140342.932000", "140342.936000", "140342.939000", "140342.942000", "140342.946000", "140422.883000", "140422.887000", "140422.890000", "140422.893000", "140422.897000", "140422.900000", "140422.903000", "140422.907000", "140422.910000", "140422.913000", "140422.917000", "140422.920000", "140422.924000", "140422.927000", "140422.930000", "140422.933000", "140422.937000", "140422.940000", "140422.943000", "140422.947000", "140422.950000", "140422.953000", "140422.957000", "140422.960000", "140422.963000", "140422.967000", "140422.970000", "140422.973000", "140422.977000", "140422.980000", "140502.882000", "140502.886000", "140502.889000", "140502.892000", "140502.896000", "140502.899000", "140502.903000", "140502.906000", "140502.909000", "140502.912000", "140502.916000", "140502.919000", "140502.922000", "140502.926000", "140502.929000", "140502.933000", "140502.936000", "140502.939000", "140502.943000", "140502.957000", "140502.960000", "140502.963000", "140502.967000", "140502.970000", "140502.973000", "140502.977000", "140502.980000", "140542.882000", "140542.886000", "140542.896000", "140542.899000", "140542.902000", "140542.906000", "140542.909000", "140542.912000", "140542.916000", "140542.919000", "140542.922000", "140542.926000", "140542.929000", "140542.932000", "140542.935000", "140542.939000", "140542.942000", "140542.945000", "140542.948000", "140542.952000", "140542.955000", "140542.958000", "140542.962000", "140542.965000", "140542.968000", "140542.971000", "140542.975000", "140622.882000", "140622.886000", "140622.890000", "140622.893000", "140622.897000", "140622.900000", "140622.903000", "140622.907000", "140622.910000", "140622.913000", "140622.917000", "140622.920000", "140622.923000", "140622.927000", "140622.930000", "140622.933000", "140622.936000", "140622.940000", "140622.943000", "140622.947000", "140622.950000", "140622.953000", "140622.957000", "140622.960000", "140622.963000", "140622.967000", "140702.883000", "140702.887000", "140702.890000", "140702.894000", "140702.897000", "140702.900000", "140702.904000", "140702.907000", "140702.910000", "140702.914000", "140702.917000", "140702.920000", "140702.924000", "140702.927000", "140702.930000", "140702.933000", "140702.937000", "140702.940000", "140702.943000", "140702.947000", "140702.950000", "140702.953000", "140702.957000", "140702.960000", "140702.963000", "140702.967000", "140702.970000", "140742.882000", "140742.898000", "140742.901000", "140742.905000", "140742.908000", "140742.911000", "140742.915000", "140742.918000", "140742.922000", "140742.925000", "140742.928000", "140742.932000", "140742.935000", "140742.938000", "140742.942000", "140742.945000", "140742.948000", "140742.951000", "140742.955000", "140742.958000", "140742.961000", "140742.965000", "140742.968000", "140742.971000", "140742.975000", "140742.978000", "140742.981000", "140822.882000", "140822.886000", "140822.889000", "140822.893000", "140822.896000", "140822.899000", "140822.903000", "140822.906000", "140822.915000", "140822.919000", "140822.922000", "140822.925000", "140822.929000", "140822.932000", "140822.935000", "140822.939000", "140822.942000", "140822.945000", "140822.949000", "140822.952000", "140822.955000", "140822.959000", "140822.962000", "140822.965000", "140822.969000", "140822.972000", "140822.975000", "140902.883000", "140902.887000", "140902.890000", "140902.894000", "140902.897000", "140902.900000", "140902.904000", "140902.907000", "140902.911000", "140902.914000", "140902.917000", "140902.921000", "140902.924000", "140902.927000", "140902.931000", "140902.934000", "140902.937000", "140902.941000", "140902.944000", "140902.947000", "140902.951000", "140902.954000", "140902.958000", "140902.961000", "140902.964000", "140902.968000", "140902.971000", "140942.882000", "140942.886000", "140942.889000", "140942.892000", "140942.896000", "140942.899000", "140942.903000", "140942.906000", "140942.909000", "140942.913000", "140942.916000", "140942.919000", "140942.923000", "140942.926000", "140942.929000", "140942.933000", "140942.936000", "140942.939000", "140942.943000", "140942.946000", "140942.950000", "140942.953000", "140942.956000", "140942.960000", "140942.963000", "140942.966000", "140942.970000", "141022.882000", "141022.886000", "141022.889000", "141022.893000", "141022.896000", "141022.899000", "141022.903000", "141022.906000", "141022.910000", "141022.914000", "141022.918000", "141022.921000", "141022.925000", "141022.929000", "141022.932000", "141022.936000", "141022.940000", "141022.943000", "141022.946000", "141022.950000", "141022.953000", "141022.956000", "141022.960000", "141022.963000", "141022.966000", "141022.970000", "141102.882000", "141102.886000", "141102.889000", "141102.893000", "141102.896000", "141102.899000", "141102.903000", "141102.906000", "141102.911000", "141102.914000", "141102.918000", "141102.921000", "141102.924000", "141102.928000", "141102.931000", "141102.935000", "141102.938000", "141102.941000", "141102.945000", "141102.948000", "141102.951000", "141102.954000", "141102.958000", "141102.961000", "141102.964000", "141102.968000", "141102.971000", "141133.172000", "141133.176000", "141133.179000", "141133.203000", "141133.206000", "141133.210000", "141133.213000", "141133.216000", "141133.220000", "141133.223000", "141133.226000", "141133.230000", "141133.233000", "141133.236000", "141133.240000", "141133.243000", "141133.246000", "141133.250000", "141133.253000", "141133.257000", "141133.260000"],
      "InstanceCreationTime": ["140242.926000", "140242.929000", "140242.933000", "140242.936000", "140242.939000", "140242.943000", "140242.946000", "140242.949000", "140242.953000", "140242.956000", "140242.959000", "140242.963000", "140242.966000", "140242.970000", "140242.975000", "140242.978000", "140242.985000", "140242.988000", "140242.991000", "140242.995000", "140242.998000", "140243.003000", "140243.006000", "140243.010000", "140243.013000", "140243.016000", "140243.019000", "140243.023000", "140243.026000", "140243.030000", "140243.033000", "140243.036000", "140243.039000", "140243.043000", "140302.882000", "140302.886000", "140302.889000", "140302.892000", "140302.896000", "140302.899000", "140302.902000", "140302.906000", "140302.909000", "140302.912000", "140302.916000", "140302.937000", "140302.941000", "140302.944000", "140302.947000", "140302.950000", "140302.954000", "140302.957000", "140302.960000", "140302.964000", "140302.967000", "140322.882000", "140322.886000", "140322.889000", "140322.892000", "140322.896000", "140322.899000", "140322.902000", "140322.906000", "140322.909000", "140322.912000", "140322.916000", "140322.919000", "140322.922000", "140322.926000", "140322.929000", "140322.932000", "140322.936000", "140322.939000", "140322.942000", "140322.945000", "140342.882000", "140342.886000", "140342.889000", "140342.892000", "140342.896000", "140342.899000", "140342.902000", "140342.906000", "140342.909000", "140342.912000", "140342.916000", "140342.919000", "140342.922000", "140342.926000", "140342.929000", "140342.932000", "140342.936000", "140342.939000", "140342.942000", "140342.946000", "140422.883000", "140422.887000", "140422.890000", "140422.893000", "140422.897000", "140422.900000", "140422.903000", "140422.907000", "140422.910000", "140422.913000", "140422.917000", "140422.920000", "140422.924000", "140422.927000", "140422.930000", "140422.933000", "140422.937000", "140422.940000", "140422.943000", "140422.947000", "140422.950000", "140422.953000", "140422.957000", "140422.960000", "140422.963000", "140422.967000", "140422.970000", "140422.973000", "140422.977000", "140422.980000", "140502.882000", "140502.886000", "140502.889000", "140502.892000", "140502.896000", "140502.899000", "140502.903000", "140502.906000", "140502.909000", "140502.912000", "140502.916000", "140502.919000", "140502.922000", "140502.926000", "140502.929000", "140502.933000", "140502.936000", "140502.939000", "140502.943000", "140502.957000", "140502.960000", "140502.963000", "140502.967000", "140502.970000", "140502.973000", "140502.977000", "140502.980000", "140542.882000", "140542.886000", "140542.896000", "140542.899000", "140542.902000", "140542.906000", "140542.909000", "140542.912000", "140542.916000", "140542.919000", "140542.922000", "140542.926000", "140542.929000", "140542.932000", "140542.935000", "140542.939000", "140542.942000", "140542.945000", "140542.948000", "140542.952000", "140542.955000", "140542.958000", "140542.962000", "140542.965000", "140542.968000", "140542.971000", "140542.975000", "140622.882000", "140622.886000", "140622.890000", "140622.893000", "140622.897000", "140622.900000", "140622.903000", "140622.907000", "140622.910000", "140622.913000", "140622.917000", "140622.920000", "140622.923000", "140622.927000", "140622.930000", "140622.933000", "140622.936000", "140622.940000", "140622.943000", "140622.947000", "140622.950000", "140622.953000", "140622.957000", "140622.960000", "140622.963000", "140622.967000", "140702.883000", "140702.887000", "140702.890000", "140702.894000", "140702.897000", "140702.900000", "140702.904000", "140702.907000", "140702.910000", "140702.914000", "140702.917000", "140702.920000", "140702.924000", "140702.927000", "140702.930000", "140702.933000", "140702.937000", "140702.940000", "140702.943000", "140702.947000", "140702.950000", "140702.953000", "140702.957000", "140702.960000", "140702.963000", "140702.967000", "140702.970000", "140742.882000", "140742.898000", "140742.901000", "140742.905000", "140742.908000", "140742.911000", "140742.915000", "140742.918000", "140742.922000", "140742.925000", "140742.928000", "140742.932000", "140742.935000", "140742.938000", "140742.942000", "140742.945000", "140742.948000", "140742.951000", "140742.955000", "140742.958000", "140742.961000", "140742.965000", "140742.968000", "140742.971000", "140742.975000", "140742.978000", "140742.981000", "140822.882000", "140822.886000", "140822.889000", "140822.893000", "140822.896000", "140822.899000", "140822.903000", "140822.906000", "140822.915000", "140822.919000", "140822.922000", "140822.925000", "140822.929000", "140822.932000", "140822.935000", "140822.939000", "140822.942000", "140822.945000", "140822.949000", "140822.952000", "140822.955000", "140822.959000", "140822.962000", "140822.965000", "140822.969000", "140822.972000", "140822.975000", "140902.883000", "140902.887000", "140902.890000", "140902.894000", "140902.897000", "140902.900000", "140902.904000", "140902.907000", "140902.911000", "140902.914000", "140902.917000", "140902.921000", "140902.924000", "140902.927000", "140902.931000", "140902.934000", "140902.937000", "140902.941000", "140902.944000", "140902.947000", "140902.951000", "140902.954000", "140902.958000", "140902.961000", "140902.964000", "140902.968000", "140902.971000", "140942.882000", "140942.886000", "140942.889000", "140942.892000", "140942.896000", "140942.899000", "140942.903000", "140942.906000", "140942.909000", "140942.913000", "140942.916000", "140942.919000", "140942.923000", "140942.926000", "140942.929000", "140942.933000", "140942.936000", "140942.939000", "140942.943000", "140942.946000", "140942.950000", "140942.953000", "140942.956000", "140942.960000", "140942.963000", "140942.966000", "140942.970000", "141022.882000", "141022.886000", "141022.889000", "141022.893000", "141022.896000", "141022.899000", "141022.903000", "141022.906000", "141022.910000", "141022.914000", "141022.918000", "141022.921000", "141022.925000", "141022.929000", "141022.932000", "141022.936000", "141022.940000", "141022.943000", "141022.946000", "141022.950000", "141022.953000", "141022.956000", "141022.960000", "141022.963000", "141022.966000", "141022.970000", "141102.882000", "141102.886000", "141102.889000", "141102.893000", "141102.896000", "141102.899000", "141102.903000", "141102.906000", "141102.911000", "141102.914000", "141102.918000", "141102.921000", "141102.924000", "141102.928000", "141102.931000", "141102.935000", "141102.938000", "141102.941000", "141102.945000", "141102.948000", "141102.951000", "141102.954000", "141102.958000", "141102.961000", "141102.964000", "141102.968000", "141102.971000", "141133.172000", "141133.176000", "141133.179000", "141133.203000", "141133.206000", "141133.210000", "141133.213000", "141133.216000", "141133.220000", "141133.223000", "141133.226000", "141133.230000", "141133.233000", "141133.236000", "141133.240000", "141133.243000", "141133.246000", "141133.250000", "141133.253000", "141133.257000", "141133.260000"],
