{
  "AcquisitionMatrixPE": 104,
  "AcquisitionNumber": 1,
  "AcquisitionTime": "14:13:0.492500",
  "BandwidthPerPixelPhaseEncode": 17.17,
  "BaseResolution": 104,
  "BodyPartExamined": "BRAIN",
  "CoilString": "HC1-7;NC1_2",
  "ConsistencyInfo": "N4_VE11C_LATEST_20160120",
  "ConversionSoftware": "dcm2niix",
  "ConversionSoftwareVersion": "v1.0.20190902",
  "DerivedVendorReportedEchoSpacing": 0.000560011,
  "DeviceSerialNumber": "167006",
  "DwellTime": 2.1e-06,
  "EchoTime": 0.037,
  "EchoTrainLength": 104,
  "EffectiveEchoSpacing": 0.000560011,
  "FlipAngle": 52,
  "HeudiconvVersion": "0.10.0",
  "ImageComments": "Unaliased_MB4_PE3_LB",
  "ImageOrientationPatientDICOM": [0.999436, 0.0159996, 0.0295139, 0.00139551, 0.858571, -0.512693],
  "ImageType": [
    "ORIGINAL",
    "PRIMARY",
    "M",
    "MB",
    "ND",
    "MOSAIC"
],
  "ImagingFrequency": 123.259,
  "InPlanePhaseEncodingDirectionDICOM": "COL",
  "InstitutionAddress": "Chemin_Queen-Mary_4565_Montreal_District_CA_H3W_1W5",
  "InstitutionName": "IUGM",
  "InstitutionalDepartmentName": "Department",
  "MRAcquisitionType": "2D",
  "MagneticFieldStrength": 3,
  "Manufacturer": "Siemens",
  "ManufacturersModelName": "Prisma_fit",
  "Modality": "MR",
  "MultibandAccelerationFactor": 4,
  "PartialFourier": 1,
  "PatientPosition": "HFS",
  "PercentPhaseFOV": 100,
  "PhaseEncodingDirection": "j",
  "PhaseEncodingSteps": 104,
  "PhaseResolution": 1,
  "PixelBandwidth": 2290,
  "ProcedureStepDescription": "games_mario",
  "ProtocolName": "func_task-mario_run-02",
  "PulseSequenceDetails": "%CustomerSeq%_cmrr_mbep2d_bold",
  "ReceiveCoilActiveElements": "HC1-7;NC1,2",
  "ReceiveCoilName": "HeadNeck_64",
  "ReconMatrixPE": 104,
  "RepetitionTime": 1.49,
  "SAR": 0.0451311,
  "ScanOptions": "FS",
  "ScanningSequence": "EP",
  "SequenceName": "epfid2d1_104",
  "SequenceVariant": "SK_SS",
  "SeriesDescription": "func_task-mario_run-02",
  "SeriesNumber": 16,
  "ShimSetting": [619, -7190, -8858, 268, 13, -152, -15, -27],
  "SliceThickness": 2,
  "SliceTiming": [0, 0.7825, 0.0975, 0.88, 0.195, 0.98, 0.2925, 1.0775, 0.39, 1.175, 0.49, 1.2725, 0.5875, 1.37, 0.685, 0, 0.7825, 0.0975, 0.88, 0.195, 0.98, 0.2925, 1.0775, 0.39, 1.175, 0.49, 1.2725, 0.5875, 1.37, 0.685, 0, 0.7825, 0.0975, 0.88, 0.195, 0.98, 0.2925, 1.0775, 0.39, 1.175, 0.49, 1.2725, 0.5875, 1.37, 0.685, 0, 0.7825, 0.0975, 0.88, 0.195, 0.98, 0.2925, 1.0775, 0.39, 1.175, 0.49, 1.2725, 0.5875, 1.37, 0.685],
  "SoftwareVersions": "syngo_MR_E11",
  "SpacingBetweenSlices": 2,
  "StationName": "MRC35049",
  "TaskName": "mario",
  "TotalReadoutTime": 0.0576811,
  "TxRefAmp": 260.477,
  "WipMemBlock": "8c3866cb-865a-492b-9143-f94bce3d6888||Sequence: R016 ve11c/master r/e634e98; Dec 19 2017 11:00:25 by eja",
  "dcmmeta_affine": [
    [-1.9988726377487183, 0.002791011007502675, 0.06708529591560364, 104.97388458251953],
    [-0.03199929744005203, 1.7171416282653809, -1.0248905420303345, -49.55873489379883],
    [0.05902771279215813, 1.025386095046997, 1.7161290645599365, -87.00694274902344],
    [0.0, 0.0, 0.0, 1.0]
],
  "dcmmeta_reorient_transform": [
    [0.0, -1.0, 0.0, 103.0],
    [1.0, 0.0, 0.0, 0.0],
    [0.0, 0.0, 1.0, 0.0],
    [0.0, 0.0, 0.0, 1.0]
],
  "dcmmeta_shape": [104, 104, 60, 464],
  "dcmmeta_slice_dim": 2,
  "dcmmeta_version": 0.6,
  "global": {
    "const": {
      "AcquisitionMatrix": [104, 0, 0, 104],
      "AngioFlag": "N",
      "BitsAllocated": 16,
      "BitsStored": 16,
      "BodyPartExamined": "BRAIN",
      "Columns": 832,
      "EchoNumbers": 1,
      "EchoTime": 37.0,
      "EchoTrainLength": 104,
      "FlipAngle": 52.0,
      "HighBit": 15,
      "ImageOrientationPatient": [0.99943631287899, 0.01599964794588, 0.02951385715982, 0.00139550556098, 0.85857083061167, -0.5126930674263],
      "ImagePositionPatient": [-833.8669231675, -763.9941663276, 370.36229402755],
      "ImageType": [
        "ORIGINAL",
        "PRIMARY",
        "M",
        "MB",
        "ND",
        "MOSAIC"
],
      "ImagedNucleus": "1H",
      "ImagingFrequency": 123.258934,
      "InPlanePhaseEncodingDirection": "COL",
      "MRAcquisitionType": "2D",
      "MagneticFieldStrength": 3.0,
      "Manufacturer": "SIEMENS",
      "ManufacturerModelName": "Prisma_fit",
      "Modality": "MR",
      "NumberOfAverages": 1.0,
      "NumberOfPhaseEncodingSteps": 104,
      "PercentPhaseFieldOfView": 100.0,
      "PercentSampling": 100.0,
      "PerformedProcedureStepStartTime": "135015.778000",
      "PhotometricInterpretation": "MONOCHROME2",
      "PixelBandwidth": 2290.0,
      "PixelRepresentation": 0,
      "PixelSpacing": [2.0, 2.0],
      "ProtocolName": "func_task-mario_run-02",
      "RepetitionTime": 1490.0,
      "Rows": 832,
      "SAR": 0.04513105168587,
      "SamplesPerPixel": 1,
      "ScanOptions": "FS",
      "ScanningSequence": "EP",
      "SequenceName": "epfid2d1_104",
      "SequenceVariant": [
        "SK",
        "SS"
],
      "SeriesDescription": "func_task-mario_run-02",
      "SeriesNumber": 16,
      "SeriesTime": "141409.454000",
      "SliceLocation": -45.740332764701,
      "SliceThickness": 2.0,
      "SmallestImagePixelValue": 0,
      "SoftwareVersions": "syngo MR E11",
      "SpacingBetweenSlices": 2.0000000403079,
      "SpecificCharacterSet": "ISO_IR 100",
      "StudyID": "1",
      "StudyTime": "135015.712000",
      "TransmitCoilName": "Body",
      "VariableFlipAngleFlag": "N",
      "WindowCenterWidthExplanation": "Algo1",
      "dBdt": 0.0},
    "slices": {}
  },
  "time": {
    "samples": {
      "AcquisitionNumber": [1, 2, 3, 4, 5, 6, 7, 8, 9, 10, 11, 12, 13, 14, 15, 16, 17, 18, 19, 20, 21, 22, 23, 24, 25, 26, 27, 28, 29, 30, 31, 32, 33, 34, 35, 36, 37, 38, 39, 40, 41, 42, 43, 44, 45, 46, 47, 48, 49, 50, 51, 52, 53, 54, 55, 56, 57, 58, 59, 60, 61, 62, 63, 64, 65, 66, 67, 68, 69, 70, 71, 72, 73, 74, 75, 76, 77, 78, 79, 80, 81, 82, 83, 84, 85, 86, 87, 88, 89, 90, 91, 92, 93, 94, 95, 96, 97, 98, 99, 100, 101, 102, 103, 104, 105, 106, 107, 108, 109, 110, 111, 112, 113, 114, 115, 116, 117, 118, 119, 120, 121, 122, 123, 124, 125, 126, 127, 128, 129, 130, 131, 132, 133, 134, 135, 136, 137, 138, 139, 140, 141, 142, 143, 144, 145, 146, 147, 148, 149, 150, 151, 152, 153, 154, 155, 156, 157, 158, 159, 160, 161, 162, 163, 164, 165, 166, 167, 168, 169, 170, 171, 172, 173, 174, 175, 176, 177, 178, 179, 180, 181, 182, 183, 184, 185, 186, 187, 188, 189, 190, 191, 192, 193, 194, 195, 196, 197, 198, 199, 200, 201, 202, 203, 204, 205, 206, 207, 208, 209, 210, 211, 212, 213, 214, 215, 216, 217, 218, 219, 220, 221, 222, 223, 224, 225, 226, 227, 228, 229, 230, 231, 232, 233, 234, 235, 236, 237, 238, 239, 240, 241, 242, 243, 244, 245, 246, 247, 248, 249, 250, 251, 252, 253, 254, 255, 256, 257, 258, 259, 260, 261, 262, 263, 264, 265, 266, 267, 268, 269, 270, 271, 272, 273, 274, 275, 276, 277, 278, 279, 280, 281, 282, 283, 284, 285, 286, 287, 288, 289, 290, 291, 292, 293, 294, 295, 296, 297, 298, 299, 300, 301, 302, 303, 304, 305, 306, 307, 308, 309, 310, 311, 312, 313, 314, 315, 316, 317, 318, 319, 320, 321, 322, 323, 324, 325, 326, 327, 328, 329, 330, 331, 332, 333, 334, 335, 336, 337, 338, 339, 340, 341, 342, 343, 344, 345, 346, 347, 348, 349, 350, 351, 352, 353, 354, 355, 356, 357, 358, 359, 360, 361, 362, 363, 364, 365, 366, 367, 368, 369, 370, 371, 372, 373, 374, 375, 376, 377, 378, 379, 380, 381, 382, 383, 384, 385, 386, 387, 388, 389, 390, 391, 392, 393, 394, 395, 396, 397, 398, 399, 400, 401, 402, 403, 404, 405, 406, 407, 408, 409, 410, 411, 412, 413, 414, 415, 416, 417, 418, 419, 420, 421, 422, 423, 424, 425, 426, 427, 428, 429, 430, 431, 432, 433, 434, 435, 436, 437, 438, 439, 440, 441, 442, 443, 444, 445, 446, 447, 448, 449, 450, 451, 452, 453, 454, 455, 456, 457, 458, 459, 460, 461, 462, 463, 464],
      "AcquisitionTime": ["141300.492500", "141301.982500", "141303.472500", "141304.962500", "141306.452500", "141307.942500", "141309.432500", "141310.922500", "141312.412500", "141313.902500", "141315.392500", "141316.882500", "141318.372500", "141319.862500", "141321.352500", "141322.842500", "141324.332500", "141325.822500", "141327.312500", "141328.802500", "141330.292500", "141331.782500", "141333.272500", "141334.762500", "141336.252500", "141337.742500", "141339.232500", "141340.722500", "141342.212500", "141343.702500", "141345.192500", "141346.682500", "141348.172500", "141349.662500", "141351.152500", "141352.642500", "141354.132500", "141355.622500", "141357.112500", "141358.602500", "141400.092500", "141401.582500", "141403.072500", "141404.562500", "141406.052500", "141407.542500", "141409.032500", "141410.522500", "141412.012500", "141413.502500", "141414.992500", "141416.482500", "141417.972500", "141419.462500", "141420.952500", "141422.442500", "141423.932500", "141425.422500", "141426.912500", "141428.402500", "141429.892500", "141431.382500", "141432.872500", "141434.362500", "141435.852500", "141437.342500", "141438.832500", "141440.322500", "141441.812500", "141443.302500", "141444.792500", "141446.282500", "141447.772500", "141449.262500", "141450.752500", "141452.242500", "141453.732500", "141455.222500", "141456.712500", "141458.202500", "141459.692500", "141501.182500", "141502.672500", "141504.162500", "141505.652500", "141507.142500", "141508.632500", "141510.122500", "141511.612500", "141513.102500", "141514.592500", "141516.082500", "141517.572500", "141519.062500", "141520.552500", "141522.042500", "141523.532500", "141525.022500", "141526.512500", "141528.002500", "141529.492500", "141530.982500", "141532.472500", "141533.962500", "141535.452500", "141536.942500", "141538.432500", "141539.922500", "141541.412500", "141542.902500", "141544.392500", "141545.882500", "141547.372500", "141548.862500", "141550.352500", "141551.842500", "141553.332500", "141554.822500", "141556.312500", "141557.802500", "141559.292500", "141600.782500", "141602.272500", "141603.762500", "141605.252500", "141606.742500", "141608.232500", "141609.722500", "141611.212500", "141612.702500", "141614.192500", "141615.682500", "141617.172500", "141618.662500", "141620.152500", "141621.642500", "141623.132500", "141624.622500", "141626.112500", "141627.602500", "141629.092500", "141630.582500", "141632.072500", "141633.562500", "141635.052500", "141636.542500", "141638.032500", "141639.522500", "141641.012500", "141642.502500", "141643.992500", "141645.482500", "141646.972500", "141648.462500", "141649.952500", "141651.442500", "141652.932500", "141654.422500", "141655.912500", "141657.402500", "141658.892500", "141700.382500", "141701.872500", "141703.362500", "141704.852500", "141706.342500", "141707.832500", "141709.322500", "141710.812500", "141712.302500", "141713.792500", "141715.282500", "141716.772500", "141718.262500", "141719.752500", "141721.242500", "141722.732500", "141724.222500", "141725.712500", "141727.202500", "141728.692500", "141730.182500", "141731.672500", "141733.162500", "141734.652500", "141736.142500", "141737.632500", "141739.122500", "141740.612500", "141742.102500", "141743.592500", "141745.082500", "141746.572500", "141748.062500", "141749.552500", "141751.042500", "141752.532500", "141754.022500", "141755.512500", "141757.002500", "141758.492500", "141759.982500", "141801.472500", "141802.962500", "141804.452500", "141805.942500", "141807.432500", "141808.922500", "141810.412500", "141811.902500", "141813.392500", "141814.882500", "141816.372500", "141817.862500", "141819.352500", "141820.842500", "141822.332500", "141823.822500", "141825.312500", "141826.802500", "141828.292500", "141829.782500", "141831.272500", "141832.762500", "141834.252500", "141835.742500", "141837.232500", "141838.722500", "141840.212500", "141841.702500", "141843.192500", "141844.682500", "141846.172500", "141847.662500", "141849.152500", "141850.642500", "141852.132500", "141853.622500", "141855.112500", "141856.602500", "141858.092500", "141859.582500", "141901.072500", "141902.562500", "141904.052500", "141905.542500", "141907.032500", "141908.522500", "141910.012500", "141911.502500", "141912.992500", "141914.482500", "141915.972500", "141917.462500", "141918.952500", "141920.442500", "141921.932500", "141923.422500", "141924.912500", "141926.402500", "141927.892500", "141929.382500", "141930.872500", "141932.362500", "141933.852500", "141935.342500", "141936.832500", "141938.322500", "141939.812500", "141941.302500", "141942.792500", "141944.282500", "141945.772500", "141947.262500", "141948.752500", "141950.242500", "141951.732500", "141953.222500", "141954.712500", "141956.202500", "141957.692500", "141959.182500", "142000.672500", "142002.162500", "142003.652500", "142005.142500", "142006.632500", "142008.122500", "142009.612500", "142011.102500", "142012.592500", "142014.082500", "142015.572500", "142017.062500", "142018.552500", "142020.042500", "142021.532500", "142023.022500", "142024.512500", "142026.002500", "142027.492500", "142028.982500", "142030.472500", "142031.962500", "142033.452500", "142034.942500", "142036.432500", "142037.922500", "142039.412500", "142040.902500", "142042.392500", "142043.882500", "142045.372500", "142046.862500", "142048.352500", "142049.842500", "142051.332500", "142052.822500", "142054.312500", "142055.802500", "142057.292500", "142058.782500", "142100.272500", "142101.762500", "142103.252500", "142104.742500", "142106.232500", "142107.722500", "142109.212500", "142110.702500", "142112.192500", "142113.682500", "142115.172500", "142116.662500", "142118.152500", "142119.642500", "142121.132500", "142122.622500", "142124.112500", "142125.602500", "142127.092500", "142128.582500", "142130.072500", "142131.562500", "142133.052500", "142134.542500", "142136.032500", "142137.522500", "142139.012500", "142140.502500", "142141.992500", "142143.482500", "142144.972500", "142146.462500", "142147.952500", "142149.442500", "142150.932500", "142152.422500", "142153.912500", "142155.402500", "142156.892500", "142158.382500", "142159.872500", "142201.362500", "142202.852500", "142204.342500", "142205.832500", "142207.322500", "142208.812500", "142210.302500", "142211.792500", "142213.282500", "142214.772500", "142216.262500", "142217.752500", "142219.242500", "142220.732500", "142222.222500", "142223.712500", "142225.202500", "142226.692500", "142228.182500", "142229.672500", "142231.162500", "142232.652500", "142234.142500", "142235.632500", "142237.122500", "142238.612500", "142240.102500", "142241.592500", "142243.082500", "142244.572500", "142246.062500", "142247.552500", "142249.042500", "142250.532500", "142252.022500", "142253.512500", "142255.002500", "142256.492500", "142257.982500", "142259.472500", "142300.962500", "142302.452500", "142303.942500", "142305.432500", "142306.922500", "142308.412500", "142309.902500", "142311.392500", "142312.882500", "142314.372500", "142315.862500", "142317.352500", "142318.842500", "142320.332500", "142321.822500", "142323.312500", "142324.802500", "142326.292500", "142327.782500", "142329.272500", "142330.762500", "142332.252500", "142333.742500", "142335.232500", "142336.722500", "142338.212500", "142339.702500", "142341.192500", "142342.682500", "142344.172500", "142345.662500", "142347.152500", "142348.642500", "142350.132500", "142351.622500", "142353.112500", "142354.602500", "142356.092500", "142357.582500", "142359.072500", "142400.562500", "142402.052500", "142403.542500", "142405.032500", "142406.522500", "142408.012500", "142409.502500", "142410.992500", "142412.482500", "142413.972500", "142415.462500", "142416.952500", "142418.442500", "142419.932500", "142421.422500", "142422.912500", "142424.402500", "142425.892500", "142427.382500", "142428.872500", "142430.362500"],
      "ContentTime": ["141409.457000", "141409.461000", "141409.464000", "141409.468000", "141409.471000", "141409.475000", "141409.478000", "141409.482000", "141409.485000", "141409.488000", "141409.492000", "141409.495000", "141409.498000", "141409.502000", "141409.505000", "141429.419000", "141429.423000", "141429.426000", "141429.429000", "141429.432000", "141429.436000", "141429.439000", "141429.442000", "141429.445000", "141429.448000", "141429.452000", "141429.455000", "141429.458000", "141429.461000", "141429.465000", "141429.468000", "141429.471000", "141429.474000", "141429.478000", "141429.489000", "141429.493000", "141449.419000", "141449.423000", "141449.426000", "141449.429000", "141449.432000", "141449.435000", "141449.439000", "141449.442000", "141449.445000", "141449.448000", "141449.452000", "141449.455000", "141449.458000", "141449.461000", "141449.465000", "141449.468000", "141449.471000", "141449.474000", "141449.478000", "141449.481000", "141509.420000", "141509.424000", "141509.427000", "141509.430000", "141509.433000", "141509.437000", "141509.440000", "141509.443000", "141509.446000", "141509.459000", "141509.462000", "141509.466000", "141509.469000", "141509.472000", "141509.475000", "141509.479000", "141509.482000", "141509.485000", "141509.488000", "141509.492000", "141529.419000", "141529.423000", "141529.426000", "141529.429000", "141529.432000", "141529.436000", "141529.439000", "141529.442000", "141529.446000", "141529.449000", "141529.452000", "141529.455000", "141529.459000", "141529.462000", "141529.465000", "141529.468000", "141529.472000", "141529.475000", "141529.478000", "141529.481000", "141609.419000", "141609.423000", "141609.426000", "141609.429000", "141609.433000", "141609.436000", "141609.439000", "141609.443000", "141609.446000", "141609.450000", "141609.453000", "141609.456000", "141609.459000", "141609.463000", "141609.466000", "141609.469000", "141609.473000", "141609.476000", "141609.479000", "141609.483000", "141609.486000", "141609.489000", "141609.493000", "141609.496000", "141609.499000", "141609.503000", "141609.506000", "141609.509000", "141609.512000", "141609.516000", "141649.419000", "141649.423000", "141649.426000", "141649.430000", "141649.433000", "141649.436000", "141649.439000", "141649.443000", "141649.446000", "141649.449000", "141649.453000", "141649.456000", "141649.459000", "141649.463000", "141649.466000", "141649.469000", "141649.472000", "141649.476000", "141649.479000", "141649.483000", "141649.486000", "141649.489000", "141649.492000", "141649.496000", "141649.499000", "141649.502000", "141649.506000", "141729.420000", "141729.424000", "141729.427000", "141729.431000", "141729.434000", "141729.437000", "141729.440000", "141729.444000", "141729.447000", "141729.450000", "141729.454000", "141729.457000", "141729.460000", "141729.464000", "141729.467000", "141729.470000", "141729.474000", "141729.477000", "141729.480000", "141729.484000", "141729.487000", "141729.490000", "141729.494000", "141729.497000", "141729.500000", "141729.504000", "141729.507000", "141809.419000", "141809.423000", "141809.426000", "141809.430000", "141809.433000", "141809.436000", "141809.440000", "141809.443000", "141809.446000", "141809.450000", "141809.453000", "141809.456000", "141809.460000", "141809.463000", "141809.466000", "141809.470000", "141809.473000", "141809.476000", "141809.480000", "141809.483000", "141809.486000", "141809.490000", "141809.493000", "141809.497000", "141809.510000", "141809.514000", "141849.419000", "141849.423000", "141849.426000", "141849.430000", "141849.433000", "141849.436000", "141849.439000", "141849.443000", "141849.446000", "141849.450000", "141849.453000", "141849.456000", "141849.459000", "141849.463000", "141849.466000", "141849.469000", "141849.473000", "141849.476000", "141849.479000", "141849.483000", "141849.486000", "141849.489000", "141849.492000", "141849.496000", "141849.499000", "141849.503000", "141849.506000", "141929.431000", "141929.435000", "141929.438000", "141929.441000", "141929.445000", "141929.448000", "141929.451000", "141929.455000", "141929.458000", "141929.461000", "141929.465000", "141929.468000", "141929.471000", "141929.475000", "141929.478000", "141929.482000", "141929.485000", "141929.488000", "141929.491000", "141929.495000", "141929.498000", "141929.501000", "141929.505000", "141929.508000", "141929.511000", "141929.515000", "141929.518000", "142009.419000", "142009.423000", "142009.426000", "142009.430000", "142009.433000", "142009.436000", "142009.440000", "142009.443000", "142009.446000", "142009.450000", "142009.453000", "142009.456000", "142009.460000", "142009.463000", "142009.466000", "142009.470000", "142009.473000", "142009.476000", "142009.480000", "142009.483000", "142009.486000", "142009.490000", "142009.493000", "142009.496000", "142009.499000", "142009.503000", "142009.506000", "142049.419000", "142049.423000", "142049.426000", "142049.430000", "142049.433000", "142049.436000", "142049.439000", "142049.443000", "142049.446000", "142049.449000", "142049.452000", "142049.456000", "142049.459000", "142049.463000", "142049.466000", "142049.469000", "142049.472000", "142049.476000", "142049.479000", "142049.482000", "142049.486000", "142049.489000", "142049.492000", "142049.496000", "142049.499000", "142049.502000", "142049.506000", "142129.419000", "142129.423000", "142129.426000", "142129.429000", "142129.433000", "142129.436000", "142129.440000", "142129.443000", "142129.446000", "142129.450000", "142129.453000", "142129.464000", "142129.468000", "142129.471000", "142129.475000", "142129.478000", "142129.481000", "142129.485000", "142129.488000", "142129.492000", "142129.495000", "142129.498000", "142129.502000", "142129.505000", "142129.508000", "142129.512000", "142129.515000", "142209.420000", "142209.424000", "142209.427000", "142209.431000", "142209.434000", "142209.438000", "142209.441000", "142209.444000", "142209.448000", "142209.451000", "142209.454000", "142209.458000", "142209.461000", "142209.464000", "142209.467000", "142209.471000", "142209.474000", "142209.477000", "142209.481000", "142209.484000", "142209.488000", "142209.491000", "142209.494000", "142209.498000", "142209.501000", "142209.504000", "142209.508000", "142249.419000", "142249.423000", "142249.426000", "142249.430000", "142249.433000", "142249.436000", "142249.440000", "142249.443000", "142249.446000", "142249.450000", "142249.453000", "142249.456000", "142249.459000", "142249.463000", "142249.466000", "142249.469000", "142249.472000", "142249.476000", "142249.479000", "142249.483000", "142249.486000", "142249.490000", "142249.493000", "142249.497000", "142249.500000", "142249.503000", "142309.419000", "142309.423000", "142309.426000", "142309.430000", "142309.433000", "142309.436000", "142309.439000", "142309.443000", "142309.446000", "142309.449000", "142309.453000", "142309.456000", "142309.459000", "142309.463000", "142349.419000", "142349.423000", "142349.426000", "142349.429000", "142349.433000", "142349.436000", "142349.439000", "142349.443000", "142349.446000", "142349.450000", "142349.453000", "142349.456000", "142349.459000", "142349.463000", "142349.466000", "142349.469000", "142349.473000", "142349.487000", "142349.491000", "142349.494000", "142349.497000", "142349.501000", "142349.504000", "142349.507000", "142349.511000", "142349.514000", "142349.517000", "142429.420000", "142429.424000", "142429.427000", "142429.431000", "142429.435000", "142429.438000", "142429.442000", "142429.446000", "142429.451000", "142429.455000", "142429.458000", "142429.461000", "142429.465000", "142429.469000", "142429.472000", "142429.476000", "142429.479000", "142429.482000", "142429.485000", "142429.489000", "142429.492000", "142429.495000", "142429.499000", "142429.502000", "142429.505000", "142429.509000", "142433.813000", "142433.817000", "142433.821000"],
