{
  "AcquisitionMatrixPE": 104,
  "AcquisitionNumber": 1,
  "AcquisitionTime": "14:50:15.902500",
  "BandwidthPerPixelPhaseEncode": 17.17,
  "BaseResolution": 104,
  "BodyPartExamined": "BRAIN",
  "CoilString": "HC1-7;NC1_2",
  "ConsistencyInfo": "N4_VE11C_LATEST_20160120",
  "ConversionSoftware": "dcm2niix",
  "ConversionSoftwareVersion": "v1.0.20190902",
  "DerivedVendorReportedEchoSpacing": 0.000560011,
  "DeviceSerialNumber": "167006",
  "DwellTime": 2.1e-06,
  "EchoTime": 0.037,
  "EchoTrainLength": 104,
  "EffectiveEchoSpacing": 0.000560011,
  "FlipAngle": 52,
  "HeudiconvVersion": "0.10.0",
  "ImageComments": "Unaliased_MB4_PE3_LB",
  "ImageOrientationPatientDICOM": [0.999436, 0.0159996, 0.0295139, 0.00139551, 0.858571, -0.512693],
  "ImageType": [
    "ORIGINAL",
    "PRIMARY",
    "M",
    "MB",
    "ND",
    "MOSAIC"
],
  "ImagingFrequency": 123.259,
  "InPlanePhaseEncodingDirectionDICOM": "COL",
  "InstitutionAddress": "Chemin_Queen-Mary_4565_Montreal_District_CA_H3W_1W5",
  "InstitutionName": "IUGM",
  "InstitutionalDepartmentName": "Department",
  "MRAcquisitionType": "2D",
  "MagneticFieldStrength": 3,
  "Manufacturer": "Siemens",
  "ManufacturersModelName": "Prisma_fit",
  "Modality": "MR",
  "MultibandAccelerationFactor": 4,
  "PartialFourier": 1,
  "PatientPosition": "HFS",
  "PercentPhaseFOV": 100,
  "PhaseEncodingDirection": "j",
  "PhaseEncodingSteps": 104,
  "PhaseResolution": 1,
  "PixelBandwidth": 2290,
  "ProcedureStepDescription": "games_mario",
  "ProtocolName": "func_task-mario_run-05",
  "PulseSequenceDetails": "%CustomerSeq%_cmrr_mbep2d_bold",
  "ReceiveCoilActiveElements": "HC1-7;NC1,2",
  "ReceiveCoilName": "HeadNeck_64",
  "ReconMatrixPE": 104,
  "RepetitionTime": 1.49,
  "SAR": 0.0451311,
  "ScanOptions": "FS",
  "ScanningSequence": "EP",
  "SequenceName": "epfid2d1_104",
  "SequenceVariant": "SK_SS",
  "SeriesDescription": "func_task-mario_run-05",
  "SeriesNumber": 25,
  "ShimSetting": [619, -7190, -8858, 268, 13, -152, -15, -27],
  "SliceThickness": 2,
  "SliceTiming": [0, 0.785, 0.0975, 0.8825, 0.195, 0.98, 0.295, 1.0775, 0.3925, 1.175, 0.49, 1.275, 0.5875, 1.3725, 0.685, 0, 0.785, 0.0975, 0.8825, 0.195, 0.98, 0.295, 1.0775, 0.3925, 1.175, 0.49, 1.275, 0.5875, 1.3725, 0.685, 0, 0.785, 0.0975, 0.8825, 0.195, 0.98, 0.295, 1.0775, 0.3925, 1.175, 0.49, 1.275, 0.5875, 1.3725, 0.685, 0, 0.785, 0.0975, 0.8825, 0.195, 0.98, 0.295, 1.0775, 0.3925, 1.175, 0.49, 1.275, 0.5875, 1.3725, 0.685],
  "SoftwareVersions": "syngo_MR_E11",
  "SpacingBetweenSlices": 2,
  "StationName": "MRC35049",
  "TaskName": "mario",
  "TotalReadoutTime": 0.0576811,
  "TxRefAmp": 260.477,
  "WipMemBlock": "a31baacc-4c37-49b4-8319-9566e268f85f||Sequence: R016 ve11c/master r/e634e98; Dec 19 2017 11:00:25 by eja",
  "dcmmeta_affine": [
    [-1.9988726377487183, 0.002791011007502675, 0.06708529591560364, 104.97388458251953],
    [-0.03199929744005203, 1.7171416282653809, -1.0248905420303345, -49.55873489379883],
    [0.05902771279215813, 1.025386095046997, 1.7161290645599365, -87.00694274902344],
    [0.0, 0.0, 0.0, 1.0]
],
  "dcmmeta_reorient_transform": [
    [0.0, -1.0, 0.0, 103.0],
    [1.0, 0.0, 0.0, 0.0],
    [0.0, 0.0, 1.0, 0.0],
    [0.0, 0.0, 0.0, 1.0]
],
  "dcmmeta_shape": [104, 104, 60, 429],
  "dcmmeta_slice_dim": 2,
  "dcmmeta_version": 0.6,
  "global": {
    "const": {
      "AcquisitionMatrix": [104, 0, 0, 104],
      "AngioFlag": "N",
      "BitsAllocated": 16,
      "BitsStored": 16,
      "BodyPartExamined": "BRAIN",
      "Columns": 832,
      "EchoNumbers": 1,
      "EchoTime": 37.0,
      "EchoTrainLength": 104,
      "FlipAngle": 52.0,
      "HighBit": 15,
      "ImageOrientationPatient": [0.99943631287899, 0.01599964794588, 0.02951385715982, 0.00139550556098, 0.85857083061167, -0.5126930674263],
      "ImagePositionPatient": [-833.8669231675, -763.9941663276, 370.36229402755],
      "ImageType": [
        "ORIGINAL",
        "PRIMARY",
        "M",
        "MB",
        "ND",
        "MOSAIC"
],
      "ImagedNucleus": "1H",
      "ImagingFrequency": 123.258952,
      "InPlanePhaseEncodingDirection": "COL",
      "MRAcquisitionType": "2D",
      "MagneticFieldStrength": 3.0,
      "Manufacturer": "SIEMENS",
      "ManufacturerModelName": "Prisma_fit",
      "Modality": "MR",
      "NumberOfAverages": 1.0,
      "NumberOfPhaseEncodingSteps": 104,
      "PercentPhaseFieldOfView": 100.0,
      "PercentSampling": 100.0,
      "PerformedProcedureStepStartTime": "135015.778000",
      "PhotometricInterpretation": "MONOCHROME2",
      "PixelBandwidth": 2290.0,
      "PixelRepresentation": 0,
      "PixelSpacing": [2.0, 2.0],
      "ProtocolName": "func_task-mario_run-05",
      "RepetitionTime": 1490.0,
      "Rows": 832,
      "SAR": 0.04513105168587,
      "SamplesPerPixel": 1,
      "ScanOptions": "FS",
      "ScanningSequence": "EP",
      "SequenceName": "epfid2d1_104",
      "SequenceVariant": [
        "SK",
        "SS"
],
      "SeriesDescription": "func_task-mario_run-05",
      "SeriesNumber": 25,
      "SeriesTime": "145129.459000",
      "SliceLocation": -45.740332764701,
      "SliceThickness": 2.0,
      "SmallestImagePixelValue": 0,
      "SoftwareVersions": "syngo MR E11",
      "SpacingBetweenSlices": 2.0000000403079,
      "SpecificCharacterSet": "ISO_IR 100",
      "StudyID": "1",
      "StudyTime": "135015.712000",
      "TransmitCoilName": "Body",
      "VariableFlipAngleFlag": "N",
      "WindowCenterWidthExplanation": "Algo1",
      "dBdt": 0.0},
    "slices": {}
  },
  "time": {
    "samples": {
      "AcquisitionNumber": [1, 2, 3, 4, 5, 6, 7, 8, 9, 10, 11, 12, 13, 14, 15, 16, 17, 18, 19, 20, 21, 22, 23, 24, 25, 26, 27, 28, 29, 30, 31, 32, 33, 34, 35, 36, 37, 38, 39, 40, 41, 42, 43, 44, 45, 46, 47, 48, 49, 50, 51, 52, 53, 54, 55, 56, 57, 58, 59, 60, 61, 62, 63, 64, 65, 66, 67, 68, 69, 70, 71, 72, 73, 74, 75, 76, 77, 78, 79, 80, 81, 82, 83, 84, 85, 86, 87, 88, 89, 90, 91, 92, 93, 94, 95, 96, 97, 98, 99, 100, 101, 102, 103, 104, 105, 106, 107, 108, 109, 110, 111, 112, 113, 114, 115, 116, 117, 118, 119, 120, 121, 122, 123, 124, 125, 126, 127, 128, 129, 130, 131, 132, 133, 134, 135, 136, 137, 138, 139, 140, 141, 142, 143, 144, 145, 146, 147, 148, 149, 150, 151, 152, 153, 154, 155, 156, 157, 158, 159, 160, 161, 162, 163, 164, 165, 166, 167, 168, 169, 170, 171, 172, 173, 174, 175, 176, 177, 178, 179, 180, 181, 182, 183, 184, 185, 186, 187, 188, 189, 190, 191, 192, 193, 194, 195, 196, 197, 198, 199, 200, 201, 202, 203, 204, 205, 206, 207, 208, 209, 210, 211, 212, 213, 214, 215, 216, 217, 218, 219, 220, 221, 222, 223, 224, 225, 226, 227, 228, 229, 230, 231, 232, 233, 234, 235, 236, 237, 238, 239, 240, 241, 242, 243, 244, 245, 246, 247, 248, 249, 250, 251, 252, 253, 254, 255, 256, 257, 258, 259, 260, 261, 262, 263, 264, 265, 266, 267, 268, 269, 270, 271, 272, 273, 274, 275, 276, 277, 278, 279, 280, 281, 282, 283, 284, 285, 286, 287, 288, 289, 290, 291, 292, 293, 294, 295, 296, 297, 298, 299, 300, 301, 302, 303, 304, 305, 306, 307, 308, 309, 310, 311, 312, 313, 314, 315, 316, 317, 318, 319, 320, 321, 322, 323, 324, 325, 326, 327, 328, 329, 330, 331, 332, 333, 334, 335, 336, 337, 338, 339, 340, 341, 342, 343, 344, 345, 346, 347, 348, 349, 350, 351, 352, 353, 354, 355, 356, 357, 358, 359, 360, 361, 362, 363, 364, 365, 366, 367, 368, 369, 370, 371, 372, 373, 374, 375, 376, 377, 378, 379, 380, 381, 382, 383, 384, 385, 386, 387, 388, 389, 390, 391, 392, 393, 394, 395, 396, 397, 398, 399, 400, 401, 402, 403, 404, 405, 406, 407, 408, 409, 410, 411, 412, 413, 414, 415, 416, 417, 418, 419, 420, 421, 422, 423, 424, 425, 426, 427, 428, 429],
      "AcquisitionTime": ["145015.902500", "145017.392500", "145018.882500", "145020.372500", "145021.862500", "145023.352500", "145024.842500", "145026.332500", "145027.822500", "145029.312500", "145030.802500", "145032.292500", "145033.782500", "145035.272500", "145036.762500", "145038.252500", "145039.742500", "145041.232500", "145042.722500", "145044.212500", "145045.702500", "145047.192500", "145048.682500", "145050.172500", "145051.662500", "145053.152500", "145054.642500", "145056.132500", "145057.622500", "145059.112500", "145100.602500", "145102.092500", "145103.582500", "145105.072500", "145106.562500", "145108.052500", "145109.542500", "145111.032500", "145112.522500", "145114.012500", "145115.502500", "145116.992500", "145118.482500", "145119.972500", "145121.462500", "145122.952500", "145124.442500", "145125.932500", "145127.422500", "145128.912500", "145130.402500", "145131.892500", "145133.382500", "145134.872500", "145136.362500", "145137.852500", "145139.342500", "145140.832500", "145142.322500", "145143.812500", "145145.302500", "145146.792500", "145148.282500", "145149.772500", "145151.262500", "145152.752500", "145154.242500", "145155.732500", "145157.222500", "145158.712500", "145200.202500", "145201.692500", "145203.182500", "145204.672500", "145206.162500", "145207.652500", "145209.142500", "145210.632500", "145212.122500", "145213.612500", "145215.102500", "145216.592500", "145218.082500", "145219.572500", "145221.062500", "145222.552500", "145224.042500", "145225.532500", "145227.022500", "145228.512500", "145230.002500", "145231.492500", "145232.982500", "145234.472500", "145235.962500", "145237.452500", "145238.942500", "145240.432500", "145241.922500", "145243.412500", "145244.902500", "145246.392500", "145247.882500", "145249.372500", "145250.862500", "145252.352500", "145253.842500", "145255.332500", "145256.822500", "145258.312500", "145259.802500", "145301.292500", "145302.782500", "145304.272500", "145305.762500", "145307.252500", "145308.742500", "145310.232500", "145311.722500", "145313.212500", "145314.702500", "145316.192500", "145317.682500", "145319.172500", "145320.662500", "145322.152500", "145323.642500", "145325.132500", "145326.622500", "145328.112500", "145329.602500", "145331.092500", "145332.582500", "145334.072500", "145335.562500", "145337.052500", "145338.542500", "145340.032500", "145341.522500", "145343.012500", "145344.502500", "145345.992500", "145347.482500", "145348.972500", "145350.462500", "145351.952500", "145353.442500", "145354.932500", "145356.422500", "145357.912500", "145359.402500", "145400.892500", "145402.382500", "145403.872500", "145405.362500", "145406.852500", "145408.342500", "145409.832500", "145411.322500", "145412.812500", "145414.302500", "145415.792500", "145417.282500", "145418.772500", "145420.262500", "145421.752500", "145423.242500", "145424.732500", "145426.222500", "145427.712500", "145429.202500", "145430.692500", "145432.182500", "145433.672500", "145435.162500", "145436.652500", "145438.142500", "145439.632500", "145441.122500", "145442.612500", "145444.102500", "145445.592500", "145447.082500", "145448.572500", "145450.062500", "145451.552500", "145453.042500", "145454.532500", "145456.022500", "145457.512500", "145459.002500", "145500.492500", "145501.982500", "145503.472500", "145504.962500", "145506.452500", "145507.942500", "145509.432500", "145510.922500", "145512.412500", "145513.902500", "145515.392500", "145516.882500", "145518.372500", "145519.862500", "145521.352500", "145522.842500", "145524.332500", "145525.822500", "145527.312500", "145528.802500", "145530.292500", "145531.782500", "145533.272500", "145534.762500", "145536.252500", "145537.742500", "145539.232500", "145540.722500", "145542.212500", "145543.702500", "145545.192500", "145546.682500", "145548.172500", "145549.662500", "145551.152500", "145552.642500", "145554.132500", "145555.622500", "145557.112500", "145558.602500", "145600.092500", "145601.582500", "145603.072500", "145604.562500", "145606.052500", "145607.542500", "145609.032500", "145610.522500", "145612.012500", "145613.502500", "145614.992500", "145616.482500", "145617.972500", "145619.462500", "145620.952500", "145622.442500", "145623.932500", "145625.422500", "145626.912500", "145628.402500", "145629.892500", "145631.382500", "145632.872500", "145634.362500", "145635.852500", "145637.342500", "145638.832500", "145640.322500", "145641.812500", "145643.302500", "145644.792500", "145646.282500", "145647.772500", "145649.262500", "145650.752500", "145652.242500", "145653.732500", "145655.222500", "145656.712500", "145658.202500", "145659.692500", "145701.182500", "145702.672500", "145704.162500", "145705.652500", "145707.142500", "145708.632500", "145710.122500", "145711.612500", "145713.102500", "145714.592500", "145716.082500", "145717.572500", "145719.062500", "145720.552500", "145722.042500", "145723.532500", "145725.022500", "145726.512500", "145728.002500", "145729.492500", "145730.982500", "145732.472500", "145733.962500", "145735.452500", "145736.942500", "145738.432500", "145739.922500", "145741.412500", "145742.902500", "145744.392500", "145745.882500", "145747.372500", "145748.862500", "145750.352500", "145751.842500", "145753.332500", "145754.822500", "145756.312500", "145757.802500", "145759.292500", "145800.782500", "145802.272500", "145803.762500", "145805.252500", "145806.742500", "145808.232500", "145809.722500", "145811.212500", "145812.702500", "145814.192500", "145815.682500", "145817.172500", "145818.662500", "145820.152500", "145821.642500", "145823.132500", "145824.622500", "145826.112500", "145827.602500", "145829.092500", "145830.582500", "145832.072500", "145833.562500", "145835.052500", "145836.542500", "145838.032500", "145839.522500", "145841.012500", "145842.502500", "145843.992500", "145845.482500", "145846.972500", "145848.462500", "145849.952500", "145851.442500", "145852.932500", "145854.422500", "145855.912500", "145857.402500", "145858.892500", "145900.382500", "145901.872500", "145903.362500", "145904.852500", "145906.342500", "145907.832500", "145909.322500", "145910.812500", "145912.302500", "145913.792500", "145915.282500", "145916.772500", "145918.262500", "145919.752500", "145921.242500", "145922.732500", "145924.222500", "145925.712500", "145927.202500", "145928.692500", "145930.182500", "145931.672500", "145933.162500", "145934.652500", "145936.142500", "145937.632500", "145939.122500", "145940.612500", "145942.102500", "145943.592500", "145945.082500", "145946.572500", "145948.062500", "145949.552500", "145951.042500", "145952.532500", "145954.022500", "145955.512500", "145957.002500", "145958.492500", "145959.982500", "150001.472500", "150002.962500", "150004.452500", "150005.942500", "150007.432500", "150008.922500", "150010.412500", "150011.902500", "150013.392500", "150014.882500", "150016.372500", "150017.862500", "150019.352500", "150020.842500", "150022.332500", "150023.822500", "150025.312500", "150026.802500", "150028.292500", "150029.782500", "150031.272500", "150032.762500", "150034.252500", "150035.742500", "150037.232500", "150038.722500", "150040.212500", "150041.702500", "150043.192500", "150044.682500", "150046.172500", "150047.662500", "150049.152500", "150050.642500", "150052.132500", "150053.622500"],
      "ContentTime": ["145129.462000", "145129.466000", "145129.469000", "145129.472000", "145129.485000", "145129.489000", "145129.492000", "145129.496000", "145129.499000", "145129.502000", "145129.505000", "145129.508000", "145129.512000", "145129.524000", "145129.527000", "145129.531000", "145129.535000", "145129.542000", "145129.545000", "145129.549000", "145149.419000", "145149.423000", "145149.426000", "145149.429000", "145149.433000", "145149.436000", "145149.439000", "145149.443000", "145149.446000", "145149.449000", "145149.452000", "145149.456000", "145149.459000", "145149.462000", "145149.466000", "145149.469000", "145149.472000", "145149.475000", "145149.479000", "145149.482000", "145149.485000", "145209.420000", "145209.424000", "145209.427000", "145209.430000", "145209.434000", "145209.437000", "145209.440000", "145209.444000", "145209.447000", "145209.458000", "145209.462000", "145209.465000", "145209.468000", "145209.472000", "145209.475000", "145209.478000", "145209.481000", "145209.485000", "145209.488000", "145209.491000", "145229.419000", "145229.423000", "145229.426000", "145229.430000", "145229.433000", "145229.436000", "145229.439000", "145229.443000", "145229.446000", "145229.449000", "145229.453000", "145229.456000", "145229.459000", "145229.463000", "145229.466000", "145229.469000", "145229.473000", "145229.476000", "145229.479000", "145229.483000", "145249.419000", "145249.423000", "145249.426000", "145249.430000", "145249.433000", "145249.436000", "145249.439000", "145249.443000", "145249.446000", "145249.449000", "145249.453000", "145249.456000", "145249.459000", "145249.463000", "145249.466000", "145249.469000", "145249.473000", "145249.476000", "145249.479000", "145249.483000", "145309.419000", "145309.432000", "145309.435000", "145309.438000", "145309.441000", "145309.445000", "145309.448000", "145309.452000", "145309.455000", "145309.458000", "145309.462000", "145309.465000", "145309.468000", "145309.471000", "145309.475000", "145349.419000", "145349.423000", "145349.427000", "145349.430000", "145349.434000", "145349.437000", "145349.440000", "145349.444000", "145349.447000", "145349.450000", "145349.454000", "145349.457000", "145349.460000", "145349.464000", "145349.467000", "145349.470000", "145349.474000", "145349.477000", "145349.481000", "145349.484000", "145349.487000", "145349.491000", "145349.494000", "145349.497000", "145349.501000", "145349.504000", "145429.420000", "145429.424000", "145429.427000", "145429.431000", "145429.434000", "145429.437000", "145429.441000", "145429.444000", "145429.447000", "145429.450000", "145429.454000", "145429.457000", "145429.460000", "145429.464000", "145429.467000", "145429.470000", "145429.474000", "145429.477000", "145429.480000", "145429.484000", "145429.487000", "145429.490000", "145429.493000", "145429.497000", "145429.500000", "145429.503000", "145429.506000", "145509.419000", "145509.423000", "145509.426000", "145509.429000", "145509.433000", "145509.436000", "145509.439000", "145509.443000", "145509.446000", "145509.450000", "145509.453000", "145509.457000", "145509.460000", "145509.463000", "145509.467000", "145509.470000", "145509.473000", "145509.477000", "145509.480000", "145509.483000", "145509.486000", "145509.490000", "145509.493000", "145509.496000", "145509.499000", "145509.503000", "145509.506000", "145549.419000", "145549.423000", "145549.426000", "145549.430000", "145549.433000", "145549.436000", "145549.440000", "145549.443000", "145549.446000", "145549.449000", "145549.453000", "145549.456000", "145549.474000", "145549.477000", "145549.480000", "145549.484000", "145549.487000", "145549.490000", "145549.494000", "145549.497000", "145549.500000", "145549.504000", "145549.507000", "145549.510000", "145549.514000", "145549.517000", "145549.520000", "145629.419000", "145629.423000", "145629.426000", "145629.430000", "145629.433000", "145629.437000", "145629.440000", "145629.443000", "145629.446000", "145629.450000", "145629.453000", "145629.457000", "145629.460000", "145629.463000", "145629.467000", "145629.470000", "145629.473000", "145629.476000", "145629.480000", "145629.483000", "145629.486000", "145629.490000", "145629.493000", "145629.496000", "145629.500000", "145629.503000", "145629.506000", "145709.419000", "145709.423000", "145709.426000", "145709.430000", "145709.433000", "145709.436000", "145709.440000", "145709.443000", "145709.446000", "145709.450000", "145709.453000", "145709.456000", "145709.460000", "145709.463000", "145709.466000", "145709.470000", "145709.473000", "145709.476000", "145709.479000", "145709.483000", "145709.486000", "145709.489000", "145709.493000", "145709.496000", "145709.499000", "145709.503000", "145709.506000", "145749.419000", "145749.423000", "145749.426000", "145749.429000", "145749.433000", "145749.436000", "145749.440000", "145749.443000", "145749.446000", "145749.451000", "145749.454000", "145749.459000", "145749.463000", "145749.467000", "145749.471000", "145749.474000", "145749.477000", "145749.481000", "145749.484000", "145749.487000", "145749.491000", "145749.494000", "145749.497000", "145749.501000", "145749.512000", "145749.516000", "145829.419000", "145829.423000", "145829.427000", "145829.430000", "145829.433000", "145829.437000", "145829.440000", "145829.444000", "145829.447000", "145829.450000", "145829.454000", "145829.457000", "145829.460000", "145829.464000", "145829.467000", "145829.470000", "145829.474000", "145829.477000", "145829.480000", "145829.484000", "145829.487000", "145829.490000", "145829.493000", "145829.497000", "145829.500000", "145829.504000", "145829.507000", "145909.420000", "145909.424000", "145909.427000", "145909.431000", "145909.434000", "145909.437000", "145909.441000", "145909.444000", "145909.447000", "145909.451000", "145909.454000", "145909.458000", "145909.461000", "145909.464000", "145909.467000", "145909.471000", "145909.474000", "145909.478000", "145909.481000", "145909.484000", "145909.488000", "145909.491000", "145909.494000", "145909.498000", "145909.501000", "145909.504000", "145909.508000", "145949.419000", "145949.423000", "145949.426000", "145949.429000", "145949.433000", "145949.436000", "145949.439000", "145949.443000", "145949.446000", "145949.449000", "145949.453000", "145949.456000", "145949.459000", "145949.463000", "145949.466000", "145949.469000", "145949.473000", "145949.476000", "145949.479000", "145949.482000", "145949.486000", "145949.489000", "145949.492000", "145949.496000", "145949.499000", "145949.502000", "145949.505000", "150029.419000", "150029.423000", "150029.426000", "150029.430000", "150029.433000", "150029.436000", "150029.440000", "150029.443000", "150029.446000", "150029.450000", "150029.453000", "150029.456000", "150029.459000", "150029.463000", "150029.466000", "150029.470000", "150029.473000", "150029.477000", "150029.480000", "150029.483000", "150029.486000", "150029.490000", "150029.493000", "150029.497000", "150029.500000", "150029.503000", "150029.506000", "150056.813000", "150056.817000", "150056.820000", "150056.824000", "150056.827000", "150056.830000", "150056.834000", "150056.837000", "150056.840000", "150056.844000", "150056.847000", "150056.850000", "150056.853000", "150056.857000", "150056.860000", "150056.863000", "150056.867000", "150056.870000"],
      "InstanceCreationTime": ["145129.462000", "145129.466000", "145129.469000", "145129.472000", "145129.485000", "145129.489000", "145129.492000", "145129.496000", "145129.499000", "145129.502000", "145129.505000", "145129.508000", "145129.512000", "145129.524000", "145129.527000", "145129.531000", "145129.535000", "145129.542000", "145129.545000", "145129.549000", "145149.419000", "145149.423000", "145149.426000", "145149.429000", "145149.433000", "145149.436000", "145149.439000", "145149.443000", "145149.446000", "145149.449000", "145149.452000", "145149.456000", "145149.459000", "145149.462000", "145149.466000", "145149.469000", "145149.472000", "145149.475000", "145149.479000", "145149.482000", "145149.485000", "145209.420000", "145209.424000", "145209.427000", "145209.430000", "145209.434000", "145209.437000", "145209.440000", "145209.444000", "145209.447000", "145209.458000", "145209.462000", "145209.465000", "145209.468000", "145209.472000", "145209.475000", "145209.478000", "145209.481000", "145209.485000", "145209.488000", "145209.491000", "145229.419000", "145229.423000", "145229.426000", "145229.430000", "145229.433000", "145229.436000", "145229.439000", "145229.443000", "145229.446000", "145229.449000", "145229.453000", "145229.456000", "145229.459000", "145229.463000", "145229.466000", "145229.469000", "145229.473000", "145229.476000", "145229.479000", "145229.483000", "145249.419000", "145249.423000", "145249.426000", "145249.430000", "145249.433000", "145249.436000", "145249.439000", "145249.443000", "145249.446000", "145249.449000", "145249.453000", "145249.456000", "145249.459000", "145249.463000", "145249.466000", "145249.469000", "145249.473000", "145249.476000", "145249.479000", "145249.483000", "145309.419000", "145309.432000", "145309.435000", "145309.438000", "145309.441000", "145309.445000", "145309.448000", "145309.452000", "145309.455000", "145309.458000", "145309.462000", "145309.465000", "145309.468000", "145309.471000", "145309.475000", "145349.419000", "145349.423000", "145349.427000", "145349.430000", "145349.434000", "145349.437000", "145349.440000", "145349.444000", "145349.447000", "145349.450000", "145349.454000", "145349.457000", "145349.460000", "145349.464000", "145349.467000", "145349.470000", "145349.474000", "145349.477000", "145349.481000", "145349.484000", "145349.487000", "145349.491000", "145349.494000", "145349.497000", "145349.501000", "145349.504000", "145429.420000", "145429.424000", "145429.427000", "145429.431000", "145429.434000", "145429.437000", "145429.441000", "145429.444000", "145429.447000", "145429.450000", "145429.454000", "145429.457000", "145429.460000", "145429.464000", "145429.467000", "145429.470000", "145429.474000", "145429.477000", "145429.480000", "145429.484000", "145429.487000", "145429.490000", "145429.493000", "145429.497000", "145429.500000", "145429.503000", "145429.506000", "145509.419000", "145509.423000", "145509.426000", "145509.429000", "145509.433000", "145509.436000", "145509.439000", "145509.443000", "145509.446000", "145509.450000", "145509.453000", "145509.457000", "145509.460000", "145509.463000", "145509.467000", "145509.470000", "145509.473000", "145509.477000", "145509.480000", "145509.483000", "145509.486000", "145509.490000", "145509.493000", "145509.496000", "145509.499000", "145509.503000", "145509.506000", "145549.419000", "145549.423000", "145549.426000", "145549.430000", "145549.433000", "145549.436000", "145549.440000", "145549.443000", "145549.446000", "145549.449000", "145549.453000", "145549.456000", "145549.474000", "145549.477000", "145549.480000", "145549.484000", "145549.487000", "145549.490000", "145549.494000", "145549.497000", "145549.500000", "145549.504000", "145549.507000", "145549.510000", "145549.514000", "145549.517000", "145549.520000", "145629.419000", "145629.423000", "145629.426000", "145629.430000", "145629.433000", "145629.437000", "145629.440000", "145629.443000", "145629.446000", "145629.450000", "145629.453000", "145629.457000", "145629.460000", "145629.463000", "145629.467000", "145629.470000", "145629.473000", "145629.476000", "145629.480000", "145629.483000", "145629.486000", "145629.490000", "145629.493000", "145629.496000", "145629.500000", "145629.503000", "145629.506000", "145709.419000", "145709.423000", "145709.426000", "145709.430000", "145709.433000", "145709.436000", "145709.440000", "145709.443000", "145709.446000", "145709.450000", "145709.453000", "145709.456000", "145709.460000", "145709.463000", "145709.466000", "145709.470000", "145709.473000", "145709.476000", "145709.479000", "145709.483000", "145709.486000", "145709.489000", "145709.493000", "145709.496000", "145709.499000", "145709.503000", "145709.506000", "145749.419000", "145749.423000", "145749.426000", "145749.429000", "145749.433000", "145749.436000", "145749.440000", "145749.443000", "145749.446000", "145749.451000", "145749.454000", "145749.459000", "145749.463000", "145749.467000", "145749.471000", "145749.474000", "145749.477000", "145749.481000", "145749.484000", "145749.487000", "145749.491000", "145749.494000", "145749.497000", "145749.501000", "145749.512000", "145749.516000", "145829.419000", "145829.423000", "145829.427000", "145829.430000", "145829.433000", "145829.437000", "145829.440000", "145829.444000", "145829.447000", "145829.450000", "145829.454000", "145829.457000", "145829.460000", "145829.464000", "145829.467000", "145829.470000", "145829.474000", "145829.477000", "145829.480000", "145829.484000", "145829.487000", "145829.490000", "145829.493000", "145829.497000", "145829.500000", "145829.504000", "145829.507000", "145909.420000", "145909.424000", "145909.427000", "145909.431000", "145909.434000", "145909.437000", "145909.441000", "145909.444000", "145909.447000", "145909.451000", "145909.454000", "145909.458000", "145909.461000", "145909.464000", "145909.467000", "145909.471000", "145909.474000", "145909.478000", "145909.481000", "145909.484000", "145909.488000", "145909.491000", "145909.494000", "145909.498000", "145909.501000", "145909.504000", "145909.508000", "145949.419000", "145949.423000", "145949.426000", "145949.429000", "145949.433000", "145949.436000", "145949.439000", "145949.443000", "145949.446000", "145949.449000", "145949.453000", "145949.456000", "145949.459000", "145949.463000", "145949.466000", "145949.469000", "145949.473000", "145949.476000", "145949.479000", "145949.482000", "145949.486000", "145949.489000", "145949.492000", "145949.496000", "145949.499000", "145949.502000", "145949.505000", "150029.419000", "150029.423000", "150029.426000", "150029.430000", "150029.433000", "150029.436000", "150029.440000", "150029.443000", "150029.446000", "150029.450000", "150029.453000", "150029.456000", "150029.459000", "150029.463000", "150029.466000", "150029.470000", "150029.473000", "150029.477000", "150029.480000", "150029.483000", "150029.486000", "150029.490000", "150029.493000", "150029.497000", "150029.500000", "150029.503000", "150029.506000", "150056.813000", "150056.817000", "150056.820000", "150056.824000", "150056.827000", "150056.830000", "150056.834000", "150056.837000", "150056.840000", "150056.844000", "150056.847000", "150056.850000", "150056.853000", "150056.857000", "150056.860000", "150056.863000", "150056.867000", "150056.870000"],
