{
  "AcquisitionMatrixPE": 104,
  "AcquisitionNumber": 1,
  "AcquisitionTime": "14:25:54.415000",
  "BandwidthPerPixelPhaseEncode": 17.17,
  "BaseResolution": 104,
  "BodyPartExamined": "BRAIN",
  "CoilString": "HC1-7;NC1_2",
  "ConsistencyInfo": "N4_VE11C_LATEST_20160120",
  "ConversionSoftware": "dcm2niix",
  "ConversionSoftwareVersion": "v1.0.20190902",
  "DerivedVendorReportedEchoSpacing": 0.000560011,
  "DeviceSerialNumber": "167006",
  "DwellTime": 2.1e-06,
  "EchoTime": 0.037,
  "EchoTrainLength": 104,
  "EffectiveEchoSpacing": 0.000560011,
  "FlipAngle": 52,
  "HeudiconvVersion": "0.10.0",
  "ImageComments": "Unaliased_MB4_PE3_LB",
  "ImageOrientationPatientDICOM": [0.999436, 0.0159996, 0.0295139, 0.00139551, 0.858571, -0.512693],
  "ImageType": [
    "ORIGINAL",
    "PRIMARY",
    "M",
    "MB",
    "ND",
    "MOSAIC"
],
  "ImagingFrequency": 123.259,
  "InPlanePhaseEncodingDirectionDICOM": "COL",
  "InstitutionAddress": "Chemin_Queen-Mary_4565_Montreal_District_CA_H3W_1W5",
  "InstitutionName": "IUGM",
  "InstitutionalDepartmentName": "Department",
  "MRAcquisitionType": "2D",
  "MagneticFieldStrength": 3,
  "Manufacturer": "Siemens",
  "ManufacturersModelName": "Prisma_fit",
  "Modality": "MR",
  "MultibandAccelerationFactor": 4,
  "PartialFourier": 1,
  "PatientPosition": "HFS",
  "PercentPhaseFOV": 100,
  "PhaseEncodingDirection": "j",
  "PhaseEncodingSteps": 104,
  "PhaseResolution": 1,
  "PixelBandwidth": 2290,
  "ProcedureStepDescription": "games_mario",
  "ProtocolName": "func_task-mario_run-03",
  "PulseSequenceDetails": "%CustomerSeq%_cmrr_mbep2d_bold",
  "ReceiveCoilActiveElements": "HC1-7;NC1,2",
  "ReceiveCoilName": "HeadNeck_64",
  "ReconMatrixPE": 104,
  "RepetitionTime": 1.49,
  "SAR": 0.0451311,
  "ScanOptions": "FS",
  "ScanningSequence": "EP",
  "SequenceName": "epfid2d1_104",
  "SequenceVariant": "SK_SS",
  "SeriesDescription": "func_task-mario_run-03",
  "SeriesNumber": 19,
  "ShimSetting": [619, -7190, -8858, 268, 13, -152, -15, -27],
  "SliceThickness": 2,
  "SliceTiming": [0, 0.785, 0.1, 0.8825, 0.1975, 0.98, 0.295, 1.08, 0.3925, 1.1775, 0.49, 1.275, 0.59, 1.3725, 0.6875, 0, 0.785, 0.1, 0.8825, 0.1975, 0.98, 0.295, 1.08, 0.3925, 1.1775, 0.49, 1.275, 0.59, 1.3725, 0.6875, 0, 0.785, 0.1, 0.8825, 0.1975, 0.98, 0.295, 1.08, 0.3925, 1.1775, 0.49, 1.275, 0.59, 1.3725, 0.6875, 0, 0.785, 0.1, 0.8825, 0.1975, 0.98, 0.295, 1.08, 0.3925, 1.1775, 0.49, 1.275, 0.59, 1.3725, 0.6875],
  "SoftwareVersions": "syngo_MR_E11",
  "SpacingBetweenSlices": 2,
  "StationName": "MRC35049",
  "TaskName": "mario",
  "TotalReadoutTime": 0.0576811,
  "TxRefAmp": 260.477,
  "WipMemBlock": "39c40e47-b309-4b4a-9b12-45fcf7ad515b||Sequence: R016 ve11c/master r/e634e98; Dec 19 2017 11:00:25 by eja",
  "dcmmeta_affine": [
    [-1.9988726377487183, 0.002791011007502675, 0.06708529591560364, 104.97388458251953],
    [-0.03199929744005203, 1.7171416282653809, -1.0248905420303345, -49.55873489379883],
    [0.05902771279215813, 1.025386095046997, 1.7161290645599365, -87.00694274902344],
    [0.0, 0.0, 0.0, 1.0]
],
  "dcmmeta_reorient_transform": [
    [0.0, -1.0, 0.0, 103.0],
    [1.0, 0.0, 0.0, 0.0],
    [0.0, 0.0, 1.0, 0.0],
    [0.0, 0.0, 0.0, 1.0]
],
  "dcmmeta_shape": [104, 104, 60, 427],
  "dcmmeta_slice_dim": 2,
  "dcmmeta_version": 0.6,
  "global": {
    "const": {
      "AcquisitionMatrix": [104, 0, 0, 104],
      "AngioFlag": "N",
      "BitsAllocated": 16,
      "BitsStored": 16,
      "BodyPartExamined": "BRAIN",
      "Columns": 832,
      "EchoNumbers": 1,
      "EchoTime": 37.0,
      "EchoTrainLength": 104,
      "FlipAngle": 52.0,
      "HighBit": 15,
      "ImageOrientationPatient": [0.99943631287899, 0.01599964794588, 0.02951385715982, 0.00139550556098, 0.85857083061167, -0.5126930674263],
      "ImagePositionPatient": [-833.8669231675, -763.9941663276, 370.36229402755],
      "ImageType": [
        "ORIGINAL",
        "PRIMARY",
        "M",
        "MB",
        "ND",
        "MOSAIC"
],
      "ImagedNucleus": "1H",
      "ImagingFrequency": 123.258942,
      "InPlanePhaseEncodingDirection": "COL",
      "MRAcquisitionType": "2D",
      "MagneticFieldStrength": 3.0,
      "Manufacturer": "SIEMENS",
      "ManufacturerModelName": "Prisma_fit",
      "Modality": "MR",
      "NumberOfAverages": 1.0,
      "NumberOfPhaseEncodingSteps": 104,
      "PercentPhaseFieldOfView": 100.0,
      "PercentSampling": 100.0,
      "PerformedProcedureStepStartTime": "135015.778000",
      "PhotometricInterpretation": "MONOCHROME2",
      "PixelBandwidth": 2290.0,
      "PixelRepresentation": 0,
      "PixelSpacing": [2.0, 2.0],
      "ProtocolName": "func_task-mario_run-03",
      "RepetitionTime": 1490.0,
      "Rows": 832,
      "SAR": 0.04513105168587,
      "SamplesPerPixel": 1,
      "ScanOptions": "FS",
      "ScanningSequence": "EP",
      "SequenceName": "epfid2d1_104",
      "SequenceVariant": [
        "SK",
        "SS"
],
      "SeriesDescription": "func_task-mario_run-03",
      "SeriesNumber": 19,
      "SeriesTime": "142719.480000",
      "SliceLocation": -45.740332764701,
      "SliceThickness": 2.0,
      "SmallestImagePixelValue": 0,
      "SoftwareVersions": "syngo MR E11",
      "SpacingBetweenSlices": 2.0000000403079,
      "SpecificCharacterSet": "ISO_IR 100",
      "StudyID": "1",
      "StudyTime": "135015.712000",
      "TransmitCoilName": "Body",
      "VariableFlipAngleFlag": "N",
      "WindowCenterWidthExplanation": "Algo1",
      "dBdt": 0.0},
    "slices": {}
  },
  "time": {
    "samples": {
      "AcquisitionNumber": [1, 2, 3, 4, 5, 6, 7, 8, 9, 10, 11, 12, 13, 14, 15, 16, 17, 18, 19, 20, 21, 22, 23, 24, 25, 26, 27, 28, 29, 30, 31, 32, 33, 34, 35, 36, 37, 38, 39, 40, 41, 42, 43, 44, 45, 46, 47, 48, 49, 50, 51, 52, 53, 54, 55, 56, 57, 58, 59, 60, 61, 62, 63, 64, 65, 66, 67, 68, 69, 70, 71, 72, 73, 74, 75, 76, 77, 78, 79, 80, 81, 82, 83, 84, 85, 86, 87, 88, 89, 90, 91, 92, 93, 94, 95, 96, 97, 98, 99, 100, 101, 102, 103, 104, 105, 106, 107, 108, 109, 110, 111, 112, 113, 114, 115, 116, 117, 118, 119, 120, 121, 122, 123, 124, 125, 126, 127, 128, 129, 130, 131, 132, 133, 134, 135, 136, 137, 138, 139, 140, 141, 142, 143, 144, 145, 146, 147, 148, 149, 150, 151, 152, 153, 154, 155, 156, 157, 158, 159, 160, 161, 162, 163, 164, 165, 166, 167, 168, 169, 170, 171, 172, 173, 174, 175, 176, 177, 178, 179, 180, 181, 182, 183, 184, 185, 186, 187, 188, 189, 190, 191, 192, 193, 194, 195, 196, 197, 198, 199, 200, 201, 202, 203, 204, 205, 206, 207, 208, 209, 210, 211, 212, 213, 214, 215, 216, 217, 218, 219, 220, 221, 222, 223, 224, 225, 226, 227, 228, 229, 230, 231, 232, 233, 234, 235, 236, 237, 238, 239, 240, 241, 242, 243, 244, 245, 246, 247, 248, 249, 250, 251, 252, 253, 254, 255, 256, 257, 258, 259, 260, 261, 262, 263, 264, 265, 266, 267, 268, 269, 270, 271, 272, 273, 274, 275, 276, 277, 278, 279, 280, 281, 282, 283, 284, 285, 286, 287, 288, 289, 290, 291, 292, 293, 294, 295, 296, 297, 298, 299, 300, 301, 302, 303, 304, 305, 306, 307, 308, 309, 310, 311, 312, 313, 314, 315, 316, 317, 318, 319, 320, 321, 322, 323, 324, 325, 326, 327, 328, 329, 330, 331, 332, 333, 334, 335, 336, 337, 338, 339, 340, 341, 342, 343, 344, 345, 346, 347, 348, 349, 350, 351, 352, 353, 354, 355, 356, 357, 358, 359, 360, 361, 362, 363, 364, 365, 366, 367, 368, 369, 370, 371, 372, 373, 374, 375, 376, 377, 378, 379, 380, 381, 382, 383, 384, 385, 386, 387, 388, 389, 390, 391, 392, 393, 394, 395, 396, 397, 398, 399, 400, 401, 402, 403, 404, 405, 406, 407, 408, 409, 410, 411, 412, 413, 414, 415, 416, 417, 418, 419, 420, 421, 422, 423, 424, 425, 426, 427],
      "AcquisitionTime": ["142554.415000", "142555.905000", "142557.395000", "142558.885000", "142600.375000", "142601.865000", "142603.355000", "142604.845000", "142606.335000", "142607.825000", "142609.315000", "142610.805000", "142612.295000", "142613.785000", "142615.275000", "142616.765000", "142618.255000", "142619.745000", "142621.235000", "142622.725000", "142624.215000", "142625.705000", "142627.195000", "142628.685000", "142630.175000", "142631.665000", "142633.155000", "142634.645000", "142636.135000", "142637.625000", "142639.115000", "142640.605000", "142642.095000", "142643.585000", "142645.075000", "142646.565000", "142648.055000", "142649.545000", "142651.035000", "142652.525000", "142654.015000", "142655.505000", "142656.995000", "142658.485000", "142659.975000", "142701.465000", "142702.955000", "142704.445000", "142705.935000", "142707.425000", "142708.915000", "142710.405000", "142711.895000", "142713.385000", "142714.875000", "142716.365000", "142717.855000", "142719.345000", "142720.835000", "142722.325000", "142723.815000", "142725.305000", "142726.795000", "142728.285000", "142729.775000", "142731.265000", "142732.755000", "142734.245000", "142735.735000", "142737.225000", "142738.715000", "142740.205000", "142741.695000", "142743.185000", "142744.675000", "142746.165000", "142747.655000", "142749.145000", "142750.635000", "142752.125000", "142753.615000", "142755.105000", "142756.595000", "142758.085000", "142759.575000", "142801.065000", "142802.555000", "142804.045000", "142805.535000", "142807.025000", "142808.515000", "142810.005000", "142811.495000", "142812.985000", "142814.475000", "142815.965000", "142817.455000", "142818.945000", "142820.435000", "142821.925000", "142823.415000", "142824.905000", "142826.395000", "142827.885000", "142829.375000", "142830.865000", "142832.355000", "142833.845000", "142835.335000", "142836.825000", "142838.315000", "142839.805000", "142841.295000", "142842.785000", "142844.275000", "142845.765000", "142847.255000", "142848.745000", "142850.235000", "142851.725000", "142853.215000", "142854.705000", "142856.195000", "142857.685000", "142859.175000", "142900.665000", "142902.155000", "142903.645000", "142905.135000", "142906.625000", "142908.115000", "142909.605000", "142911.095000", "142912.585000", "142914.075000", "142915.565000", "142917.055000", "142918.545000", "142920.035000", "142921.525000", "142923.015000", "142924.505000", "142925.995000", "142927.485000", "142928.975000", "142930.465000", "142931.955000", "142933.445000", "142934.935000", "142936.425000", "142937.915000", "142939.405000", "142940.895000", "142942.385000", "142943.875000", "142945.365000", "142946.855000", "142948.345000", "142949.835000", "142951.325000", "142952.815000", "142954.305000", "142955.795000", "142957.285000", "142958.775000", "143000.265000", "143001.755000", "143003.245000", "143004.735000", "143006.225000", "143007.715000", "143009.205000", "143010.695000", "143012.185000", "143013.675000", "143015.165000", "143016.655000", "143018.145000", "143019.635000", "143021.125000", "143022.615000", "143024.105000", "143025.595000", "143027.085000", "143028.575000", "143030.065000", "143031.555000", "143033.045000", "143034.535000", "143036.025000", "143037.515000", "143039.005000", "143040.495000", "143041.985000", "143043.475000", "143044.965000", "143046.455000", "143047.945000", "143049.435000", "143050.925000", "143052.415000", "143053.905000", "143055.395000", "143056.885000", "143058.375000", "143059.865000", "143101.355000", "143102.845000", "143104.335000", "143105.825000", "143107.315000", "143108.805000", "143110.295000", "143111.785000", "143113.275000", "143114.765000", "143116.255000", "143117.745000", "143119.235000", "143120.725000", "143122.215000", "143123.705000", "143125.195000", "143126.685000", "143128.175000", "143129.665000", "143131.155000", "143132.645000", "143134.135000", "143135.625000", "143137.115000", "143138.605000", "143140.095000", "143141.585000", "143143.075000", "143144.565000", "143146.055000", "143147.545000", "143149.035000", "143150.525000", "143152.015000", "143153.505000", "143154.995000", "143156.485000", "143157.975000", "143159.465000", "143200.955000", "143202.445000", "143203.935000", "143205.425000", "143206.915000", "143208.405000", "143209.895000", "143211.385000", "143212.875000", "143214.365000", "143215.855000", "143217.345000", "143218.835000", "143220.325000", "143221.815000", "143223.305000", "143224.795000", "143226.285000", "143227.775000", "143229.265000", "143230.755000", "143232.245000", "143233.735000", "143235.225000", "143236.715000", "143238.205000", "143239.695000", "143241.185000", "143242.675000", "143244.165000", "143245.655000", "143247.145000", "143248.635000", "143250.125000", "143251.615000", "143253.105000", "143254.595000", "143256.085000", "143257.575000", "143259.065000", "143300.555000", "143302.045000", "143303.535000", "143305.025000", "143306.515000", "143308.005000", "143309.495000", "143310.985000", "143312.475000", "143313.965000", "143315.455000", "143316.945000", "143318.435000", "143319.925000", "143321.415000", "143322.905000", "143324.395000", "143325.885000", "143327.375000", "143328.865000", "143330.355000", "143331.845000", "143333.335000", "143334.825000", "143336.315000", "143337.805000", "143339.295000", "143340.785000", "143342.275000", "143343.765000", "143345.255000", "143346.745000", "143348.235000", "143349.725000", "143351.215000", "143352.705000", "143354.195000", "143355.685000", "143357.175000", "143358.665000", "143400.155000", "143401.645000", "143403.135000", "143404.625000", "143406.115000", "143407.605000", "143409.095000", "143410.585000", "143412.075000", "143413.565000", "143415.055000", "143416.545000", "143418.035000", "143419.525000", "143421.015000", "143422.505000", "143423.995000", "143425.485000", "143426.975000", "143428.465000", "143429.955000", "143431.445000", "143432.935000", "143434.425000", "143435.915000", "143437.405000", "143438.895000", "143440.385000", "143441.875000", "143443.365000", "143444.855000", "143446.345000", "143447.835000", "143449.325000", "143450.815000", "143452.305000", "143453.795000", "143455.285000", "143456.775000", "143458.265000", "143459.755000", "143501.245000", "143502.735000", "143504.225000", "143505.715000", "143507.205000", "143508.695000", "143510.185000", "143511.675000", "143513.165000", "143514.655000", "143516.145000", "143517.635000", "143519.125000", "143520.615000", "143522.105000", "143523.595000", "143525.085000", "143526.575000", "143528.065000", "143529.555000", "143531.045000", "143532.535000", "143534.025000", "143535.515000", "143537.005000", "143538.495000", "143539.985000", "143541.475000", "143542.965000", "143544.455000", "143545.945000", "143547.435000", "143548.925000", "143550.415000", "143551.905000", "143553.395000", "143554.885000", "143556.375000", "143557.865000", "143559.355000", "143600.845000", "143602.335000", "143603.825000", "143605.315000", "143606.805000", "143608.295000", "143609.785000", "143611.275000", "143612.765000", "143614.255000", "143615.745000", "143617.235000", "143618.725000", "143620.215000", "143621.705000", "143623.195000", "143624.685000", "143626.175000", "143627.665000", "143629.155000"],
      "ContentTime": ["142719.483000", "142719.487000", "142719.491000", "142719.494000", "142719.497000", "142719.501000", "142719.504000", "142719.513000", "142719.516000", "142719.520000", "142719.523000", "142719.526000", "142719.529000", "142719.533000", "142719.536000", "142719.539000", "142719.542000", "142719.546000", "142719.549000", "142719.552000", "142719.555000", "142719.574000", "142719.578000", "142719.581000", "142719.584000", "142719.587000", "142719.591000", "142719.594000", "142719.604000", "142719.608000", "142719.611000", "142719.614000", "142739.450000", "142739.454000", "142739.457000", "142739.461000", "142739.464000", "142739.467000", "142739.470000", "142739.474000", "142739.477000", "142739.480000", "142739.484000", "142739.487000", "142739.490000", "142739.494000", "142739.497000", "142739.500000", "142739.504000", "142739.507000", "142739.510000", "142739.514000", "142759.451000", "142759.455000", "142759.458000", "142759.461000", "142759.465000", "142759.468000", "142759.471000", "142759.475000", "142759.478000", "142759.481000", "142759.485000", "142759.490000", "142759.493000", "142759.498000", "142759.501000", "142759.505000", "142759.509000", "142759.512000", "142759.515000", "142759.519000", "142819.451000", "142819.455000", "142819.458000", "142819.462000", "142819.465000", "142819.468000", "142819.478000", "142819.481000", "142819.485000", "142819.488000", "142819.491000", "142819.495000", "142819.498000", "142819.501000", "142819.504000", "142819.508000", "142819.511000", "142819.514000", "142819.518000", "142819.521000", "142819.524000", "142859.450000", "142859.454000", "142859.457000", "142859.460000", "142859.464000", "142859.467000", "142859.470000", "142859.474000", "142859.477000", "142859.481000", "142859.484000", "142859.487000", "142859.491000", "142859.494000", "142859.498000", "142859.501000", "142859.504000", "142859.508000", "142859.511000", "142859.514000", "142859.517000", "142859.521000", "142859.524000", "142859.527000", "142859.531000", "142859.534000", "142859.546000", "142859.549000", "142859.552000", "142859.556000", "142859.559000", "142939.450000", "142939.454000", "142939.457000", "142939.460000", "142939.464000", "142939.467000", "142939.471000", "142939.474000", "142939.477000", "142939.481000", "142939.484000", "142939.487000", "142939.491000", "142939.494000", "142939.497000", "142939.501000", "142939.504000", "142939.507000", "142939.511000", "142939.514000", "142939.517000", "142939.521000", "142939.524000", "142939.527000", "142939.530000", "142939.534000", "143019.451000", "143019.455000", "143019.458000", "143019.462000", "143019.465000", "143019.468000", "143019.472000", "143019.475000", "143019.478000", "143019.481000", "143019.485000", "143019.488000", "143019.491000", "143019.495000", "143019.498000", "143019.502000", "143019.505000", "143019.508000", "143019.511000", "143019.515000", "143019.518000", "143019.521000", "143019.525000", "143019.528000", "143019.531000", "143019.535000", "143019.538000", "143059.450000", "143059.454000", "143059.457000", "143059.461000", "143059.464000", "143059.467000", "143059.471000", "143059.474000", "143059.477000", "143059.486000", "143059.490000", "143059.493000", "143059.496000", "143059.500000", "143059.503000", "143059.506000", "143059.510000", "143059.513000", "143059.516000", "143059.520000", "143059.523000", "143059.526000", "143059.529000", "143059.533000", "143059.536000", "143059.539000", "143059.543000", "143139.450000", "143139.454000", "143139.457000", "143139.461000", "143139.464000", "143139.467000", "143139.470000", "143139.474000", "143139.477000", "143139.480000", "143139.484000", "143139.497000", "143139.500000", "143139.503000", "143139.507000", "143139.510000", "143139.513000", "143139.517000", "143139.520000", "143139.523000", "143139.527000", "143139.530000", "143139.533000", "143139.537000", "143139.540000", "143139.543000", "143139.546000", "143219.450000", "143219.454000", "143219.458000", "143219.461000", "143219.464000", "143219.468000", "143219.471000", "143219.474000", "143219.478000", "143219.481000", "143219.485000", "143219.488000", "143219.491000", "143219.495000", "143219.498000", "143219.501000", "143219.505000", "143219.508000", "143219.512000", "143219.515000", "143219.518000", "143219.522000", "143219.525000", "143219.528000", "143219.532000", "143219.535000", "143219.539000", "143259.451000", "143259.455000", "143259.458000", "143259.462000", "143259.465000", "143259.468000", "143259.472000", "143259.475000", "143259.478000", "143259.482000", "143259.485000", "143259.488000", "143259.492000", "143259.495000", "143259.498000", "143259.502000", "143259.505000", "143259.509000", "143259.512000", "143259.515000", "143259.519000", "143259.522000", "143259.525000", "143259.529000", "143259.532000", "143259.535000", "143259.538000", "143319.450000", "143319.454000", "143319.457000", "143319.461000", "143319.464000", "143319.467000", "143319.471000", "143319.474000", "143319.477000", "143319.481000", "143319.484000", "143319.487000", "143319.490000", "143359.465000", "143359.469000", "143359.472000", "143359.476000", "143359.479000", "143359.482000", "143359.485000", "143359.489000", "143359.492000", "143359.495000", "143359.499000", "143359.502000", "143359.505000", "143359.509000", "143359.512000", "143359.515000", "143359.519000", "143359.522000", "143359.525000", "143359.529000", "143359.532000", "143359.535000", "143359.538000", "143359.542000", "143359.545000", "143359.548000", "143359.552000", "143439.450000", "143439.454000", "143439.457000", "143439.461000", "143439.464000", "143439.468000", "143439.471000", "143439.474000", "143439.478000", "143439.481000", "143439.484000", "143439.488000", "143439.491000", "143439.494000", "143439.498000", "143439.501000", "143439.504000", "143439.508000", "143439.511000", "143439.514000", "143439.517000", "143439.521000", "143439.524000", "143439.527000", "143439.531000", "143439.534000", "143439.537000", "143519.451000", "143519.455000", "143519.458000", "143519.462000", "143519.465000", "143519.468000", "143519.471000", "143519.475000", "143519.478000", "143519.481000", "143519.485000", "143519.489000", "143519.493000", "143519.496000", "143519.499000", "143519.503000", "143519.506000", "143519.509000", "143519.512000", "143519.516000", "143519.519000", "143519.522000", "143519.526000", "143519.529000", "143519.532000", "143519.535000", "143519.539000", "143559.450000", "143559.464000", "143559.467000", "143559.471000", "143559.480000", "143559.483000", "143559.487000", "143559.490000", "143559.493000", "143559.497000", "143559.500000", "143559.503000", "143559.508000", "143559.511000", "143559.515000", "143559.518000", "143559.522000", "143559.526000", "143559.529000", "143559.533000", "143559.536000", "143559.540000", "143559.544000", "143559.547000", "143559.551000", "143559.554000", "143631.992000", "143631.995000", "143632.000000", "143632.003000", "143632.006000", "143632.010000", "143632.013000", "143632.016000", "143632.019000", "143632.023000", "143632.026000", "143632.030000", "143632.033000", "143632.036000", "143632.039000", "143632.043000", "143632.046000", "143632.049000", "143632.053000", "143632.056000", "143632.059000", "143632.063000"],
      "InstanceCreationTime": ["142719.483000", "142719.487000", "142719.491000", "142719.494000", "142719.497000", "142719.501000", "142719.504000", "142719.513000", "142719.516000", "142719.520000", "142719.523000", "142719.526000", "142719.529000", "142719.533000", "142719.536000", "142719.539000", "142719.542000", "142719.546000", "142719.549000", "142719.552000", "142719.555000", "142719.574000", "142719.578000", "142719.581000", "142719.584000", "142719.587000", "142719.591000", "142719.594000", "142719.604000", "142719.608000", "142719.611000", "142719.614000", "142739.450000", "142739.454000", "142739.457000", "142739.461000", "142739.464000", "142739.467000", "142739.470000", "142739.474000", "142739.477000", "142739.480000", "142739.484000", "142739.487000", "142739.490000", "142739.494000", "142739.497000", "142739.500000", "142739.504000", "142739.507000", "142739.510000", "142739.514000", "142759.451000", "142759.455000", "142759.458000", "142759.461000", "142759.465000", "142759.468000", "142759.471000", "142759.475000", "142759.478000", "142759.481000", "142759.485000", "142759.490000", "142759.493000", "142759.498000", "142759.501000", "142759.505000", "142759.509000", "142759.512000", "142759.515000", "142759.519000", "142819.451000", "142819.455000", "142819.458000", "142819.462000", "142819.465000", "142819.468000", "142819.478000", "142819.481000", "142819.485000", "142819.488000", "142819.491000", "142819.495000", "142819.498000", "142819.501000", "142819.504000", "142819.508000", "142819.511000", "142819.514000", "142819.518000", "142819.521000", "142819.524000", "142859.450000", "142859.454000", "142859.457000", "142859.460000", "142859.464000", "142859.467000", "142859.470000", "142859.474000", "142859.477000", "142859.481000", "142859.484000", "142859.487000", "142859.491000", "142859.494000", "142859.498000", "142859.501000", "142859.504000", "142859.508000", "142859.511000", "142859.514000", "142859.517000", "142859.521000", "142859.524000", "142859.527000", "142859.531000", "142859.534000", "142859.546000", "142859.549000", "142859.552000", "142859.556000", "142859.559000", "142939.450000", "142939.454000", "142939.457000", "142939.460000", "142939.464000", "142939.467000", "142939.471000", "142939.474000", "142939.477000", "142939.481000", "142939.484000", "142939.487000", "142939.491000", "142939.494000", "142939.497000", "142939.501000", "142939.504000", "142939.507000", "142939.511000", "142939.514000", "142939.517000", "142939.521000", "142939.524000", "142939.527000", "142939.530000", "142939.534000", "143019.451000", "143019.455000", "143019.458000", "143019.462000", "143019.465000", "143019.468000", "143019.472000", "143019.475000", "143019.478000", "143019.481000", "143019.485000", "143019.488000", "143019.491000", "143019.495000", "143019.498000", "143019.502000", "143019.505000", "143019.508000", "143019.511000", "143019.515000", "143019.518000", "143019.521000", "143019.525000", "143019.528000", "143019.531000", "143019.535000", "143019.538000", "143059.450000", "143059.454000", "143059.457000", "143059.461000", "143059.464000", "143059.467000", "143059.471000", "143059.474000", "143059.477000", "143059.486000", "143059.490000", "143059.493000", "143059.496000", "143059.500000", "143059.503000", "143059.506000", "143059.510000", "143059.513000", "143059.516000", "143059.520000", "143059.523000", "143059.526000", "143059.529000", "143059.533000", "143059.536000", "143059.539000", "143059.543000", "143139.450000", "143139.454000", "143139.457000", "143139.461000", "143139.464000", "143139.467000", "143139.470000", "143139.474000", "143139.477000", "143139.480000", "143139.484000", "143139.497000", "143139.500000", "143139.503000", "143139.507000", "143139.510000", "143139.513000", "143139.517000", "143139.520000", "143139.523000", "143139.527000", "143139.530000", "143139.533000", "143139.537000", "143139.540000", "143139.543000", "143139.546000", "143219.450000", "143219.454000", "143219.458000", "143219.461000", "143219.464000", "143219.468000", "143219.471000", "143219.474000", "143219.478000", "143219.481000", "143219.485000", "143219.488000", "143219.491000", "143219.495000", "143219.498000", "143219.501000", "143219.505000", "143219.508000", "143219.512000", "143219.515000", "143219.518000", "143219.522000", "143219.525000", "143219.528000", "143219.532000", "143219.535000", "143219.539000", "143259.451000", "143259.455000", "143259.458000", "143259.462000", "143259.465000", "143259.468000", "143259.472000", "143259.475000", "143259.478000", "143259.482000", "143259.485000", "143259.488000", "143259.492000", "143259.495000", "143259.498000", "143259.502000", "143259.505000", "143259.509000", "143259.512000", "143259.515000", "143259.519000", "143259.522000", "143259.525000", "143259.529000", "143259.532000", "143259.535000", "143259.538000", "143319.450000", "143319.454000", "143319.457000", "143319.461000", "143319.464000", "143319.467000", "143319.471000", "143319.474000", "143319.477000", "143319.481000", "143319.484000", "143319.487000", "143319.490000", "143359.465000", "143359.469000", "143359.472000", "143359.476000", "143359.479000", "143359.482000", "143359.485000", "143359.489000", "143359.492000", "143359.495000", "143359.499000", "143359.502000", "143359.505000", "143359.509000", "143359.512000", "143359.515000", "143359.519000", "143359.522000", "143359.525000", "143359.529000", "143359.532000", "143359.535000", "143359.538000", "143359.542000", "143359.545000", "143359.548000", "143359.552000", "143439.450000", "143439.454000", "143439.457000", "143439.461000", "143439.464000", "143439.468000", "143439.471000", "143439.474000", "143439.478000", "143439.481000", "143439.484000", "143439.488000", "143439.491000", "143439.494000", "143439.498000", "143439.501000", "143439.504000", "143439.508000", "143439.511000", "143439.514000", "143439.517000", "143439.521000", "143439.524000", "143439.527000", "143439.531000", "143439.534000", "143439.537000", "143519.451000", "143519.455000", "143519.458000", "143519.462000", "143519.465000", "143519.468000", "143519.471000", "143519.475000", "143519.478000", "143519.481000", "143519.485000", "143519.489000", "143519.493000", "143519.496000", "143519.499000", "143519.503000", "143519.506000", "143519.509000", "143519.512000", "143519.516000", "143519.519000", "143519.522000", "143519.526000", "143519.529000", "143519.532000", "143519.535000", "143519.539000", "143559.450000", "143559.464000", "143559.467000", "143559.471000", "143559.480000", "143559.483000", "143559.487000", "143559.490000", "143559.493000", "143559.497000", "143559.500000", "143559.503000", "143559.508000", "143559.511000", "143559.515000", "143559.518000", "143559.522000", "143559.526000", "143559.529000", "143559.533000", "143559.536000", "143559.540000", "143559.544000", "143559.547000", "143559.551000", "143559.554000", "143631.992000", "143631.995000", "143632.000000", "143632.003000", "143632.006000", "143632.010000", "143632.013000", "143632.016000", "143632.019000", "143632.023000", "143632.026000", "143632.030000", "143632.033000", "143632.036000", "143632.039000", "143632.043000", "143632.046000", "143632.049000", "143632.053000", "143632.056000", "143632.059000", "143632.063000"],
