{
  "AcquisitionMatrixPE": 104,
  "AcquisitionNumber": 1,
  "AcquisitionTime": "14:13:31.270000",
  "BandwidthPerPixelPhaseEncode": 17.17,
  "BaseResolution": 104,
  "BodyPartExamined": "BRAIN",
  "CoilString": "HC1-7;NC1_2",
  "ConsistencyInfo": "N4_VE11C_LATEST_20160120",
  "ConversionSoftware": "dcm2niix",
  "ConversionSoftwareVersion": "v1.0.20190902",
  "DerivedVendorReportedEchoSpacing": 0.000560011,
  "DeviceSerialNumber": "167006",
  "DwellTime": 2.1e-06,
  "EchoTime": 0.037,
  "EchoTrainLength": 104,
  "EffectiveEchoSpacing": 0.000560011,
  "FlipAngle": 52,
  "HeudiconvVersion": "0.10.0",
  "ImageComments": "Unaliased_MB4_PE3_LB",
  "ImageOrientationPatientDICOM": [0.999977, -0.00074992, -0.00673447, -0.00261792, 0.873932, -0.486042],
  "ImageType": [
    "ORIGINAL",
    "PRIMARY",
    "P",
    "MB",
    "ND",
    "MOSAIC"
],
  "ImagingFrequency": 123.259,
  "InPlanePhaseEncodingDirectionDICOM": "COL",
  "InstitutionAddress": "Chemin_Queen-Mary_4565_Montreal_District_CA_H3W_1W5",
  "InstitutionName": "IUGM",
  "InstitutionalDepartmentName": "Department",
  "MRAcquisitionType": "2D",
  "MagneticFieldStrength": 3,
  "Manufacturer": "Siemens",
  "ManufacturersModelName": "Prisma_fit",
  "Modality": "MR",
  "MultibandAccelerationFactor": 4,
  "PartialFourier": 1,
  "PatientPosition": "HFS",
  "PercentPhaseFOV": 100,
  "PhaseEncodingDirection": "j",
  "PhaseEncodingSteps": 104,
  "PhaseResolution": 1,
  "PixelBandwidth": 2290,
  "ProcedureStepDescription": "games_mario",
  "ProtocolName": "func_task-mario_run-01",
  "PulseSequenceDetails": "%CustomerSeq%_cmrr_mbep2d_bold",
  "ReceiveCoilActiveElements": "HC1-7;NC1,2",
  "ReceiveCoilName": "HeadNeck_64",
  "ReconMatrixPE": 104,
  "RepetitionTime": 1.49,
  "SAR": 0.0630188,
  "ScanOptions": "FS",
  "ScanningSequence": "EP",
  "SequenceName": "epfid2d1_104",
  "SequenceVariant": "SK_SS",
  "SeriesDescription": "func_task-mario_run-01",
  "SeriesNumber": 11,
  "ShimSetting": [615, -7182, -8863, 306, 18, -141, -18, -52],
  "SliceThickness": 2,
  "SliceTiming": [0, 0.7825, 0.0975, 0.88, 0.195, 0.98, 0.2925, 1.0775, 0.39, 1.175, 0.49, 1.2725, 0.5875, 1.37, 0.685, 0, 0.7825, 0.0975, 0.88, 0.195, 0.98, 0.2925, 1.0775, 0.39, 1.175, 0.49, 1.2725, 0.5875, 1.37, 0.685, 0, 0.7825, 0.0975, 0.88, 0.195, 0.98, 0.2925, 1.0775, 0.39, 1.175, 0.49, 1.2725, 0.5875, 1.37, 0.685, 0, 0.7825, 0.0975, 0.88, 0.195, 0.98, 0.2925, 1.0775, 0.39, 1.175, 0.49, 1.2725, 0.5875, 1.37, 0.685],
  "SoftwareVersions": "syngo_MR_E11",
  "SpacingBetweenSlices": 2,
  "StationName": "MRC35049",
  "TaskName": "mario",
  "TotalReadoutTime": 0.0576811,
  "TxRefAmp": 302.019,
  "WipMemBlock": "50a2a5ee-4435-42a8-bf17-b8100502b320||Sequence: R016 ve11c/master r/e634e98; Dec 19 2017 11:00:25 by eja",
  "dcmmeta_affine": [
    [-1.999954104423523, -0.005235832184553146, -0.012499915435910225, 107.50385284423828],
    [0.001499839243479073, 1.7478631734848022, -0.9720967411994934, -54.38067626953125],
    [-0.013468938879668713, 0.9720838069915771, 1.7478190660476685, -91.83065032958984],
    [0.0, 0.0, 0.0, 1.0]
],
  "dcmmeta_reorient_transform": [
    [0.0, -1.0, 0.0, 103.0],
    [1.0, 0.0, 0.0, 0.0],
    [0.0, 0.0, 1.0, 0.0],
    [0.0, 0.0, 0.0, 1.0]
],
  "dcmmeta_shape": [104, 104, 60, 464],
  "dcmmeta_slice_dim": 2,
  "dcmmeta_version": 0.6,
  "global": {
    "const": {
      "AcquisitionMatrix": [104, 0, 0, 104],
      "AngioFlag": "N",
      "BitsAllocated": 16,
      "BitsStored": 16,
      "BodyPartExamined": "BRAIN",
      "Columns": 832,
      "EchoNumbers": 1,
      "EchoTime": 37.0,
      "EchoTrainLength": 104,
      "FlipAngle": 52.0,
      "HighBit": 15,
      "ImageOrientationPatient": [0.99997704200726, -0.0007499196079, -0.0067344694664, -0.0026179160424, 0.8739315835848, -0.4860419053215],
      "ImagePositionPatient": [-833.04200221632, -761.32548137335, 367.03518231839],
      "ImageType": [
        "ORIGINAL",
        "PRIMARY",
        "P",
        "MB",
        "ND",
        "MOSAIC"
],
      "ImagedNucleus": "1H",
      "ImagingFrequency": 123.258919,
      "InPlanePhaseEncodingDirection": "COL",
      "LargestImagePixelValue": 4095,
      "MRAcquisitionType": "2D",
      "MagneticFieldStrength": 3.0,
      "Manufacturer": "SIEMENS",
      "ManufacturerModelName": "Prisma_fit",
      "Modality": "MR",
      "NumberOfAverages": 1.0,
      "NumberOfPhaseEncodingSteps": 104,
      "PercentPhaseFieldOfView": 100.0,
      "PercentSampling": 100.0,
      "PerformedProcedureStepStartTime": "132550.183000",
      "PhotometricInterpretation": "MONOCHROME2",
      "PixelBandwidth": 2290.0,
      "PixelRepresentation": 0,
      "PixelSpacing": [2.0, 2.0],
      "ProtocolName": "func_task-mario_run-01",
      "RepetitionTime": 1490.0,
      "RescaleIntercept": -4096.0,
      "RescaleSlope": 2.0,
      "RescaleType": "US",
      "Rows": 832,
      "SAR": 0.06301876235425,
      "SamplesPerPixel": 1,
      "ScanOptions": "FS",
      "ScanningSequence": "EP",
      "SequenceName": "epfid2d1_104",
      "SequenceVariant": [
        "SK",
        "SS"
],
      "SeriesDescription": "func_task-mario_run-01",
      "SeriesNumber": 11,
      "SeriesTime": "141454.603000",
      "SliceLocation": -54.491938636249,
      "SliceThickness": 2.0,
      "SmallestImagePixelValue": 0,
      "SoftwareVersions": "syngo MR E11",
      "SpacingBetweenSlices": 1.9999999799625,
      "SpecificCharacterSet": "ISO_IR 100",
      "StudyID": "1",
      "StudyTime": "132550.051000",
      "TransmitCoilName": "Body",
      "VariableFlipAngleFlag": "N",
      "WindowCenterWidthExplanation": "Algo1",
      "dBdt": 0.0},
    "slices": {}
  },
  "time": {
    "samples": {
      "AcquisitionNumber": [1, 2, 3, 4, 5, 6, 7, 8, 9, 10, 11, 12, 13, 14, 15, 16, 17, 18, 19, 20, 21, 22, 23, 24, 25, 26, 27, 28, 29, 30, 31, 32, 33, 34, 35, 36, 37, 38, 39, 40, 41, 42, 43, 44, 45, 46, 47, 48, 49, 50, 51, 52, 53, 54, 55, 56, 57, 58, 59, 60, 61, 62, 63, 64, 65, 66, 67, 68, 69, 70, 71, 72, 73, 74, 75, 76, 77, 78, 79, 80, 81, 82, 83, 84, 85, 86, 87, 88, 89, 90, 91, 92, 93, 94, 95, 96, 97, 98, 99, 100, 101, 102, 103, 104, 105, 106, 107, 108, 109, 110, 111, 112, 113, 114, 115, 116, 117, 118, 119, 120, 121, 122, 123, 124, 125, 126, 127, 128, 129, 130, 131, 132, 133, 134, 135, 136, 137, 138, 139, 140, 141, 142, 143, 144, 145, 146, 147, 148, 149, 150, 151, 152, 153, 154, 155, 156, 157, 158, 159, 160, 161, 162, 163, 164, 165, 166, 167, 168, 169, 170, 171, 172, 173, 174, 175, 176, 177, 178, 179, 180, 181, 182, 183, 184, 185, 186, 187, 188, 189, 190, 191, 192, 193, 194, 195, 196, 197, 198, 199, 200, 201, 202, 203, 204, 205, 206, 207, 208, 209, 210, 211, 212, 213, 214, 215, 216, 217, 218, 219, 220, 221, 222, 223, 224, 225, 226, 227, 228, 229, 230, 231, 232, 233, 234, 235, 236, 237, 238, 239, 240, 241, 242, 243, 244, 245, 246, 247, 248, 249, 250, 251, 252, 253, 254, 255, 256, 257, 258, 259, 260, 261, 262, 263, 264, 265, 266, 267, 268, 269, 270, 271, 272, 273, 274, 275, 276, 277, 278, 279, 280, 281, 282, 283, 284, 285, 286, 287, 288, 289, 290, 291, 292, 293, 294, 295, 296, 297, 298, 299, 300, 301, 302, 303, 304, 305, 306, 307, 308, 309, 310, 311, 312, 313, 314, 315, 316, 317, 318, 319, 320, 321, 322, 323, 324, 325, 326, 327, 328, 329, 330, 331, 332, 333, 334, 335, 336, 337, 338, 339, 340, 341, 342, 343, 344, 345, 346, 347, 348, 349, 350, 351, 352, 353, 354, 355, 356, 357, 358, 359, 360, 361, 362, 363, 364, 365, 366, 367, 368, 369, 370, 371, 372, 373, 374, 375, 376, 377, 378, 379, 380, 381, 382, 383, 384, 385, 386, 387, 388, 389, 390, 391, 392, 393, 394, 395, 396, 397, 398, 399, 400, 401, 402, 403, 404, 405, 406, 407, 408, 409, 410, 411, 412, 413, 414, 415, 416, 417, 418, 419, 420, 421, 422, 423, 424, 425, 426, 427, 428, 429, 430, 431, 432, 433, 434, 435, 436, 437, 438, 439, 440, 441, 442, 443, 444, 445, 446, 447, 448, 449, 450, 451, 452, 453, 454, 455, 456, 457, 458, 459, 460, 461, 462, 463, 464],
      "AcquisitionTime": ["141331.270000", "141332.760000", "141334.250000", "141335.740000", "141337.230000", "141338.720000", "141340.210000", "141341.700000", "141343.190000", "141344.680000", "141346.170000", "141347.660000", "141349.150000", "141350.640000", "141352.130000", "141353.620000", "141355.110000", "141356.600000", "141358.090000", "141359.580000", "141401.070000", "141402.560000", "141404.050000", "141405.540000", "141407.030000", "141408.520000", "141410.010000", "141411.500000", "141412.990000", "141414.480000", "141415.970000", "141417.460000", "141418.950000", "141420.440000", "141421.930000", "141423.420000", "141424.910000", "141426.400000", "141427.890000", "141429.380000", "141430.870000", "141432.360000", "141433.850000", "141435.340000", "141436.830000", "141438.320000", "141439.810000", "141441.300000", "141442.790000", "141444.280000", "141445.770000", "141447.260000", "141448.750000", "141450.240000", "141451.730000", "141453.220000", "141454.710000", "141456.200000", "141457.690000", "141459.180000", "141500.670000", "141502.160000", "141503.650000", "141505.140000", "141506.630000", "141508.120000", "141509.610000", "141511.100000", "141512.590000", "141514.080000", "141515.570000", "141517.060000", "141518.550000", "141520.040000", "141521.530000", "141523.020000", "141524.510000", "141526.000000", "141527.490000", "141528.980000", "141530.470000", "141531.960000", "141533.450000", "141534.940000", "141536.430000", "141537.920000", "141539.410000", "141540.900000", "141542.390000", "141543.880000", "141545.370000", "141546.860000", "141548.350000", "141549.840000", "141551.330000", "141552.820000", "141554.310000", "141555.800000", "141557.290000", "141558.780000", "141600.270000", "141601.760000", "141603.250000", "141604.740000", "141606.230000", "141607.720000", "141609.210000", "141610.700000", "141612.190000", "141613.680000", "141615.170000", "141616.660000", "141618.150000", "141619.640000", "141621.130000", "141622.620000", "141624.110000", "141625.600000", "141627.090000", "141628.580000", "141630.070000", "141631.560000", "141633.050000", "141634.540000", "141636.030000", "141637.520000", "141639.010000", "141640.500000", "141641.990000", "141643.480000", "141644.970000", "141646.460000", "141647.950000", "141649.440000", "141650.930000", "141652.420000", "141653.910000", "141655.400000", "141656.890000", "141658.380000", "141659.870000", "141701.360000", "141702.850000", "141704.340000", "141705.830000", "141707.320000", "141708.810000", "141710.300000", "141711.790000", "141713.280000", "141714.770000", "141716.260000", "141717.750000", "141719.240000", "141720.730000", "141722.220000", "141723.710000", "141725.200000", "141726.690000", "141728.180000", "141729.670000", "141731.160000", "141732.650000", "141734.140000", "141735.630000", "141737.120000", "141738.610000", "141740.100000", "141741.590000", "141743.080000", "141744.570000", "141746.060000", "141747.550000", "141749.040000", "141750.530000", "141752.020000", "141753.510000", "141755.000000", "141756.490000", "141757.980000", "141759.470000", "141800.960000", "141802.450000", "141803.940000", "141805.430000", "141806.920000", "141808.410000", "141809.900000", "141811.390000", "141812.880000", "141814.370000", "141815.860000", "141817.350000", "141818.840000", "141820.330000", "141821.820000", "141823.310000", "141824.800000", "141826.290000", "141827.780000", "141829.270000", "141830.760000", "141832.250000", "141833.740000", "141835.230000", "141836.720000", "141838.210000", "141839.700000", "141841.190000", "141842.680000", "141844.170000", "141845.660000", "141847.150000", "141848.640000", "141850.130000", "141851.620000", "141853.110000", "141854.600000", "141856.090000", "141857.580000", "141859.070000", "141900.560000", "141902.050000", "141903.540000", "141905.030000", "141906.520000", "141908.010000", "141909.500000", "141910.990000", "141912.480000", "141913.970000", "141915.460000", "141916.950000", "141918.440000", "141919.930000", "141921.420000", "141922.910000", "141924.400000", "141925.890000", "141927.380000", "141928.870000", "141930.360000", "141931.850000", "141933.340000", "141934.830000", "141936.320000", "141937.810000", "141939.300000", "141940.790000", "141942.280000", "141943.770000", "141945.260000", "141946.750000", "141948.240000", "141949.730000", "141951.220000", "141952.710000", "141954.200000", "141955.690000", "141957.180000", "141958.670000", "142000.160000", "142001.650000", "142003.140000", "142004.630000", "142006.120000", "142007.610000", "142009.100000", "142010.590000", "142012.080000", "142013.570000", "142015.060000", "142016.550000", "142018.040000", "142019.530000", "142021.020000", "142022.510000", "142024.000000", "142025.490000", "142026.980000", "142028.470000", "142029.960000", "142031.450000", "142032.940000", "142034.430000", "142035.920000", "142037.410000", "142038.900000", "142040.390000", "142041.880000", "142043.370000", "142044.860000", "142046.350000", "142047.840000", "142049.330000", "142050.820000", "142052.310000", "142053.800000", "142055.290000", "142056.780000", "142058.270000", "142059.760000", "142101.250000", "142102.740000", "142104.230000", "142105.720000", "142107.210000", "142108.700000", "142110.190000", "142111.680000", "142113.170000", "142114.660000", "142116.150000", "142117.640000", "142119.130000", "142120.620000", "142122.110000", "142123.600000", "142125.090000", "142126.580000", "142128.070000", "142129.560000", "142131.050000", "142132.540000", "142134.030000", "142135.520000", "142137.010000", "142138.500000", "142139.990000", "142141.480000", "142142.970000", "142144.460000", "142145.950000", "142147.440000", "142148.930000", "142150.420000", "142151.910000", "142153.400000", "142154.890000", "142156.380000", "142157.870000", "142159.360000", "142200.850000", "142202.340000", "142203.830000", "142205.320000", "142206.810000", "142208.300000", "142209.790000", "142211.280000", "142212.770000", "142214.260000", "142215.750000", "142217.240000", "142218.730000", "142220.220000", "142221.710000", "142223.200000", "142224.690000", "142226.180000", "142227.670000", "142229.160000", "142230.650000", "142232.140000", "142233.630000", "142235.120000", "142236.610000", "142238.100000", "142239.590000", "142241.080000", "142242.570000", "142244.060000", "142245.550000", "142247.040000", "142248.530000", "142250.020000", "142251.510000", "142253.000000", "142254.490000", "142255.980000", "142257.470000", "142258.960000", "142300.450000", "142301.940000", "142303.430000", "142304.920000", "142306.410000", "142307.900000", "142309.390000", "142310.880000", "142312.370000", "142313.860000", "142315.350000", "142316.840000", "142318.330000", "142319.820000", "142321.310000", "142322.800000", "142324.290000", "142325.780000", "142327.270000", "142328.760000", "142330.250000", "142331.740000", "142333.230000", "142334.720000", "142336.210000", "142337.700000", "142339.190000", "142340.680000", "142342.170000", "142343.660000", "142345.150000", "142346.640000", "142348.130000", "142349.620000", "142351.110000", "142352.600000", "142354.090000", "142355.580000", "142357.070000", "142358.560000", "142400.050000", "142401.540000", "142403.030000", "142404.520000", "142406.010000", "142407.500000", "142408.990000", "142410.480000", "142411.970000", "142413.460000", "142414.950000", "142416.440000", "142417.930000", "142419.420000", "142420.910000", "142422.400000", "142423.890000", "142425.380000", "142426.870000", "142428.360000", "142429.850000", "142431.340000", "142432.830000", "142434.320000", "142435.810000", "142437.300000", "142438.790000", "142440.280000", "142441.770000", "142443.260000", "142444.750000", "142446.240000", "142447.730000", "142449.220000", "142450.710000", "142452.200000", "142453.690000", "142455.180000", "142456.670000", "142458.160000", "142459.650000", "142501.140000"],
      "ContentTime": ["141454.605000", "141454.608000", "141454.611000", "141454.613000", "141454.616000", "141454.624000", "141454.626000", "141454.629000", "141454.631000", "141454.634000", "141454.636000", "141454.639000", "141454.641000", "141454.644000", "141454.646000", "141454.649000", "141454.651000", "141454.654000", "141454.656000", "141454.659000", "141454.661000", "141454.664000", "141454.666000", "141454.669000", "141454.671000", "141454.674000", "141454.676000", "141454.679000", "141534.613000", "141534.616000", "141534.619000", "141534.621000", "141534.624000", "141534.626000", "141534.629000", "141534.631000", "141534.634000", "141534.636000", "141534.639000", "141534.641000", "141534.644000", "141534.646000", "141534.649000", "141534.651000", "141534.654000", "141534.662000", "141534.665000", "141534.667000", "141534.670000", "141534.672000", "141534.675000", "141534.677000", "141534.680000", "141534.682000", "141534.685000", "141534.687000", "141534.690000", "141534.692000", "141534.695000", "141534.697000", "141534.700000", "141534.702000", "141534.705000", "141534.707000", "141534.710000", "141534.712000", "141534.715000", "141534.717000", "141554.567000", "141554.570000", "141554.572000", "141554.575000", "141554.578000", "141554.580000", "141554.583000", "141554.585000", "141554.588000", "141554.590000", "141554.593000", "141554.595000", "141554.598000", "141554.600000", "141554.603000", "141554.605000", "141554.608000", "141554.611000", "141554.613000", "141554.616000", "141614.588000", "141614.591000", "141614.593000", "141614.601000", "141614.604000", "141614.606000", "141614.608000", "141614.611000", "141614.613000", "141614.616000", "141614.618000", "141614.621000", "141614.623000", "141614.626000", "141614.628000", "141614.631000", "141614.633000", "141614.636000", "141614.638000", "141614.641000", "141654.568000", "141654.571000", "141654.573000", "141654.576000", "141654.582000", "141654.585000", "141654.587000", "141654.590000", "141654.593000", "141654.595000", "141654.598000", "141654.600000", "141654.603000", "141654.605000", "141654.608000", "141654.610000", "141654.613000", "141654.615000", "141654.618000", "141654.620000", "141654.623000", "141654.625000", "141654.628000", "141654.630000", "141654.633000", "141654.635000", "141654.638000", "141654.640000", "141734.564000", "141734.567000", "141734.570000", "141734.572000", "141734.574000", "141734.577000", "141734.580000", "141734.582000", "141734.585000", "141734.587000", "141734.590000", "141734.592000", "141734.595000", "141734.597000", "141734.600000", "141734.602000", "141734.605000", "141734.607000", "141734.610000", "141734.612000", "141734.615000", "141734.617000", "141734.620000", "141734.622000", "141734.625000", "141734.627000", "141814.577000", "141814.580000", "141814.582000", "141814.585000", "141814.587000", "141814.590000", "141814.592000", "141814.595000", "141814.597000", "141814.600000", "141814.602000", "141814.605000", "141814.607000", "141814.610000", "141814.612000", "141814.615000", "141814.617000", "141814.621000", "141814.624000", "141814.626000", "141814.629000", "141814.631000", "141814.634000", "141814.636000", "141814.639000", "141814.649000", "141814.652000", "141854.579000", "141854.582000", "141854.584000", "141854.587000", "141854.590000", "141854.592000", "141854.594000", "141854.597000", "141854.599000", "141854.602000", "141854.604000", "141854.607000", "141854.609000", "141854.612000", "141854.614000", "141854.617000", "141854.619000", "141854.622000", "141854.624000", "141854.627000", "141854.629000", "141854.632000", "141854.634000", "141854.637000", "141854.639000", "141854.642000", "141854.644000", "141934.559000", "141934.562000", "141934.564000", "141934.567000", "141934.569000", "141934.572000", "141934.575000", "141934.577000", "141934.580000", "141934.582000", "141934.585000", "141934.587000", "141934.590000", "141934.592000", "141934.595000", "141934.597000", "141934.600000", "141934.602000", "141934.605000", "141934.607000", "141934.610000", "141934.612000", "141934.615000", "141934.617000", "141934.620000", "141934.622000", "141934.625000", "142014.555000", "142014.558000", "142014.561000", "142014.563000", "142014.566000", "142014.568000", "142014.571000", "142014.573000", "142014.576000", "142014.578000", "142014.581000", "142014.583000", "142014.586000", "142014.588000", "142014.590000", "142014.593000", "142014.595000", "142014.598000", "142014.600000", "142014.603000", "142014.605000", "142014.608000", "142014.610000", "142014.613000", "142014.615000", "142014.618000", "142014.620000", "142054.569000", "142054.572000", "142054.574000", "142054.577000", "142054.579000", "142054.582000", "142054.584000", "142054.587000", "142054.590000", "142054.592000", "142054.595000", "142054.597000", "142054.600000", "142054.602000", "142054.605000", "142054.607000", "142054.610000", "142054.612000", "142054.615000", "142054.617000", "142054.620000", "142054.623000", "142054.625000", "142054.627000", "142054.630000", "142054.633000", "142054.635000", "142134.561000", "142134.564000", "142134.566000", "142134.569000", "142134.571000", "142134.574000", "142134.576000", "142134.579000", "142134.582000", "142134.584000", "142134.587000", "142134.589000", "142134.592000", "142134.594000", "142134.597000", "142134.599000", "142134.602000", "142134.604000", "142134.607000", "142134.609000", "142134.612000", "142134.614000", "142134.617000", "142134.619000", "142134.622000", "142134.624000", "142214.581000", "142214.583000", "142214.586000", "142214.588000", "142214.591000", "142214.593000", "142214.596000", "142214.599000", "142214.601000", "142214.604000", "142214.606000", "142214.609000", "142214.611000", "142214.614000", "142214.616000", "142214.619000", "142214.621000", "142214.624000", "142214.626000", "142214.629000", "142214.632000", "142214.634000", "142214.637000", "142214.640000", "142214.643000", "142214.647000", "142214.650000", "142254.583000", "142254.586000", "142254.588000", "142254.591000", "142254.593000", "142254.596000", "142254.598000", "142254.601000", "142254.604000", "142254.607000", "142254.609000", "142254.612000", "142254.614000", "142254.617000", "142254.621000", "142254.624000", "142254.626000", "142254.629000", "142254.631000", "142254.634000", "142254.637000", "142254.640000", "142254.642000", "142254.645000", "142254.648000", "142254.650000", "142254.653000", "142334.568000", "142334.571000", "142334.573000", "142334.576000", "142334.578000", "142334.581000", "142334.583000", "142334.586000", "142334.588000", "142334.591000", "142334.593000", "142334.596000", "142334.599000", "142334.601000", "142334.604000", "142334.606000", "142334.609000", "142334.611000", "142334.614000", "142334.617000", "142334.619000", "142334.622000", "142334.624000", "142334.627000", "142334.629000", "142334.632000", "142334.634000", "142414.571000", "142414.574000", "142414.577000", "142414.579000", "142414.582000", "142414.584000", "142414.587000", "142414.589000", "142414.592000", "142414.594000", "142414.597000", "142414.600000", "142414.602000", "142414.605000", "142414.607000", "142414.610000", "142414.612000", "142414.615000", "142414.617000", "142414.620000", "142414.622000", "142414.625000", "142414.627000", "142414.630000", "142414.632000", "142414.635000", "142414.637000", "142454.555000", "142454.558000", "142454.561000", "142454.564000", "142454.566000", "142454.569000", "142454.571000", "142454.574000", "142454.576000", "142454.579000", "142454.581000", "142454.584000", "142454.586000", "142454.589000", "142454.591000", "142454.594000", "142454.597000", "142454.599000", "142454.601000", "142454.604000", "142454.607000", "142454.609000", "142454.612000", "142454.614000", "142454.617000", "142454.619000", "142454.622000", "142504.382000", "142504.385000", "142504.388000", "142504.391000", "142504.393000", "142504.395000"],
