{
  "AcquisitionMatrixPE": 104,
  "AcquisitionNumber": 1,
  "AcquisitionTime": "14:26:32.180000",
  "BandwidthPerPixelPhaseEncode": 17.17,
  "BaseResolution": 104,
  "BodyPartExamined": "BRAIN",
  "CoilString": "HC1-7;NC1_2",
  "ConsistencyInfo": "N4_VE11C_LATEST_20160120",
  "ConversionSoftware": "dcm2niix",
  "ConversionSoftwareVersion": "v1.0.20190902",
  "DerivedVendorReportedEchoSpacing": 0.000560011,
  "DeviceSerialNumber": "167006",
  "DwellTime": 2.1e-06,
  "EchoTime": 0.037,
  "EchoTrainLength": 104,
  "EffectiveEchoSpacing": 0.000560011,
  "FlipAngle": 52,
  "HeudiconvVersion": "0.10.0",
  "ImageComments": "Unaliased_MB4_PE3_LB",
  "ImageOrientationPatientDICOM": [0.999977, -0.00074992, -0.00673447, -0.00261792, 0.873932, -0.486042],
  "ImageType": [
    "ORIGINAL",
    "PRIMARY",
    "P",
    "MB",
    "ND",
    "MOSAIC"
],
  "ImagingFrequency": 123.259,
  "InPlanePhaseEncodingDirectionDICOM": "COL",
  "InstitutionAddress": "Chemin_Queen-Mary_4565_Montreal_District_CA_H3W_1W5",
  "InstitutionName": "IUGM",
  "InstitutionalDepartmentName": "Department",
  "MRAcquisitionType": "2D",
  "MagneticFieldStrength": 3,
  "Manufacturer": "Siemens",
  "ManufacturersModelName": "Prisma_fit",
  "Modality": "MR",
  "MultibandAccelerationFactor": 4,
  "PartialFourier": 1,
  "PatientPosition": "HFS",
  "PercentPhaseFOV": 100,
  "PhaseEncodingDirection": "j",
  "PhaseEncodingSteps": 104,
  "PhaseResolution": 1,
  "PixelBandwidth": 2290,
  "ProcedureStepDescription": "games_mario",
  "ProtocolName": "func_task-mario_run-02",
  "PulseSequenceDetails": "%CustomerSeq%_cmrr_mbep2d_bold",
  "ReceiveCoilActiveElements": "HC1-7;NC1,2",
  "ReceiveCoilName": "HeadNeck_64",
  "ReconMatrixPE": 104,
  "RepetitionTime": 1.49,
  "SAR": 0.0630188,
  "ScanOptions": "FS",
  "ScanningSequence": "EP",
  "SequenceName": "epfid2d1_104",
  "SequenceVariant": "SK_SS",
  "SeriesDescription": "func_task-mario_run-02",
  "SeriesNumber": 14,
  "ShimSetting": [615, -7182, -8863, 306, 18, -141, -18, -52],
  "SliceThickness": 2,
  "SliceTiming": [0, 0.7825, 0.0975, 0.8825, 0.195, 0.98, 0.2925, 1.0775, 0.3925, 1.175, 0.49, 1.2725, 0.5875, 1.3725, 0.685, 0, 0.7825, 0.0975, 0.8825, 0.195, 0.98, 0.2925, 1.0775, 0.3925, 1.175, 0.49, 1.2725, 0.5875, 1.3725, 0.685, 0, 0.7825, 0.0975, 0.8825, 0.195, 0.98, 0.2925, 1.0775, 0.3925, 1.175, 0.49, 1.2725, 0.5875, 1.3725, 0.685, 0, 0.7825, 0.0975, 0.8825, 0.195, 0.98, 0.2925, 1.0775, 0.3925, 1.175, 0.49, 1.2725, 0.5875, 1.3725, 0.685],
  "SoftwareVersions": "syngo_MR_E11",
  "SpacingBetweenSlices": 2,
  "StationName": "MRC35049",
  "TaskName": "mario",
  "TotalReadoutTime": 0.0576811,
  "TxRefAmp": 302.019,
  "WipMemBlock": "e78c60db-4be0-498b-a7bf-a8711cd9e7b4||Sequence: R016 ve11c/master r/e634e98; Dec 19 2017 11:00:25 by eja",
  "dcmmeta_affine": [
    [-1.999954104423523, -0.005235832184553146, -0.012499915435910225, 107.50385284423828],
    [0.001499839243479073, 1.7478631734848022, -0.9720967411994934, -54.38067626953125],
    [-0.013468938879668713, 0.9720838069915771, 1.7478190660476685, -91.83065032958984],
    [0.0, 0.0, 0.0, 1.0]
],
  "dcmmeta_reorient_transform": [
    [0.0, -1.0, 0.0, 103.0],
    [1.0, 0.0, 0.0, 0.0],
    [0.0, 0.0, 1.0, 0.0],
    [0.0, 0.0, 0.0, 1.0]
],
  "dcmmeta_shape": [104, 104, 60, 434],
  "dcmmeta_slice_dim": 2,
  "dcmmeta_version": 0.6,
  "global": {
    "const": {
      "AcquisitionMatrix": [104, 0, 0, 104],
      "AngioFlag": "N",
      "BitsAllocated": 16,
      "BitsStored": 16,
      "BodyPartExamined": "BRAIN",
      "Columns": 832,
      "EchoNumbers": 1,
      "EchoTime": 37.0,
      "EchoTrainLength": 104,
      "FlipAngle": 52.0,
      "HighBit": 15,
      "ImageOrientationPatient": [0.99997704200726, -0.0007499196079, -0.0067344694664, -0.0026179160424, 0.8739315835848, -0.4860419053215],
      "ImagePositionPatient": [-833.04200221632, -761.32548137335, 367.03518231839],
      "ImageType": [
        "ORIGINAL",
        "PRIMARY",
        "P",
        "MB",
        "ND",
        "MOSAIC"
],
      "ImagedNucleus": "1H",
      "ImagingFrequency": 123.258933,
      "InPlanePhaseEncodingDirection": "COL",
      "LargestImagePixelValue": 4095,
      "MRAcquisitionType": "2D",
      "MagneticFieldStrength": 3.0,
      "Manufacturer": "SIEMENS",
      "ManufacturerModelName": "Prisma_fit",
      "Modality": "MR",
      "NumberOfAverages": 1.0,
      "NumberOfPhaseEncodingSteps": 104,
      "PercentPhaseFieldOfView": 100.0,
      "PercentSampling": 100.0,
      "PerformedProcedureStepStartTime": "132550.183000",
      "PhotometricInterpretation": "MONOCHROME2",
      "PixelBandwidth": 2290.0,
      "PixelRepresentation": 0,
      "PixelSpacing": [2.0, 2.0],
      "ProtocolName": "func_task-mario_run-02",
      "RepetitionTime": 1490.0,
      "RescaleIntercept": -4096.0,
      "RescaleSlope": 2.0,
      "RescaleType": "US",
      "Rows": 832,
      "SAR": 0.06301876235425,
      "SamplesPerPixel": 1,
      "ScanOptions": "FS",
      "ScanningSequence": "EP",
      "SequenceName": "epfid2d1_104",
      "SequenceVariant": [
        "SK",
        "SS"
],
      "SeriesDescription": "func_task-mario_run-02",
      "SeriesNumber": 14,
      "SeriesTime": "142740.625000",
      "SliceLocation": -54.491938636249,
      "SliceThickness": 2.0,
      "SmallestImagePixelValue": 0,
      "SoftwareVersions": "syngo MR E11",
      "SpacingBetweenSlices": 1.9999999799625,
      "SpecificCharacterSet": "ISO_IR 100",
      "StudyID": "1",
      "StudyTime": "132550.051000",
      "TransmitCoilName": "Body",
      "VariableFlipAngleFlag": "N",
      "WindowCenterWidthExplanation": "Algo1",
      "dBdt": 0.0},
    "slices": {}
  },
  "time": {
    "samples": {
      "AcquisitionNumber": [1, 2, 3, 4, 5, 6, 7, 8, 9, 10, 11, 12, 13, 14, 15, 16, 17, 18, 19, 20, 21, 22, 23, 24, 25, 26, 27, 28, 29, 30, 31, 32, 33, 34, 35, 36, 37, 38, 39, 40, 41, 42, 43, 44, 45, 46, 47, 48, 49, 50, 51, 52, 53, 54, 55, 56, 57, 58, 59, 60, 61, 62, 63, 64, 65, 66, 67, 68, 69, 70, 71, 72, 73, 74, 75, 76, 77, 78, 79, 80, 81, 82, 83, 84, 85, 86, 87, 88, 89, 90, 91, 92, 93, 94, 95, 96, 97, 98, 99, 100, 101, 102, 103, 104, 105, 106, 107, 108, 109, 110, 111, 112, 113, 114, 115, 116, 117, 118, 119, 120, 121, 122, 123, 124, 125, 126, 127, 128, 129, 130, 131, 132, 133, 134, 135, 136, 137, 138, 139, 140, 141, 142, 143, 144, 145, 146, 147, 148, 149, 150, 151, 152, 153, 154, 155, 156, 157, 158, 159, 160, 161, 162, 163, 164, 165, 166, 167, 168, 169, 170, 171, 172, 173, 174, 175, 176, 177, 178, 179, 180, 181, 182, 183, 184, 185, 186, 187, 188, 189, 190, 191, 192, 193, 194, 195, 196, 197, 198, 199, 200, 201, 202, 203, 204, 205, 206, 207, 208, 209, 210, 211, 212, 213, 214, 215, 216, 217, 218, 219, 220, 221, 222, 223, 224, 225, 226, 227, 228, 229, 230, 231, 232, 233, 234, 235, 236, 237, 238, 239, 240, 241, 242, 243, 244, 245, 246, 247, 248, 249, 250, 251, 252, 253, 254, 255, 256, 257, 258, 259, 260, 261, 262, 263, 264, 265, 266, 267, 268, 269, 270, 271, 272, 273, 274, 275, 276, 277, 278, 279, 280, 281, 282, 283, 284, 285, 286, 287, 288, 289, 290, 291, 292, 293, 294, 295, 296, 297, 298, 299, 300, 301, 302, 303, 304, 305, 306, 307, 308, 309, 310, 311, 312, 313, 314, 315, 316, 317, 318, 319, 320, 321, 322, 323, 324, 325, 326, 327, 328, 329, 330, 331, 332, 333, 334, 335, 336, 337, 338, 339, 340, 341, 342, 343, 344, 345, 346, 347, 348, 349, 350, 351, 352, 353, 354, 355, 356, 357, 358, 359, 360, 361, 362, 363, 364, 365, 366, 367, 368, 369, 370, 371, 372, 373, 374, 375, 376, 377, 378, 379, 380, 381, 382, 383, 384, 385, 386, 387, 388, 389, 390, 391, 392, 393, 394, 395, 396, 397, 398, 399, 400, 401, 402, 403, 404, 405, 406, 407, 408, 409, 410, 411, 412, 413, 414, 415, 416, 417, 418, 419, 420, 421, 422, 423, 424, 425, 426, 427, 428, 429, 430, 431, 432, 433, 434],
      "AcquisitionTime": ["142632.180000", "142633.670000", "142635.160000", "142636.650000", "142638.140000", "142639.630000", "142641.120000", "142642.610000", "142644.100000", "142645.590000", "142647.080000", "142648.570000", "142650.060000", "142651.550000", "142653.040000", "142654.530000", "142656.020000", "142657.510000", "142659.000000", "142700.490000", "142701.980000", "142703.470000", "142704.960000", "142706.450000", "142707.940000", "142709.430000", "142710.920000", "142712.410000", "142713.900000", "142715.390000", "142716.880000", "142718.370000", "142719.860000", "142721.350000", "142722.840000", "142724.330000", "142725.820000", "142727.310000", "142728.800000", "142730.290000", "142731.780000", "142733.270000", "142734.760000", "142736.250000", "142737.740000", "142739.230000", "142740.720000", "142742.210000", "142743.700000", "142745.190000", "142746.680000", "142748.170000", "142749.660000", "142751.150000", "142752.640000", "142754.130000", "142755.620000", "142757.110000", "142758.600000", "142800.090000", "142801.580000", "142803.070000", "142804.560000", "142806.050000", "142807.540000", "142809.030000", "142810.520000", "142812.010000", "142813.500000", "142814.990000", "142816.480000", "142817.970000", "142819.460000", "142820.950000", "142822.440000", "142823.930000", "142825.420000", "142826.910000", "142828.400000", "142829.890000", "142831.380000", "142832.870000", "142834.360000", "142835.850000", "142837.340000", "142838.830000", "142840.320000", "142841.810000", "142843.300000", "142844.790000", "142846.280000", "142847.770000", "142849.260000", "142850.750000", "142852.240000", "142853.730000", "142855.220000", "142856.710000", "142858.200000", "142859.690000", "142901.180000", "142902.670000", "142904.160000", "142905.650000", "142907.140000", "142908.630000", "142910.120000", "142911.610000", "142913.100000", "142914.590000", "142916.080000", "142917.570000", "142919.060000", "142920.550000", "142922.040000", "142923.530000", "142925.020000", "142926.510000", "142928.000000", "142929.490000", "142930.980000", "142932.470000", "142933.960000", "142935.450000", "142936.940000", "142938.430000", "142939.920000", "142941.410000", "142942.900000", "142944.390000", "142945.880000", "142947.370000", "142948.860000", "142950.350000", "142951.840000", "142953.330000", "142954.820000", "142956.310000", "142957.800000", "142959.290000", "143000.780000", "143002.270000", "143003.760000", "143005.250000", "143006.740000", "143008.230000", "143009.720000", "143011.210000", "143012.700000", "143014.190000", "143015.680000", "143017.170000", "143018.660000", "143020.150000", "143021.640000", "143023.130000", "143024.620000", "143026.110000", "143027.600000", "143029.090000", "143030.580000", "143032.070000", "143033.560000", "143035.050000", "143036.540000", "143038.030000", "143039.520000", "143041.010000", "143042.500000", "143043.990000", "143045.480000", "143046.970000", "143048.460000", "143049.950000", "143051.440000", "143052.930000", "143054.420000", "143055.910000", "143057.400000", "143058.890000", "143100.380000", "143101.870000", "143103.360000", "143104.850000", "143106.340000", "143107.830000", "143109.320000", "143110.810000", "143112.300000", "143113.790000", "143115.280000", "143116.770000", "143118.260000", "143119.750000", "143121.240000", "143122.730000", "143124.220000", "143125.710000", "143127.200000", "143128.690000", "143130.180000", "143131.670000", "143133.160000", "143134.650000", "143136.140000", "143137.630000", "143139.120000", "143140.610000", "143142.100000", "143143.590000", "143145.080000", "143146.570000", "143148.060000", "143149.550000", "143151.040000", "143152.530000", "143154.020000", "143155.510000", "143157.000000", "143158.490000", "143159.980000", "143201.470000", "143202.960000", "143204.450000", "143205.940000", "143207.430000", "143208.920000", "143210.410000", "143211.900000", "143213.390000", "143214.880000", "143216.370000", "143217.860000", "143219.350000", "143220.840000", "143222.330000", "143223.820000", "143225.310000", "143226.800000", "143228.290000", "143229.780000", "143231.270000", "143232.760000", "143234.250000", "143235.740000", "143237.230000", "143238.720000", "143240.210000", "143241.700000", "143243.190000", "143244.680000", "143246.170000", "143247.660000", "143249.150000", "143250.640000", "143252.130000", "143253.620000", "143255.110000", "143256.600000", "143258.090000", "143259.580000", "143301.070000", "143302.560000", "143304.050000", "143305.540000", "143307.030000", "143308.520000", "143310.010000", "143311.500000", "143312.990000", "143314.480000", "143315.970000", "143317.460000", "143318.950000", "143320.440000", "143321.930000", "143323.420000", "143324.910000", "143326.400000", "143327.890000", "143329.380000", "143330.870000", "143332.360000", "143333.850000", "143335.340000", "143336.830000", "143338.320000", "143339.810000", "143341.300000", "143342.790000", "143344.280000", "143345.770000", "143347.260000", "143348.750000", "143350.240000", "143351.730000", "143353.220000", "143354.710000", "143356.200000", "143357.690000", "143359.180000", "143400.670000", "143402.160000", "143403.650000", "143405.140000", "143406.630000", "143408.120000", "143409.610000", "143411.100000", "143412.590000", "143414.080000", "143415.570000", "143417.060000", "143418.550000", "143420.040000", "143421.530000", "143423.020000", "143424.510000", "143426.000000", "143427.490000", "143428.980000", "143430.470000", "143431.960000", "143433.450000", "143434.940000", "143436.430000", "143437.920000", "143439.410000", "143440.900000", "143442.390000", "143443.880000", "143445.370000", "143446.860000", "143448.350000", "143449.840000", "143451.330000", "143452.820000", "143454.310000", "143455.800000", "143457.290000", "143458.780000", "143500.270000", "143501.760000", "143503.250000", "143504.740000", "143506.230000", "143507.720000", "143509.210000", "143510.700000", "143512.190000", "143513.680000", "143515.170000", "143516.660000", "143518.150000", "143519.640000", "143521.130000", "143522.620000", "143524.110000", "143525.600000", "143527.090000", "143528.580000", "143530.070000", "143531.560000", "143533.050000", "143534.540000", "143536.030000", "143537.520000", "143539.010000", "143540.500000", "143541.990000", "143543.480000", "143544.970000", "143546.460000", "143547.950000", "143549.440000", "143550.930000", "143552.420000", "143553.910000", "143555.400000", "143556.890000", "143558.380000", "143559.870000", "143601.360000", "143602.850000", "143604.340000", "143605.830000", "143607.320000", "143608.810000", "143610.300000", "143611.790000", "143613.280000", "143614.770000", "143616.260000", "143617.750000", "143619.240000", "143620.730000", "143622.220000", "143623.710000", "143625.200000", "143626.690000", "143628.180000", "143629.670000", "143631.160000", "143632.650000", "143634.140000", "143635.630000", "143637.120000", "143638.610000", "143640.100000", "143641.590000", "143643.080000", "143644.570000", "143646.060000", "143647.550000", "143649.040000", "143650.530000", "143652.020000", "143653.510000", "143655.000000", "143656.490000", "143657.980000", "143659.470000", "143700.960000", "143702.450000", "143703.940000", "143705.430000", "143706.920000", "143708.410000", "143709.900000", "143711.390000", "143712.880000", "143714.370000", "143715.860000", "143717.350000"],
      "ContentTime": ["142740.627000", "142740.629000", "142740.632000", "142740.634000", "142740.637000", "142740.639000", "142740.642000", "142740.644000", "142740.647000", "142740.649000", "142740.652000", "142740.654000", "142740.657000", "142740.665000", "142740.668000", "142800.619000", "142800.622000", "142800.624000", "142800.627000", "142800.629000", "142800.631000", "142800.634000", "142800.636000", "142800.639000", "142800.641000", "142800.644000", "142800.646000", "142800.649000", "142800.651000", "142800.654000", "142800.656000", "142800.659000", "142800.661000", "142800.664000", "142800.666000", "142820.612000", "142820.614000", "142820.617000", "142820.619000", "142820.622000", "142820.624000", "142820.627000", "142820.629000", "142820.632000", "142820.634000", "142820.636000", "142820.639000", "142820.642000", "142820.644000", "142820.647000", "142820.649000", "142820.652000", "142820.654000", "142820.662000", "142820.664000", "142840.617000", "142840.620000", "142840.622000", "142840.625000", "142840.627000", "142840.630000", "142840.632000", "142840.635000", "142840.637000", "142840.640000", "142840.642000", "142840.645000", "142840.647000", "142840.650000", "142840.652000", "142840.655000", "142840.657000", "142840.660000", "142840.662000", "142840.665000", "142900.610000", "142900.612000", "142900.615000", "142900.618000", "142900.620000", "142900.622000", "142900.625000", "142900.627000", "142900.630000", "142900.632000", "142900.635000", "142900.637000", "142900.640000", "142900.642000", "142900.645000", "142900.647000", "142900.649000", "142900.652000", "142900.654000", "142900.657000", "142900.659000", "142940.681000", "142940.683000", "142940.686000", "142940.688000", "142940.691000", "142940.693000", "142940.696000", "142940.698000", "142940.701000", "142940.704000", "142940.706000", "142940.708000", "142940.711000", "142940.713000", "142940.716000", "142940.718000", "142940.721000", "142940.723000", "142940.726000", "142940.728000", "142940.731000", "142940.733000", "142940.736000", "142940.738000", "142940.741000", "142940.743000", "142940.746000", "142940.758000", "142940.761000", "143020.656000", "143020.659000", "143020.661000", "143020.664000", "143020.667000", "143020.669000", "143020.671000", "143020.674000", "143020.676000", "143020.679000", "143020.681000", "143020.684000", "143020.686000", "143020.689000", "143020.691000", "143020.694000", "143020.696000", "143020.698000", "143020.701000", "143020.703000", "143020.706000", "143020.708000", "143020.711000", "143020.714000", "143020.716000", "143020.719000", "143020.721000", "143100.640000", "143100.642000", "143100.645000", "143100.647000", "143100.650000", "143100.652000", "143100.655000", "143100.657000", "143100.660000", "143100.662000", "143100.665000", "143100.667000", "143100.670000", "143100.672000", "143100.675000", "143100.677000", "143100.680000", "143100.682000", "143100.685000", "143100.687000", "143100.690000", "143100.692000", "143100.695000", "143100.697000", "143100.700000", "143100.702000", "143100.705000", "143140.658000", "143140.661000", "143140.663000", "143140.666000", "143140.668000", "143140.671000", "143140.673000", "143140.676000", "143140.679000", "143140.681000", "143140.684000", "143140.686000", "143140.689000", "143140.691000", "143140.694000", "143140.696000", "143140.699000", "143140.702000", "143140.704000", "143140.707000", "143140.709000", "143140.712000", "143140.714000", "143140.717000", "143140.719000", "143140.722000", "143140.724000", "143220.639000", "143220.642000", "143220.645000", "143220.647000", "143220.650000", "143220.653000", "143220.656000", "143220.658000", "143220.661000", "143220.663000", "143220.666000", "143220.668000", "143220.671000", "143220.673000", "143220.676000", "143220.678000", "143220.681000", "143220.684000", "143220.686000", "143220.689000", "143220.691000", "143220.694000", "143220.696000", "143220.698000", "143220.701000", "143220.703000", "143220.706000", "143301.069000", "143301.071000", "143301.074000", "143301.076000", "143301.079000", "143301.081000", "143301.084000", "143301.086000", "143301.089000", "143301.091000", "143301.094000", "143301.096000", "143301.099000", "143301.101000", "143301.104000", "143301.106000", "143301.109000", "143301.111000", "143301.114000", "143301.116000", "143301.119000", "143301.121000", "143301.124000", "143301.126000", "143301.129000", "143301.131000", "143301.134000", "143340.654000", "143340.657000", "143340.659000", "143340.662000", "143340.664000", "143340.667000", "143340.670000", "143340.672000", "143340.674000", "143340.677000", "143340.679000", "143340.682000", "143340.684000", "143340.687000", "143340.689000", "143340.692000", "143340.694000", "143340.697000", "143340.699000", "143340.702000", "143340.704000", "143340.707000", "143340.709000", "143340.712000", "143340.714000", "143340.717000", "143340.719000", "143420.650000", "143420.653000", "143420.656000", "143420.658000", "143420.661000", "143420.663000", "143420.666000", "143420.668000", "143420.671000", "143420.675000", "143420.679000", "143420.682000", "143420.685000", "143420.687000", "143420.690000", "143420.693000", "143420.696000", "143420.698000", "143420.701000", "143420.703000", "143420.706000", "143420.708000", "143420.711000", "143420.713000", "143420.716000", "143420.718000", "143500.648000", "143500.651000", "143500.654000", "143500.656000", "143500.659000", "143500.661000", "143500.664000", "143500.666000", "143500.669000", "143500.671000", "143500.674000", "143500.676000", "143500.679000", "143500.681000", "143500.684000", "143500.686000", "143500.688000", "143500.691000", "143500.693000", "143500.696000", "143500.698000", "143500.701000", "143500.703000", "143500.706000", "143500.708000", "143500.711000", "143500.713000", "143540.651000", "143540.653000", "143540.656000", "143540.659000", "143540.661000", "143540.664000", "143540.666000", "143540.669000", "143540.671000", "143540.674000", "143540.676000", "143540.679000", "143540.681000", "143540.684000", "143540.686000", "143540.689000", "143540.691000", "143540.694000", "143540.696000", "143540.703000", "143540.706000", "143540.708000", "143540.711000", "143540.714000", "143540.716000", "143540.719000", "143540.721000", "143620.648000", "143620.650000", "143620.653000", "143620.655000", "143620.658000", "143620.660000", "143620.663000", "143620.665000", "143620.668000", "143620.670000", "143620.673000", "143620.675000", "143620.678000", "143620.680000", "143620.683000", "143620.685000", "143620.688000", "143620.690000", "143620.693000", "143620.695000", "143620.698000", "143620.701000", "143620.703000", "143620.706000", "143620.708000", "143620.711000", "143620.713000", "143700.648000", "143700.651000", "143700.654000", "143700.656000", "143700.659000", "143700.661000", "143700.664000", "143700.666000", "143700.669000", "143700.671000", "143700.674000", "143700.676000", "143700.679000", "143700.681000", "143700.684000", "143700.686000", "143700.689000", "143700.691000", "143700.694000", "143700.696000", "143700.699000", "143700.701000", "143700.704000", "143700.706000", "143700.709000", "143700.711000", "143700.714000", "143720.768000", "143720.771000", "143720.773000", "143720.782000", "143720.785000", "143720.787000", "143720.790000", "143720.792000", "143720.795000", "143720.797000", "143720.800000", "143720.802000", "143720.805000"],
      "InstanceCreationTime": ["142740.627000", "142740.629000", "142740.632000", "142740.634000", "142740.637000", "142740.639000", "142740.642000", "142740.644000", "142740.647000", "142740.649000", "142740.652000", "142740.654000", "142740.657000", "142740.665000", "142740.668000", "142800.619000", "142800.622000", "142800.624000", "142800.627000", "142800.629000", "142800.631000", "142800.634000", "142800.636000", "142800.639000", "142800.641000", "142800.644000", "142800.646000", "142800.649000", "142800.651000", "142800.654000", "142800.656000", "142800.659000", "142800.661000", "142800.664000", "142800.666000", "142820.612000", "142820.614000", "142820.617000", "142820.619000", "142820.622000", "142820.624000", "142820.627000", "142820.629000", "142820.632000", "142820.634000", "142820.636000", "142820.639000", "142820.642000", "142820.644000", "142820.647000", "142820.649000", "142820.652000", "142820.654000", "142820.662000", "142820.664000", "142840.617000", "142840.620000", "142840.622000", "142840.625000", "142840.627000", "142840.630000", "142840.632000", "142840.635000", "142840.637000", "142840.640000", "142840.642000", "142840.645000", "142840.647000", "142840.650000", "142840.652000", "142840.655000", "142840.657000", "142840.660000", "142840.662000", "142840.665000", "142900.610000", "142900.612000", "142900.615000", "142900.618000", "142900.620000", "142900.622000", "142900.625000", "142900.627000", "142900.630000", "142900.632000", "142900.635000", "142900.637000", "142900.640000", "142900.642000", "142900.645000", "142900.647000", "142900.649000", "142900.652000", "142900.654000", "142900.657000", "142900.659000", "142940.681000", "142940.683000", "142940.686000", "142940.688000", "142940.691000", "142940.693000", "142940.696000", "142940.698000", "142940.701000", "142940.704000", "142940.706000", "142940.708000", "142940.711000", "142940.713000", "142940.716000", "142940.718000", "142940.721000", "142940.723000", "142940.726000", "142940.728000", "142940.731000", "142940.733000", "142940.736000", "142940.738000", "142940.741000", "142940.743000", "142940.746000", "142940.758000", "142940.761000", "143020.656000", "143020.659000", "143020.661000", "143020.664000", "143020.667000", "143020.669000", "143020.671000", "143020.674000", "143020.676000", "143020.679000", "143020.681000", "143020.684000", "143020.686000", "143020.689000", "143020.691000", "143020.694000", "143020.696000", "143020.698000", "143020.701000", "143020.703000", "143020.706000", "143020.708000", "143020.711000", "143020.714000", "143020.716000", "143020.719000", "143020.721000", "143100.640000", "143100.642000", "143100.645000", "143100.647000", "143100.650000", "143100.652000", "143100.655000", "143100.657000", "143100.660000", "143100.662000", "143100.665000", "143100.667000", "143100.670000", "143100.672000", "143100.675000", "143100.677000", "143100.680000", "143100.682000", "143100.685000", "143100.687000", "143100.690000", "143100.692000", "143100.695000", "143100.697000", "143100.700000", "143100.702000", "143100.705000", "143140.658000", "143140.661000", "143140.663000", "143140.666000", "143140.668000", "143140.671000", "143140.673000", "143140.676000", "143140.679000", "143140.681000", "143140.684000", "143140.686000", "143140.689000", "143140.691000", "143140.694000", "143140.696000", "143140.699000", "143140.702000", "143140.704000", "143140.707000", "143140.709000", "143140.712000", "143140.714000", "143140.717000", "143140.719000", "143140.722000", "143140.724000", "143220.639000", "143220.642000", "143220.645000", "143220.647000", "143220.650000", "143220.653000", "143220.656000", "143220.658000", "143220.661000", "143220.663000", "143220.666000", "143220.668000", "143220.671000", "143220.673000", "143220.676000", "143220.678000", "143220.681000", "143220.684000", "143220.686000", "143220.689000", "143220.691000", "143220.694000", "143220.696000", "143220.698000", "143220.701000", "143220.703000", "143220.706000", "143301.069000", "143301.071000", "143301.074000", "143301.076000", "143301.079000", "143301.081000", "143301.084000", "143301.086000", "143301.089000", "143301.091000", "143301.094000", "143301.096000", "143301.099000", "143301.101000", "143301.104000", "143301.106000", "143301.109000", "143301.111000", "143301.114000", "143301.116000", "143301.119000", "143301.121000", "143301.124000", "143301.126000", "143301.129000", "143301.131000", "143301.134000", "143340.654000", "143340.657000", "143340.659000", "143340.662000", "143340.664000", "143340.667000", "143340.670000", "143340.672000", "143340.674000", "143340.677000", "143340.679000", "143340.682000", "143340.684000", "143340.687000", "143340.689000", "143340.692000", "143340.694000", "143340.697000", "143340.699000", "143340.702000", "143340.704000", "143340.707000", "143340.709000", "143340.712000", "143340.714000", "143340.717000", "143340.719000", "143420.650000", "143420.653000", "143420.656000", "143420.658000", "143420.661000", "143420.663000", "143420.666000", "143420.668000", "143420.671000", "143420.675000", "143420.679000", "143420.682000", "143420.685000", "143420.687000", "143420.690000", "143420.693000", "143420.696000", "143420.698000", "143420.701000", "143420.703000", "143420.706000", "143420.708000", "143420.711000", "143420.713000", "143420.716000", "143420.718000", "143500.648000", "143500.651000", "143500.654000", "143500.656000", "143500.659000", "143500.661000", "143500.664000", "143500.666000", "143500.669000", "143500.671000", "143500.674000", "143500.676000", "143500.679000", "143500.681000", "143500.684000", "143500.686000", "143500.688000", "143500.691000", "143500.693000", "143500.696000", "143500.698000", "143500.701000", "143500.703000", "143500.706000", "143500.708000", "143500.711000", "143500.713000", "143540.651000", "143540.653000", "143540.656000", "143540.659000", "143540.661000", "143540.664000", "143540.666000", "143540.669000", "143540.671000", "143540.674000", "143540.676000", "143540.679000", "143540.681000", "143540.684000", "143540.686000", "143540.689000", "143540.691000", "143540.694000", "143540.696000", "143540.703000", "143540.706000", "143540.708000", "143540.711000", "143540.714000", "143540.716000", "143540.719000", "143540.721000", "143620.648000", "143620.650000", "143620.653000", "143620.655000", "143620.658000", "143620.660000", "143620.663000", "143620.665000", "143620.668000", "143620.670000", "143620.673000", "143620.675000", "143620.678000", "143620.680000", "143620.683000", "143620.685000", "143620.688000", "143620.690000", "143620.693000", "143620.695000", "143620.698000", "143620.701000", "143620.703000", "143620.706000", "143620.708000", "143620.711000", "143620.713000", "143700.648000", "143700.651000", "143700.654000", "143700.656000", "143700.659000", "143700.661000", "143700.664000", "143700.666000", "143700.669000", "143700.671000", "143700.674000", "143700.676000", "143700.679000", "143700.681000", "143700.684000", "143700.686000", "143700.689000", "143700.691000", "143700.694000", "143700.696000", "143700.699000", "143700.701000", "143700.704000", "143700.706000", "143700.709000", "143700.711000", "143700.714000", "143720.768000", "143720.771000", "143720.773000", "143720.782000", "143720.785000", "143720.787000", "143720.790000", "143720.792000", "143720.795000", "143720.797000", "143720.800000", "143720.802000", "143720.805000"],
