{
  "AcquisitionMatrixPE": 104,
  "AcquisitionNumber": 1,
  "AcquisitionTime": "14:38:47.795000",
  "BandwidthPerPixelPhaseEncode": 17.17,
  "BaseResolution": 104,
  "BodyPartExamined": "BRAIN",
  "CoilString": "HC1-7;NC1_2",
  "ConsistencyInfo": "N4_VE11C_LATEST_20160120",
  "ConversionSoftware": "dcm2niix",
  "ConversionSoftwareVersion": "v1.0.20190902",
  "DerivedVendorReportedEchoSpacing": 0.000560011,
  "DeviceSerialNumber": "167006",
  "DwellTime": 2.1e-06,
  "EchoTime": 0.037,
  "EchoTrainLength": 104,
  "EffectiveEchoSpacing": 0.000560011,
  "FlipAngle": 52,
  "HeudiconvVersion": "0.10.0",
  "ImageComments": "Unaliased_MB4_PE3_LB",
  "ImageOrientationPatientDICOM": [0.999977, -0.00074992, -0.00673447, -0.00261792, 0.873932, -0.486042],
  "ImageType": [
    "ORIGINAL",
    "PRIMARY",
    "M",
    "MB",
    "ND",
    "MOSAIC"
],
  "ImagingFrequency": 123.259,
  "InPlanePhaseEncodingDirectionDICOM": "COL",
  "InstitutionAddress": "Chemin_Queen-Mary_4565_Montreal_District_CA_H3W_1W5",
  "InstitutionName": "IUGM",
  "InstitutionalDepartmentName": "Department",
  "MRAcquisitionType": "2D",
  "MagneticFieldStrength": 3,
  "Manufacturer": "Siemens",
  "ManufacturersModelName": "Prisma_fit",
  "Modality": "MR",
  "MultibandAccelerationFactor": 4,
  "PartialFourier": 1,
  "PatientPosition": "HFS",
  "PercentPhaseFOV": 100,
  "PhaseEncodingDirection": "j",
  "PhaseEncodingSteps": 104,
  "PhaseResolution": 1,
  "PixelBandwidth": 2290,
  "ProcedureStepDescription": "games_mario",
  "ProtocolName": "func_task-mario_run-03",
  "PulseSequenceDetails": "%CustomerSeq%_cmrr_mbep2d_bold",
  "ReceiveCoilActiveElements": "HC1-7;NC1,2",
  "ReceiveCoilName": "HeadNeck_64",
  "ReconMatrixPE": 104,
  "RepetitionTime": 1.49,
  "SAR": 0.0630188,
  "ScanOptions": "FS",
  "ScanningSequence": "EP",
  "SequenceName": "epfid2d1_104",
  "SequenceVariant": "SK_SS",
  "SeriesDescription": "func_task-mario_run-03",
  "SeriesNumber": 16,
  "ShimSetting": [615, -7182, -8863, 306, 18, -141, -18, -52],
  "SliceThickness": 2,
  "SliceTiming": [0, 0.7825, 0.0975, 0.8825, 0.195, 0.98, 0.2925, 1.0775, 0.3925, 1.175, 0.49, 1.2725, 0.5875, 1.3725, 0.685, 0, 0.7825, 0.0975, 0.8825, 0.195, 0.98, 0.2925, 1.0775, 0.3925, 1.175, 0.49, 1.2725, 0.5875, 1.3725, 0.685, 0, 0.7825, 0.0975, 0.8825, 0.195, 0.98, 0.2925, 1.0775, 0.3925, 1.175, 0.49, 1.2725, 0.5875, 1.3725, 0.685, 0, 0.7825, 0.0975, 0.8825, 0.195, 0.98, 0.2925, 1.0775, 0.3925, 1.175, 0.49, 1.2725, 0.5875, 1.3725, 0.685],
  "SoftwareVersions": "syngo_MR_E11",
  "SpacingBetweenSlices": 2,
  "StationName": "MRC35049",
  "TaskName": "mario",
  "TotalReadoutTime": 0.0576811,
  "TxRefAmp": 302.019,
  "WipMemBlock": "61105135-bad5-454e-96b2-655628a2cc53||Sequence: R016 ve11c/master r/e634e98; Dec 19 2017 11:00:25 by eja",
  "dcmmeta_affine": [
    [-1.999954104423523, -0.005235832184553146, -0.012499915435910225, 107.50385284423828],
    [0.001499839243479073, 1.7478631734848022, -0.9720967411994934, -54.38067626953125],
    [-0.013468938879668713, 0.9720838069915771, 1.7478190660476685, -91.83065032958984],
    [0.0, 0.0, 0.0, 1.0]
],
  "dcmmeta_reorient_transform": [
    [0.0, -1.0, 0.0, 103.0],
    [1.0, 0.0, 0.0, 0.0],
    [0.0, 0.0, 1.0, 0.0],
    [0.0, 0.0, 0.0, 1.0]
],
  "dcmmeta_shape": [104, 104, 60, 467],
  "dcmmeta_slice_dim": 2,
  "dcmmeta_version": 0.6,
  "global": {
    "const": {
      "AcquisitionMatrix": [104, 0, 0, 104],
      "AngioFlag": "N",
      "BitsAllocated": 16,
      "BitsStored": 16,
      "BodyPartExamined": "BRAIN",
      "Columns": 832,
      "EchoNumbers": 1,
      "EchoTime": 37.0,
      "EchoTrainLength": 104,
      "FlipAngle": 52.0,
      "HighBit": 15,
      "ImageOrientationPatient": [0.99997704200726, -0.0007499196079, -0.0067344694664, -0.0026179160424, 0.8739315835848, -0.4860419053215],
      "ImagePositionPatient": [-833.04200221632, -761.32548137335, 367.03518231839],
      "ImageType": [
        "ORIGINAL",
        "PRIMARY",
        "M",
        "MB",
        "ND",
        "MOSAIC"
],
      "ImagedNucleus": "1H",
      "ImagingFrequency": 123.258938,
      "InPlanePhaseEncodingDirection": "COL",
      "MRAcquisitionType": "2D",
      "MagneticFieldStrength": 3.0,
      "Manufacturer": "SIEMENS",
      "ManufacturerModelName": "Prisma_fit",
      "Modality": "MR",
      "NumberOfAverages": 1.0,
      "NumberOfPhaseEncodingSteps": 104,
      "PercentPhaseFieldOfView": 100.0,
      "PercentSampling": 100.0,
      "PerformedProcedureStepStartTime": "132550.183000",
      "PhotometricInterpretation": "MONOCHROME2",
      "PixelBandwidth": 2290.0,
      "PixelRepresentation": 0,
      "PixelSpacing": [2.0, 2.0],
      "ProtocolName": "func_task-mario_run-03",
      "RepetitionTime": 1490.0,
      "Rows": 832,
      "SAR": 0.06301876235425,
      "SamplesPerPixel": 1,
      "ScanOptions": "FS",
      "ScanningSequence": "EP",
      "SequenceName": "epfid2d1_104",
      "SequenceVariant": [
        "SK",
        "SS"
],
      "SeriesDescription": "func_task-mario_run-03",
      "SeriesNumber": 16,
      "SeriesTime": "144020.453000",
      "SliceLocation": -54.491938636249,
      "SliceThickness": 2.0,
      "SmallestImagePixelValue": 0,
      "SoftwareVersions": "syngo MR E11",
      "SpacingBetweenSlices": 1.9999999799625,
      "SpecificCharacterSet": "ISO_IR 100",
      "StudyID": "1",
      "StudyTime": "132550.051000",
      "TransmitCoilName": "Body",
      "VariableFlipAngleFlag": "N",
      "WindowCenterWidthExplanation": "Algo1",
      "dBdt": 0.0},
    "slices": {}
  },
  "time": {
    "samples": {
      "AcquisitionNumber": [1, 2, 3, 4, 5, 6, 7, 8, 9, 10, 11, 12, 13, 14, 15, 16, 17, 18, 19, 20, 21, 22, 23, 24, 25, 26, 27, 28, 29, 30, 31, 32, 33, 34, 35, 36, 37, 38, 39, 40, 41, 42, 43, 44, 45, 46, 47, 48, 49, 50, 51, 52, 53, 54, 55, 56, 57, 58, 59, 60, 61, 62, 63, 64, 65, 66, 67, 68, 69, 70, 71, 72, 73, 74, 75, 76, 77, 78, 79, 80, 81, 82, 83, 84, 85, 86, 87, 88, 89, 90, 91, 92, 93, 94, 95, 96, 97, 98, 99, 100, 101, 102, 103, 104, 105, 106, 107, 108, 109, 110, 111, 112, 113, 114, 115, 116, 117, 118, 119, 120, 121, 122, 123, 124, 125, 126, 127, 128, 129, 130, 131, 132, 133, 134, 135, 136, 137, 138, 139, 140, 141, 142, 143, 144, 145, 146, 147, 148, 149, 150, 151, 152, 153, 154, 155, 156, 157, 158, 159, 160, 161, 162, 163, 164, 165, 166, 167, 168, 169, 170, 171, 172, 173, 174, 175, 176, 177, 178, 179, 180, 181, 182, 183, 184, 185, 186, 187, 188, 189, 190, 191, 192, 193, 194, 195, 196, 197, 198, 199, 200, 201, 202, 203, 204, 205, 206, 207, 208, 209, 210, 211, 212, 213, 214, 215, 216, 217, 218, 219, 220, 221, 222, 223, 224, 225, 226, 227, 228, 229, 230, 231, 232, 233, 234, 235, 236, 237, 238, 239, 240, 241, 242, 243, 244, 245, 246, 247, 248, 249, 250, 251, 252, 253, 254, 255, 256, 257, 258, 259, 260, 261, 262, 263, 264, 265, 266, 267, 268, 269, 270, 271, 272, 273, 274, 275, 276, 277, 278, 279, 280, 281, 282, 283, 284, 285, 286, 287, 288, 289, 290, 291, 292, 293, 294, 295, 296, 297, 298, 299, 300, 301, 302, 303, 304, 305, 306, 307, 308, 309, 310, 311, 312, 313, 314, 315, 316, 317, 318, 319, 320, 321, 322, 323, 324, 325, 326, 327, 328, 329, 330, 331, 332, 333, 334, 335, 336, 337, 338, 339, 340, 341, 342, 343, 344, 345, 346, 347, 348, 349, 350, 351, 352, 353, 354, 355, 356, 357, 358, 359, 360, 361, 362, 363, 364, 365, 366, 367, 368, 369, 370, 371, 372, 373, 374, 375, 376, 377, 378, 379, 380, 381, 382, 383, 384, 385, 386, 387, 388, 389, 390, 391, 392, 393, 394, 395, 396, 397, 398, 399, 400, 401, 402, 403, 404, 405, 406, 407, 408, 409, 410, 411, 412, 413, 414, 415, 416, 417, 418, 419, 420, 421, 422, 423, 424, 425, 426, 427, 428, 429, 430, 431, 432, 433, 434, 435, 436, 437, 438, 439, 440, 441, 442, 443, 444, 445, 446, 447, 448, 449, 450, 451, 452, 453, 454, 455, 456, 457, 458, 459, 460, 461, 462, 463, 464, 465, 466, 467],
      "AcquisitionTime": ["143847.795000", "143849.285000", "143850.775000", "143852.265000", "143853.755000", "143855.245000", "143856.735000", "143858.225000", "143859.715000", "143901.205000", "143902.695000", "143904.185000", "143905.675000", "143907.165000", "143908.655000", "143910.145000", "143911.635000", "143913.125000", "143914.615000", "143916.105000", "143917.595000", "143919.085000", "143920.575000", "143922.065000", "143923.555000", "143925.045000", "143926.535000", "143928.025000", "143929.515000", "143931.005000", "143932.495000", "143933.985000", "143935.475000", "143936.965000", "143938.455000", "143939.945000", "143941.435000", "143942.925000", "143944.415000", "143945.905000", "143947.395000", "143948.885000", "143950.375000", "143951.865000", "143953.355000", "143954.845000", "143956.335000", "143957.825000", "143959.315000", "144000.805000", "144002.295000", "144003.785000", "144005.275000", "144006.765000", "144008.255000", "144009.745000", "144011.235000", "144012.725000", "144014.215000", "144015.705000", "144017.195000", "144018.685000", "144020.175000", "144021.665000", "144023.155000", "144024.645000", "144026.135000", "144027.625000", "144029.115000", "144030.605000", "144032.095000", "144033.585000", "144035.075000", "144036.565000", "144038.055000", "144039.545000", "144041.035000", "144042.525000", "144044.015000", "144045.505000", "144046.995000", "144048.485000", "144049.975000", "144051.465000", "144052.955000", "144054.445000", "144055.935000", "144057.425000", "144058.915000", "144100.405000", "144101.895000", "144103.385000", "144104.875000", "144106.365000", "144107.855000", "144109.345000", "144110.835000", "144112.325000", "144113.815000", "144115.305000", "144116.795000", "144118.285000", "144119.775000", "144121.265000", "144122.755000", "144124.245000", "144125.735000", "144127.225000", "144128.715000", "144130.205000", "144131.695000", "144133.185000", "144134.675000", "144136.165000", "144137.655000", "144139.145000", "144140.635000", "144142.125000", "144143.615000", "144145.105000", "144146.595000", "144148.085000", "144149.575000", "144151.065000", "144152.555000", "144154.045000", "144155.535000", "144157.025000", "144158.515000", "144200.005000", "144201.495000", "144202.985000", "144204.475000", "144205.965000", "144207.455000", "144208.945000", "144210.435000", "144211.925000", "144213.415000", "144214.905000", "144216.395000", "144217.885000", "144219.375000", "144220.865000", "144222.355000", "144223.845000", "144225.335000", "144226.825000", "144228.315000", "144229.805000", "144231.295000", "144232.785000", "144234.275000", "144235.765000", "144237.255000", "144238.745000", "144240.235000", "144241.725000", "144243.215000", "144244.705000", "144246.195000", "144247.685000", "144249.175000", "144250.665000", "144252.155000", "144253.645000", "144255.135000", "144256.625000", "144258.115000", "144259.605000", "144301.095000", "144302.585000", "144304.075000", "144305.565000", "144307.055000", "144308.545000", "144310.035000", "144311.525000", "144313.015000", "144314.505000", "144315.995000", "144317.485000", "144318.975000", "144320.465000", "144321.955000", "144323.445000", "144324.935000", "144326.425000", "144327.915000", "144329.405000", "144330.895000", "144332.385000", "144333.875000", "144335.365000", "144336.855000", "144338.345000", "144339.835000", "144341.325000", "144342.815000", "144344.305000", "144345.795000", "144347.285000", "144348.775000", "144350.265000", "144351.755000", "144353.245000", "144354.735000", "144356.225000", "144357.715000", "144359.205000", "144400.695000", "144402.185000", "144403.675000", "144405.165000", "144406.655000", "144408.145000", "144409.635000", "144411.125000", "144412.615000", "144414.105000", "144415.595000", "144417.085000", "144418.575000", "144420.065000", "144421.555000", "144423.045000", "144424.535000", "144426.025000", "144427.515000", "144429.005000", "144430.495000", "144431.985000", "144433.475000", "144434.965000", "144436.455000", "144437.945000", "144439.435000", "144440.925000", "144442.415000", "144443.905000", "144445.395000", "144446.885000", "144448.375000", "144449.865000", "144451.355000", "144452.845000", "144454.335000", "144455.825000", "144457.315000", "144458.805000", "144500.295000", "144501.785000", "144503.275000", "144504.765000", "144506.255000", "144507.745000", "144509.235000", "144510.725000", "144512.215000", "144513.705000", "144515.195000", "144516.685000", "144518.175000", "144519.665000", "144521.155000", "144522.645000", "144524.135000", "144525.625000", "144527.115000", "144528.605000", "144530.095000", "144531.585000", "144533.075000", "144534.565000", "144536.055000", "144537.545000", "144539.035000", "144540.525000", "144542.015000", "144543.505000", "144544.995000", "144546.485000", "144547.975000", "144549.465000", "144550.955000", "144552.445000", "144553.935000", "144555.425000", "144556.915000", "144558.405000", "144559.895000", "144601.385000", "144602.875000", "144604.365000", "144605.855000", "144607.345000", "144608.835000", "144610.325000", "144611.815000", "144613.305000", "144614.795000", "144616.285000", "144617.775000", "144619.265000", "144620.755000", "144622.245000", "144623.735000", "144625.225000", "144626.715000", "144628.205000", "144629.695000", "144631.185000", "144632.675000", "144634.165000", "144635.655000", "144637.145000", "144638.635000", "144640.125000", "144641.615000", "144643.105000", "144644.595000", "144646.085000", "144647.575000", "144649.065000", "144650.555000", "144652.045000", "144653.535000", "144655.025000", "144656.515000", "144658.005000", "144659.495000", "144700.985000", "144702.475000", "144703.965000", "144705.455000", "144706.945000", "144708.435000", "144709.925000", "144711.415000", "144712.905000", "144714.395000", "144715.885000", "144717.375000", "144718.865000", "144720.355000", "144721.845000", "144723.335000", "144724.825000", "144726.315000", "144727.805000", "144729.295000", "144730.785000", "144732.275000", "144733.765000", "144735.255000", "144736.745000", "144738.235000", "144739.725000", "144741.215000", "144742.705000", "144744.195000", "144745.685000", "144747.175000", "144748.665000", "144750.155000", "144751.645000", "144753.135000", "144754.625000", "144756.115000", "144757.605000", "144759.095000", "144800.585000", "144802.075000", "144803.565000", "144805.055000", "144806.545000", "144808.035000", "144809.525000", "144811.015000", "144812.505000", "144813.995000", "144815.485000", "144816.975000", "144818.465000", "144819.955000", "144821.445000", "144822.935000", "144824.425000", "144825.915000", "144827.405000", "144828.895000", "144830.385000", "144831.875000", "144833.365000", "144834.855000", "144836.345000", "144837.835000", "144839.325000", "144840.815000", "144842.305000", "144843.795000", "144845.285000", "144846.775000", "144848.265000", "144849.755000", "144851.245000", "144852.735000", "144854.225000", "144855.715000", "144857.205000", "144858.695000", "144900.185000", "144901.675000", "144903.165000", "144904.655000", "144906.145000", "144907.635000", "144909.125000", "144910.615000", "144912.105000", "144913.595000", "144915.085000", "144916.575000", "144918.065000", "144919.555000", "144921.045000", "144922.535000", "144924.025000", "144925.515000", "144927.005000", "144928.495000", "144929.985000", "144931.475000", "144932.965000", "144934.455000", "144935.945000", "144937.435000", "144938.925000", "144940.415000", "144941.905000", "144943.395000", "144944.885000", "144946.375000", "144947.865000", "144949.355000", "144950.845000", "144952.335000", "144953.825000", "144955.315000", "144956.805000", "144958.295000", "144959.785000", "145001.275000", "145002.765000", "145004.255000", "145005.745000", "145007.235000", "145008.725000", "145010.215000", "145011.705000", "145013.195000", "145014.685000", "145016.175000", "145017.665000", "145019.155000", "145020.645000", "145022.135000"],
      "ContentTime": ["144020.456000", "144020.460000", "144020.464000", "144020.467000", "144020.470000", "144020.473000", "144020.477000", "144020.480000", "144020.483000", "144020.487000", "144020.490000", "144020.493000", "144020.496000", "144020.500000", "144020.503000", "144020.506000", "144020.509000", "144020.513000", "144020.516000", "144020.519000", "144020.522000", "144020.532000", "144020.535000", "144020.539000", "144020.542000", "144020.545000", "144020.548000", "144020.552000", "144020.564000", "144020.568000", "144020.571000", "144020.575000", "144020.578000", "144020.581000", "144020.585000", "144020.588000", "144020.597000", "144020.600000", "144020.603000", "144020.607000", "144040.426000", "144040.430000", "144040.433000", "144040.437000", "144040.440000", "144040.443000", "144040.446000", "144040.450000", "144040.453000", "144040.456000", "144040.459000", "144040.463000", "144040.466000", "144040.469000", "144040.473000", "144040.476000", "144040.479000", "144040.482000", "144040.486000", "144040.489000", "144100.425000", "144100.429000", "144100.432000", "144100.435000", "144100.438000", "144100.442000", "144100.445000", "144100.448000", "144100.451000", "144100.456000", "144100.459000", "144100.462000", "144100.466000", "144100.469000", "144100.472000", "144100.475000", "144100.479000", "144100.482000", "144100.485000", "144100.488000", "144120.425000", "144120.429000", "144120.432000", "144120.435000", "144120.439000", "144120.442000", "144120.445000", "144120.448000", "144120.452000", "144120.455000", "144120.458000", "144120.461000", "144120.465000", "144120.468000", "144120.471000", "144120.474000", "144120.477000", "144120.481000", "144120.484000", "144120.487000", "144120.491000", "144200.426000", "144200.430000", "144200.433000", "144200.436000", "144200.440000", "144200.443000", "144200.446000", "144200.449000", "144200.453000", "144200.456000", "144200.459000", "144200.463000", "144200.466000", "144200.469000", "144200.472000", "144200.476000", "144200.479000", "144200.482000", "144200.485000", "144200.489000", "144200.492000", "144200.495000", "144200.498000", "144200.502000", "144200.505000", "144200.508000", "144200.512000", "144240.426000", "144240.448000", "144240.451000", "144240.455000", "144240.458000", "144240.461000", "144240.465000", "144240.468000", "144240.471000", "144240.474000", "144240.478000", "144240.481000", "144240.484000", "144240.488000", "144240.491000", "144240.494000", "144240.497000", "144240.501000", "144240.504000", "144240.507000", "144240.511000", "144240.514000", "144240.517000", "144240.520000", "144240.524000", "144240.527000", "144240.530000", "144320.425000", "144320.429000", "144320.432000", "144320.435000", "144320.439000", "144320.442000", "144320.445000", "144320.448000", "144320.452000", "144320.455000", "144320.458000", "144320.461000", "144320.465000", "144320.468000", "144320.471000", "144320.474000", "144320.478000", "144320.481000", "144320.484000", "144320.488000", "144320.491000", "144320.494000", "144320.497000", "144320.500000", "144320.504000", "144320.507000", "144320.510000", "144400.426000", "144400.430000", "144400.433000", "144400.436000", "144400.440000", "144400.443000", "144400.446000", "144400.450000", "144400.453000", "144400.456000", "144400.459000", "144400.462000", "144400.466000", "144400.469000", "144400.472000", "144400.476000", "144400.479000", "144400.482000", "144400.485000", "144400.489000", "144400.492000", "144400.495000", "144400.499000", "144400.502000", "144400.505000", "144400.508000", "144400.512000", "144440.426000", "144440.430000", "144440.433000", "144440.436000", "144440.440000", "144440.443000", "144440.446000", "144440.450000", "144440.453000", "144440.456000", "144440.459000", "144440.463000", "144440.466000", "144440.469000", "144440.473000", "144440.476000", "144440.479000", "144440.483000", "144440.486000", "144440.489000", "144440.506000", "144440.509000", "144440.513000", "144440.516000", "144440.519000", "144440.522000", "144440.525000", "144520.426000", "144520.430000", "144520.433000", "144520.436000", "144520.440000", "144520.443000", "144520.446000", "144520.449000", "144520.453000", "144520.456000", "144520.459000", "144520.463000", "144520.466000", "144520.469000", "144520.472000", "144520.476000", "144520.479000", "144520.482000", "144520.486000", "144520.489000", "144520.492000", "144520.496000", "144520.499000", "144520.503000", "144520.506000", "144520.509000", "144600.425000", "144600.429000", "144600.432000", "144600.436000", "144600.439000", "144600.442000", "144600.446000", "144600.449000", "144600.453000", "144600.456000", "144600.459000", "144600.463000", "144600.466000", "144600.469000", "144600.473000", "144600.476000", "144600.479000", "144600.483000", "144600.486000", "144600.489000", "144600.492000", "144600.496000", "144600.499000", "144600.502000", "144600.506000", "144600.509000", "144600.512000", "144620.426000", "144620.430000", "144620.433000", "144620.437000", "144620.440000", "144620.443000", "144620.446000", "144620.450000", "144620.453000", "144620.456000", "144620.460000", "144620.463000", "144620.466000", "144620.469000", "144700.426000", "144700.430000", "144700.433000", "144700.437000", "144700.440000", "144700.444000", "144700.447000", "144700.452000", "144700.455000", "144700.458000", "144700.462000", "144700.465000", "144700.468000", "144700.472000", "144700.475000", "144700.478000", "144700.482000", "144700.496000", "144700.499000", "144700.503000", "144700.506000", "144700.509000", "144700.512000", "144700.515000", "144700.519000", "144700.522000", "144740.426000", "144740.430000", "144740.433000", "144740.437000", "144740.440000", "144740.443000", "144740.447000", "144740.450000", "144740.453000", "144740.457000", "144740.460000", "144740.463000", "144740.466000", "144740.470000", "144740.473000", "144740.476000", "144740.480000", "144740.483000", "144740.486000", "144740.490000", "144740.493000", "144740.496000", "144740.503000", "144740.506000", "144740.510000", "144740.513000", "144740.516000", "144820.425000", "144820.429000", "144820.433000", "144820.438000", "144820.442000", "144820.446000", "144820.450000", "144820.456000", "144820.460000", "144820.464000", "144820.468000", "144820.471000", "144820.474000", "144820.478000", "144820.481000", "144820.484000", "144820.488000", "144820.491000", "144820.495000", "144820.499000", "144820.502000", "144820.506000", "144820.509000", "144820.513000", "144820.517000", "144820.520000", "144820.523000", "144900.426000", "144900.430000", "144900.433000", "144900.436000", "144900.440000", "144900.443000", "144900.446000", "144900.450000", "144900.453000", "144900.456000", "144900.460000", "144900.463000", "144900.466000", "144900.469000", "144900.473000", "144900.476000", "144900.479000", "144900.483000", "144900.486000", "144900.489000", "144900.493000", "144900.496000", "144900.499000", "144900.503000", "144900.506000", "144900.509000", "144900.513000", "144940.426000", "144940.430000", "144940.433000", "144940.436000", "144940.440000", "144940.443000", "144940.446000", "144940.450000", "144940.453000", "144940.456000", "144940.460000", "144940.463000", "144940.466000", "144940.470000", "144940.473000", "144940.476000", "144940.479000", "144940.483000", "144940.486000", "144940.489000", "144940.493000", "144940.496000", "144940.499000", "144940.503000", "144940.506000", "144940.509000", "144940.513000", "145020.425000", "145020.429000", "145020.432000", "145020.435000", "145020.439000", "145020.442000", "145020.445000", "145020.449000", "145020.452000", "145020.455000", "145020.458000", "145020.462000", "145020.465000", "145020.468000", "145020.472000", "145020.475000", "145020.478000", "145020.481000", "145020.485000", "145020.488000", "145020.491000", "145020.494000", "145020.498000", "145020.501000", "145020.504000", "145020.507000", "145020.511000", "145024.998000", "145025.001000", "145025.005000"],
