{
  "AcquisitionMatrixPE": 104,
  "AcquisitionNumber": 1,
  "AcquisitionTime": "14:51:32.282500",
  "BandwidthPerPixelPhaseEncode": 17.17,
  "BaseResolution": 104,
  "BodyPartExamined": "BRAIN",
  "CoilString": "HC1-7;NC1_2",
  "ConsistencyInfo": "N4_VE11C_LATEST_20160120",
  "ConversionSoftware": "dcm2niix",
  "ConversionSoftwareVersion": "v1.0.20190902",
  "DerivedVendorReportedEchoSpacing": 0.000560011,
  "DeviceSerialNumber": "167006",
  "DwellTime": 2.1e-06,
  "EchoTime": 0.037,
  "EchoTrainLength": 104,
  "EffectiveEchoSpacing": 0.000560011,
  "FlipAngle": 52,
  "HeudiconvVersion": "0.10.0",
  "ImageComments": "Unaliased_MB4_PE3_LB",
  "ImageOrientationPatientDICOM": [0.999977, -0.00074992, -0.00673447, -0.00261792, 0.873932, -0.486042],
  "ImageType": [
    "ORIGINAL",
    "PRIMARY",
    "P",
    "MB",
    "ND",
    "MOSAIC"
],
  "ImagingFrequency": 123.259,
  "InPlanePhaseEncodingDirectionDICOM": "COL",
  "InstitutionAddress": "Chemin_Queen-Mary_4565_Montreal_District_CA_H3W_1W5",
  "InstitutionName": "IUGM",
  "InstitutionalDepartmentName": "Department",
  "MRAcquisitionType": "2D",
  "MagneticFieldStrength": 3,
  "Manufacturer": "Siemens",
  "ManufacturersModelName": "Prisma_fit",
  "Modality": "MR",
  "MultibandAccelerationFactor": 4,
  "PartialFourier": 1,
  "PatientPosition": "HFS",
  "PercentPhaseFOV": 100,
  "PhaseEncodingDirection": "j",
  "PhaseEncodingSteps": 104,
  "PhaseResolution": 1,
  "PixelBandwidth": 2290,
  "ProcedureStepDescription": "games_mario",
  "ProtocolName": "func_task-mario_run-04",
  "PulseSequenceDetails": "%CustomerSeq%_cmrr_mbep2d_bold",
  "ReceiveCoilActiveElements": "HC1-7;NC1,2",
  "ReceiveCoilName": "HeadNeck_64",
  "ReconMatrixPE": 104,
  "RepetitionTime": 1.49,
  "SAR": 0.0630188,
  "ScanOptions": "FS",
  "ScanningSequence": "EP",
  "SequenceName": "epfid2d1_104",
  "SequenceVariant": "SK_SS",
  "SeriesDescription": "func_task-mario_run-04",
  "SeriesNumber": 20,
  "ShimSetting": [615, -7182, -8863, 306, 18, -141, -18, -52],
  "SliceThickness": 2,
  "SliceTiming": [0, 0.785, 0.1, 0.8825, 0.1975, 0.98, 0.295, 1.08, 0.3925, 1.1775, 0.49, 1.275, 0.59, 1.3725, 0.6875, 0, 0.785, 0.1, 0.8825, 0.1975, 0.98, 0.295, 1.08, 0.3925, 1.1775, 0.49, 1.275, 0.59, 1.3725, 0.6875, 0, 0.785, 0.1, 0.8825, 0.1975, 0.98, 0.295, 1.08, 0.3925, 1.1775, 0.49, 1.275, 0.59, 1.3725, 0.6875, 0, 0.785, 0.1, 0.8825, 0.1975, 0.98, 0.295, 1.08, 0.3925, 1.1775, 0.49, 1.275, 0.59, 1.3725, 0.6875],
  "SoftwareVersions": "syngo_MR_E11",
  "SpacingBetweenSlices": 2,
  "StationName": "MRC35049",
  "TaskName": "mario",
  "TotalReadoutTime": 0.0576811,
  "TxRefAmp": 302.019,
  "WipMemBlock": "5c27cb95-7f83-42c9-a98d-6d3cfb1ad6f6||Sequence: R016 ve11c/master r/e634e98; Dec 19 2017 11:00:25 by eja",
  "dcmmeta_affine": [
    [-1.999954104423523, -0.005235832184553146, -0.012499915435910225, 107.50385284423828],
    [0.001499839243479073, 1.7478631734848022, -0.9720967411994934, -54.38067626953125],
    [-0.013468938879668713, 0.9720838069915771, 1.7478190660476685, -91.83065032958984],
    [0.0, 0.0, 0.0, 1.0]
],
  "dcmmeta_reorient_transform": [
    [0.0, -1.0, 0.0, 103.0],
    [1.0, 0.0, 0.0, 0.0],
    [0.0, 0.0, 1.0, 0.0],
    [0.0, 0.0, 0.0, 1.0]
],
  "dcmmeta_shape": [104, 104, 60, 474],
  "dcmmeta_slice_dim": 2,
  "dcmmeta_version": 0.6,
  "global": {
    "const": {
      "AcquisitionMatrix": [104, 0, 0, 104],
      "AngioFlag": "N",
      "BitsAllocated": 16,
      "BitsStored": 16,
      "BodyPartExamined": "BRAIN",
      "Columns": 832,
      "EchoNumbers": 1,
      "EchoTime": 37.0,
      "EchoTrainLength": 104,
      "FlipAngle": 52.0,
      "HighBit": 15,
      "ImageOrientationPatient": [0.99997704200726, -0.0007499196079, -0.0067344694664, -0.0026179160424, 0.8739315835848, -0.4860419053215],
      "ImagePositionPatient": [-833.04200221632, -761.32548137335, 367.03518231839],
      "ImageType": [
        "ORIGINAL",
        "PRIMARY",
        "P",
        "MB",
        "ND",
        "MOSAIC"
],
      "ImagedNucleus": "1H",
      "ImagingFrequency": 123.258941,
      "InPlanePhaseEncodingDirection": "COL",
      "LargestImagePixelValue": 4095,
      "MRAcquisitionType": "2D",
      "MagneticFieldStrength": 3.0,
      "Manufacturer": "SIEMENS",
      "ManufacturerModelName": "Prisma_fit",
      "Modality": "MR",
      "NumberOfAverages": 1.0,
      "NumberOfPhaseEncodingSteps": 104,
      "PercentPhaseFieldOfView": 100.0,
      "PercentSampling": 100.0,
      "PerformedProcedureStepStartTime": "132550.183000",
      "PhotometricInterpretation": "MONOCHROME2",
      "PixelBandwidth": 2290.0,
      "PixelRepresentation": 0,
      "PixelSpacing": [2.0, 2.0],
      "ProtocolName": "func_task-mario_run-04",
      "RepetitionTime": 1490.0,
      "RescaleIntercept": -4096.0,
      "RescaleSlope": 2.0,
      "RescaleType": "US",
      "Rows": 832,
      "SAR": 0.06301876235425,
      "SamplesPerPixel": 1,
      "ScanOptions": "FS",
      "ScanningSequence": "EP",
      "SequenceName": "epfid2d1_104",
      "SequenceVariant": [
        "SK",
        "SS"
],
      "SeriesDescription": "func_task-mario_run-04",
      "SeriesNumber": 20,
      "SeriesTime": "145254.626000",
      "SliceLocation": -54.491938636249,
      "SliceThickness": 2.0,
      "SmallestImagePixelValue": 0,
      "SoftwareVersions": "syngo MR E11",
      "SpacingBetweenSlices": 1.9999999799625,
      "SpecificCharacterSet": "ISO_IR 100",
      "StudyID": "1",
      "StudyTime": "132550.051000",
      "TransmitCoilName": "Body",
      "VariableFlipAngleFlag": "N",
      "WindowCenterWidthExplanation": "Algo1",
      "dBdt": 0.0},
    "slices": {}
  },
  "time": {
    "samples": {
      "AcquisitionNumber": [1, 2, 3, 4, 5, 6, 7, 8, 9, 10, 11, 12, 13, 14, 15, 16, 17, 18, 19, 20, 21, 22, 23, 24, 25, 26, 27, 28, 29, 30, 31, 32, 33, 34, 35, 36, 37, 38, 39, 40, 41, 42, 43, 44, 45, 46, 47, 48, 49, 50, 51, 52, 53, 54, 55, 56, 57, 58, 59, 60, 61, 62, 63, 64, 65, 66, 67, 68, 69, 70, 71, 72, 73, 74, 75, 76, 77, 78, 79, 80, 81, 82, 83, 84, 85, 86, 87, 88, 89, 90, 91, 92, 93, 94, 95, 96, 97, 98, 99, 100, 101, 102, 103, 104, 105, 106, 107, 108, 109, 110, 111, 112, 113, 114, 115, 116, 117, 118, 119, 120, 121, 122, 123, 124, 125, 126, 127, 128, 129, 130, 131, 132, 133, 134, 135, 136, 137, 138, 139, 140, 141, 142, 143, 144, 145, 146, 147, 148, 149, 150, 151, 152, 153, 154, 155, 156, 157, 158, 159, 160, 161, 162, 163, 164, 165, 166, 167, 168, 169, 170, 171, 172, 173, 174, 175, 176, 177, 178, 179, 180, 181, 182, 183, 184, 185, 186, 187, 188, 189, 190, 191, 192, 193, 194, 195, 196, 197, 198, 199, 200, 201, 202, 203, 204, 205, 206, 207, 208, 209, 210, 211, 212, 213, 214, 215, 216, 217, 218, 219, 220, 221, 222, 223, 224, 225, 226, 227, 228, 229, 230, 231, 232, 233, 234, 235, 236, 237, 238, 239, 240, 241, 242, 243, 244, 245, 246, 247, 248, 249, 250, 251, 252, 253, 254, 255, 256, 257, 258, 259, 260, 261, 262, 263, 264, 265, 266, 267, 268, 269, 270, 271, 272, 273, 274, 275, 276, 277, 278, 279, 280, 281, 282, 283, 284, 285, 286, 287, 288, 289, 290, 291, 292, 293, 294, 295, 296, 297, 298, 299, 300, 301, 302, 303, 304, 305, 306, 307, 308, 309, 310, 311, 312, 313, 314, 315, 316, 317, 318, 319, 320, 321, 322, 323, 324, 325, 326, 327, 328, 329, 330, 331, 332, 333, 334, 335, 336, 337, 338, 339, 340, 341, 342, 343, 344, 345, 346, 347, 348, 349, 350, 351, 352, 353, 354, 355, 356, 357, 358, 359, 360, 361, 362, 363, 364, 365, 366, 367, 368, 369, 370, 371, 372, 373, 374, 375, 376, 377, 378, 379, 380, 381, 382, 383, 384, 385, 386, 387, 388, 389, 390, 391, 392, 393, 394, 395, 396, 397, 398, 399, 400, 401, 402, 403, 404, 405, 406, 407, 408, 409, 410, 411, 412, 413, 414, 415, 416, 417, 418, 419, 420, 421, 422, 423, 424, 425, 426, 427, 428, 429, 430, 431, 432, 433, 434, 435, 436, 437, 438, 439, 440, 441, 442, 443, 444, 445, 446, 447, 448, 449, 450, 451, 452, 453, 454, 455, 456, 457, 458, 459, 460, 461, 462, 463, 464, 465, 466, 467, 468, 469, 470, 471, 472, 473, 474],
      "AcquisitionTime": ["145132.282500", "145133.772500", "145135.262500", "145136.752500", "145138.242500", "145139.732500", "145141.222500", "145142.712500", "145144.202500", "145145.692500", "145147.182500", "145148.672500", "145150.162500", "145151.652500", "145153.142500", "145154.632500", "145156.122500", "145157.612500", "145159.102500", "145200.592500", "145202.082500", "145203.572500", "145205.062500", "145206.552500", "145208.042500", "145209.532500", "145211.022500", "145212.512500", "145214.002500", "145215.492500", "145216.982500", "145218.472500", "145219.962500", "145221.452500", "145222.942500", "145224.432500", "145225.922500", "145227.412500", "145228.902500", "145230.392500", "145231.882500", "145233.372500", "145234.862500", "145236.352500", "145237.842500", "145239.332500", "145240.822500", "145242.312500", "145243.802500", "145245.292500", "145246.782500", "145248.272500", "145249.762500", "145251.252500", "145252.742500", "145254.232500", "145255.722500", "145257.212500", "145258.702500", "145300.192500", "145301.682500", "145303.172500", "145304.662500", "145306.152500", "145307.642500", "145309.132500", "145310.622500", "145312.112500", "145313.602500", "145315.092500", "145316.582500", "145318.072500", "145319.562500", "145321.052500", "145322.542500", "145324.032500", "145325.522500", "145327.012500", "145328.502500", "145329.992500", "145331.482500", "145332.972500", "145334.462500", "145335.952500", "145337.442500", "145338.932500", "145340.422500", "145341.912500", "145343.402500", "145344.892500", "145346.382500", "145347.872500", "145349.362500", "145350.852500", "145352.342500", "145353.832500", "145355.322500", "145356.812500", "145358.302500", "145359.792500", "145401.282500", "145402.772500", "145404.262500", "145405.752500", "145407.242500", "145408.732500", "145410.222500", "145411.712500", "145413.202500", "145414.692500", "145416.182500", "145417.672500", "145419.162500", "145420.652500", "145422.142500", "145423.632500", "145425.122500", "145426.612500", "145428.102500", "145429.592500", "145431.082500", "145432.572500", "145434.062500", "145435.552500", "145437.042500", "145438.532500", "145440.022500", "145441.512500", "145443.002500", "145444.492500", "145445.982500", "145447.472500", "145448.962500", "145450.452500", "145451.942500", "145453.432500", "145454.922500", "145456.412500", "145457.902500", "145459.392500", "145500.882500", "145502.372500", "145503.862500", "145505.352500", "145506.842500", "145508.332500", "145509.822500", "145511.312500", "145512.802500", "145514.292500", "145515.782500", "145517.272500", "145518.762500", "145520.252500", "145521.742500", "145523.232500", "145524.722500", "145526.212500", "145527.702500", "145529.192500", "145530.682500", "145532.172500", "145533.662500", "145535.152500", "145536.642500", "145538.132500", "145539.622500", "145541.112500", "145542.602500", "145544.092500", "145545.582500", "145547.072500", "145548.562500", "145550.052500", "145551.542500", "145553.032500", "145554.522500", "145556.012500", "145557.502500", "145558.992500", "145600.482500", "145601.972500", "145603.462500", "145604.952500", "145606.442500", "145607.932500", "145609.422500", "145610.912500", "145612.402500", "145613.892500", "145615.382500", "145616.872500", "145618.362500", "145619.852500", "145621.342500", "145622.832500", "145624.322500", "145625.812500", "145627.302500", "145628.792500", "145630.282500", "145631.772500", "145633.262500", "145634.752500", "145636.242500", "145637.732500", "145639.222500", "145640.712500", "145642.202500", "145643.692500", "145645.182500", "145646.672500", "145648.162500", "145649.652500", "145651.142500", "145652.632500", "145654.122500", "145655.612500", "145657.102500", "145658.592500", "145700.082500", "145701.572500", "145703.062500", "145704.552500", "145706.042500", "145707.532500", "145709.022500", "145710.512500", "145712.002500", "145713.492500", "145714.982500", "145716.472500", "145717.962500", "145719.452500", "145720.942500", "145722.432500", "145723.922500", "145725.412500", "145726.902500", "145728.392500", "145729.882500", "145731.372500", "145732.862500", "145734.352500", "145735.842500", "145737.332500", "145738.822500", "145740.312500", "145741.802500", "145743.292500", "145744.782500", "145746.272500", "145747.762500", "145749.252500", "145750.742500", "145752.232500", "145753.722500", "145755.212500", "145756.702500", "145758.192500", "145759.682500", "145801.172500", "145802.662500", "145804.152500", "145805.642500", "145807.132500", "145808.622500", "145810.112500", "145811.602500", "145813.092500", "145814.582500", "145816.072500", "145817.562500", "145819.052500", "145820.542500", "145822.032500", "145823.522500", "145825.012500", "145826.502500", "145827.992500", "145829.482500", "145830.972500", "145832.462500", "145833.952500", "145835.442500", "145836.932500", "145838.422500", "145839.912500", "145841.402500", "145842.892500", "145844.382500", "145845.872500", "145847.362500", "145848.852500", "145850.342500", "145851.832500", "145853.322500", "145854.812500", "145856.302500", "145857.792500", "145859.282500", "145900.772500", "145902.262500", "145903.752500", "145905.242500", "145906.732500", "145908.222500", "145909.712500", "145911.202500", "145912.692500", "145914.182500", "145915.672500", "145917.162500", "145918.652500", "145920.142500", "145921.632500", "145923.122500", "145924.612500", "145926.102500", "145927.592500", "145929.082500", "145930.572500", "145932.062500", "145933.552500", "145935.042500", "145936.532500", "145938.022500", "145939.512500", "145941.002500", "145942.492500", "145943.982500", "145945.472500", "145946.962500", "145948.452500", "145949.942500", "145951.432500", "145952.922500", "145954.412500", "145955.902500", "145957.392500", "145958.882500", "150000.372500", "150001.862500", "150003.352500", "150004.842500", "150006.332500", "150007.822500", "150009.312500", "150010.802500", "150012.292500", "150013.782500", "150015.272500", "150016.762500", "150018.252500", "150019.742500", "150021.232500", "150022.722500", "150024.212500", "150025.702500", "150027.192500", "150028.682500", "150030.172500", "150031.662500", "150033.152500", "150034.642500", "150036.132500", "150037.622500", "150039.112500", "150040.602500", "150042.092500", "150043.582500", "150045.072500", "150046.562500", "150048.052500", "150049.542500", "150051.032500", "150052.522500", "150054.012500", "150055.502500", "150056.992500", "150058.482500", "150059.972500", "150101.462500", "150102.952500", "150104.442500", "150105.932500", "150107.422500", "150108.912500", "150110.402500", "150111.892500", "150113.382500", "150114.872500", "150116.362500", "150117.852500", "150119.342500", "150120.832500", "150122.322500", "150123.812500", "150125.302500", "150126.792500", "150128.282500", "150129.772500", "150131.262500", "150132.752500", "150134.242500", "150135.732500", "150137.222500", "150138.712500", "150140.202500", "150141.692500", "150143.182500", "150144.672500", "150146.162500", "150147.652500", "150149.142500", "150150.632500", "150152.122500", "150153.612500", "150155.102500", "150156.592500", "150158.082500", "150159.572500", "150201.062500", "150202.552500", "150204.042500", "150205.532500", "150207.022500", "150208.512500", "150210.002500", "150211.492500", "150212.982500", "150214.472500", "150215.962500", "150217.452500", "150218.942500", "150220.432500", "150221.922500", "150223.412500", "150224.902500", "150226.392500", "150227.882500", "150229.372500", "150230.862500", "150232.352500", "150233.842500", "150235.332500", "150236.822500", "150238.312500", "150239.802500", "150241.292500", "150242.782500", "150244.272500", "150245.762500", "150247.252500", "150248.742500", "150250.232500", "150251.722500", "150253.212500", "150254.702500", "150256.192500", "150257.682500", "150259.172500", "150300.662500", "150302.152500", "150303.642500", "150305.132500", "150306.622500", "150308.112500", "150309.602500", "150311.092500", "150312.582500", "150314.072500", "150315.562500", "150317.052500"],
      "ContentTime": ["145254.629000", "145254.632000", "145254.634000", "145254.637000", "145254.639000", "145254.642000", "145254.645000", "145254.648000", "145254.650000", "145254.653000", "145254.655000", "145254.658000", "145254.660000", "145254.663000", "145254.666000", "145254.668000", "145254.671000", "145254.673000", "145254.676000", "145254.678000", "145254.681000", "145254.683000", "145254.686000", "145254.688000", "145254.694000", "145254.697000", "145254.699000", "145254.702000", "145254.704000", "145254.707000", "145314.527000", "145314.530000", "145314.532000", "145314.535000", "145314.537000", "145314.540000", "145314.542000", "145314.545000", "145314.547000", "145314.549000", "145314.552000", "145314.555000", "145314.557000", "145314.560000", "145314.562000", "145314.565000", "145314.567000", "145314.570000", "145314.572000", "145314.575000", "145334.532000", "145334.535000", "145334.537000", "145334.540000", "145334.542000", "145334.545000", "145334.547000", "145334.550000", "145334.552000", "145334.555000", "145334.557000", "145334.560000", "145334.562000", "145334.565000", "145334.567000", "145334.569000", "145334.572000", "145334.575000", "145334.578000", "145334.581000", "145334.583000", "145354.566000", "145354.574000", "145354.577000", "145354.579000", "145354.582000", "145354.584000", "145354.587000", "145354.589000", "145354.592000", "145354.594000", "145354.597000", "145354.599000", "145354.602000", "145354.604000", "145354.606000", "145354.609000", "145354.612000", "145354.614000", "145354.616000", "145354.619000", "145434.599000", "145434.602000", "145434.605000", "145434.608000", "145434.611000", "145434.614000", "145434.617000", "145434.620000", "145434.623000", "145434.626000", "145434.628000", "145434.631000", "145434.634000", "145434.637000", "145434.640000", "145434.643000", "145434.646000", "145434.648000", "145434.651000", "145434.654000", "145434.657000", "145434.660000", "145434.664000", "145434.667000", "145434.670000", "145434.673000", "145434.676000", "145434.679000", "145434.682000", "145434.685000", "145434.688000", "145514.560000", "145514.563000", "145514.565000", "145514.568000", "145514.571000", "145514.573000", "145514.575000", "145514.578000", "145514.580000", "145514.583000", "145514.586000", "145514.588000", "145514.591000", "145514.593000", "145514.596000", "145514.598000", "145514.601000", "145514.603000", "145514.606000", "145514.609000", "145514.611000", "145514.614000", "145514.616000", "145514.619000", "145514.621000", "145514.624000", "145555.046000", "145555.049000", "145555.052000", "145555.054000", "145555.057000", "145555.059000", "145555.062000", "145555.065000", "145555.067000", "145555.070000", "145555.072000", "145555.075000", "145555.077000", "145555.080000", "145555.082000", "145555.085000", "145555.088000", "145555.091000", "145555.093000", "145555.096000", "145555.098000", "145555.101000", "145555.103000", "145555.106000", "145555.108000", "145555.111000", "145555.113000", "145614.588000", "145614.591000", "145614.594000", "145614.596000", "145614.599000", "145614.602000", "145614.605000", "145614.608000", "145614.610000", "145614.613000", "145614.616000", "145614.618000", "145614.621000", "145614.623000", "145654.551000", "145654.554000", "145654.556000", "145654.559000", "145654.561000", "145654.564000", "145654.566000", "145654.569000", "145654.572000", "145654.574000", "145654.577000", "145654.579000", "145654.582000", "145654.584000", "145654.587000", "145654.590000", "145654.592000", "145654.595000", "145654.597000", "145654.600000", "145654.602000", "145654.605000", "145654.607000", "145654.610000", "145654.612000", "145654.615000", "145654.617000", "145734.558000", "145734.561000", "145734.564000", "145734.566000", "145734.568000", "145734.571000", "145734.573000", "145734.576000", "145734.579000", "145734.581000", "145734.584000", "145734.586000", "145734.589000", "145734.591000", "145734.594000", "145734.596000", "145734.599000", "145734.601000", "145734.604000", "145734.606000", "145734.609000", "145734.612000", "145734.614000", "145734.617000", "145734.619000", "145734.621000", "145814.566000", "145814.569000", "145814.571000", "145814.574000", "145814.576000", "145814.579000", "145814.581000", "145814.584000", "145814.586000", "145814.589000", "145814.591000", "145814.594000", "145814.596000", "145814.598000", "145814.601000", "145814.603000", "145814.606000", "145814.608000", "145814.611000", "145814.613000", "145814.616000", "145814.618000", "145814.621000", "145814.623000", "145814.626000", "145814.628000", "145814.631000", "145854.581000", "145854.584000", "145854.586000", "145854.589000", "145854.591000", "145854.594000", "145854.596000", "145854.599000", "145854.601000", "145854.604000", "145854.606000", "145854.609000", "145854.611000", "145854.614000", "145854.617000", "145854.619000", "145854.622000", "145854.625000", "145854.627000", "145854.629000", "145854.632000", "145854.634000", "145854.637000", "145854.639000", "145854.642000", "145854.645000", "145854.647000", "145934.560000", "145934.563000", "145934.565000", "145934.568000", "145934.570000", "145934.573000", "145934.575000", "145934.578000", "145934.580000", "145934.583000", "145934.585000", "145934.588000", "145934.590000", "145934.593000", "145934.595000", "145934.597000", "145934.600000", "145934.602000", "145934.605000", "145934.607000", "145934.610000", "145934.612000", "145934.615000", "145934.617000", "145934.620000", "145934.622000", "145934.625000", "150014.568000", "150014.571000", "150014.573000", "150014.576000", "150014.578000", "150014.581000", "150014.583000", "150014.586000", "150014.588000", "150014.591000", "150014.593000", "150014.596000", "150014.598000", "150014.601000", "150014.603000", "150014.606000", "150014.608000", "150014.611000", "150014.613000", "150014.616000", "150014.618000", "150014.621000", "150014.623000", "150014.626000", "150014.628000", "150014.631000", "150014.633000", "150054.576000", "150054.579000", "150054.581000", "150054.584000", "150054.586000", "150054.589000", "150054.591000", "150054.594000", "150054.596000", "150054.599000", "150054.601000", "150054.604000", "150054.607000", "150054.609000", "150054.612000", "150054.614000", "150054.617000", "150054.619000", "150054.622000", "150054.624000", "150054.627000", "150054.629000", "150054.632000", "150054.635000", "150054.637000", "150054.640000", "150054.642000", "150134.567000", "150134.569000", "150134.572000", "150134.574000", "150134.577000", "150134.580000", "150134.582000", "150134.585000", "150134.587000", "150134.590000", "150134.592000", "150134.595000", "150134.598000", "150134.600000", "150134.603000", "150134.605000", "150134.608000", "150134.610000", "150134.613000", "150134.615000", "150134.618000", "150134.620000", "150134.631000", "150134.634000", "150134.636000", "150134.639000", "150214.575000", "150214.580000", "150214.582000", "150214.585000", "150214.587000", "150214.590000", "150214.592000", "150214.595000", "150214.597000", "150214.600000", "150214.602000", "150214.605000", "150214.607000", "150214.610000", "150214.612000", "150214.615000", "150214.618000", "150214.620000", "150214.623000", "150214.625000", "150214.628000", "150214.630000", "150214.633000", "150214.636000", "150214.638000", "150214.641000", "150214.643000", "150254.644000", "150254.647000", "150254.650000", "150254.653000", "150254.656000", "150254.659000", "150254.663000", "150254.666000", "150254.669000", "150254.672000", "150254.675000", "150254.677000", "150254.680000", "150254.683000", "150254.686000", "150254.689000", "150254.691000", "150254.695000", "150254.698000", "150254.701000", "150254.703000", "150254.706000", "150254.715000", "150254.718000", "150254.722000", "150254.725000", "150254.728000", "150319.494000", "150319.497000", "150319.499000", "150319.502000", "150319.504000", "150319.507000", "150319.509000", "150319.512000", "150319.514000", "150319.517000", "150319.519000", "150319.522000", "150319.524000", "150319.527000", "150319.529000", "150319.532000", "150319.535000"],
