{
  "AcquisitionMatrixPE": 104,
  "AcquisitionNumber": 1,
  "AcquisitionTime": "18:27:5.962500",
  "BandwidthPerPixelPhaseEncode": 17.17,
  "BaseResolution": 104,
  "BodyPartExamined": "BRAIN",
  "CoilCombinationMethod": "Sum of Squares",
  "ConsistencyInfo": "N4_VE11C_LATEST_20160120",
  "ConversionSoftware": "dcm2niix",
  "ConversionSoftwareVersion": "v1.0.20211006",
  "DerivedVendorReportedEchoSpacing": 0.000560011,
  "DeviceSerialNumber": "167006",
  "DwellTime": 2.1e-06,
  "EchoTime": 0.037,
  "EchoTime1": 0.037,
  "EchoTime2": 0.001,
  "EchoTrainLength": 104,
  "EffectiveEchoSpacing": 0.000560011,
  "FlipAngle": 52,
  "HeudiconvVersion": "0.11.3.post9+gc939bf8",
  "ImageComments": "Unaliased MB4/PE3/LB",
  "ImageOrientationPatientDICOM": [0.99996, -0.00583002, -0.00685359, 0.00279236, 0.925157, -0.379573],
  "ImageOrientationText": "Tra>Cor(-22.3)>Sag(-0.5)",
  "ImageType": [
    "ORIGINAL",
    "PRIMARY",
    "P",
    "MB",
    "ND",
    "MOSAIC",
    "PHASE"
],
  "ImagingFrequency": 123.259,
  "InPlanePhaseEncodingDirectionDICOM": "COL",
  "InstitutionAddress": "Chemin Queen-Mary 4565,Montreal,District,CA,H3W 1W5",
  "InstitutionName": "IUGM",
  "InstitutionalDepartmentName": "Department",
  "MRAcquisitionType": "2D",
  "MagneticFieldStrength": 3,
  "Manufacturer": "Siemens",
  "ManufacturersModelName": "Prisma_fit",
  "MatrixCoilMode": "SENSE",
  "Modality": "MR",
  "MultibandAccelerationFactor": 4,
  "PartialFourier": 1,
  "PatientPosition": "HFS",
  "PercentPhaseFOV": 100,
  "PercentSampling": 100,
  "PhaseEncodingDirection": "j",
  "PhaseEncodingSteps": 104,
  "PhaseResolution": 1,
  "PixelBandwidth": 2290,
  "ProcedureStepDescription": "games^mario",
  "ProtocolName": "func_task-mario_run-05",
  "PulseSequenceDetails": "%CustomerSeq%\\cmrr_mbep2d_bold",
  "ReceiveCoilActiveElements": "HC1-7;NC1,2",
  "ReceiveCoilName": "HeadNeck_64",
  "ReconMatrixPE": 104,
  "RepetitionTime": 1.49,
  "SAR": 0.0873067,
  "ScanOptions": "FS",
  "ScanningSequence": "EP",
  "SequenceName": "epfid2d1_104",
  "SequenceVariant": "SK\\SS",
  "SeriesDescription": "func_task-mario_run-05",
  "SeriesNumber": 23,
  "ShimSetting": [607, -7258, -8808, 394, 0, -312, 15, 46],
  "SliceThickness": 2,
  "SliceTiming": [0, 0.7825, 0.0975, 0.88, 0.195, 0.98, 0.2925, 1.0775, 0.39, 1.175, 0.49, 1.2725, 0.5875, 1.37, 0.685, 0, 0.7825, 0.0975, 0.88, 0.195, 0.98, 0.2925, 1.0775, 0.39, 1.175, 0.49, 1.2725, 0.5875, 1.37, 0.685, 0, 0.7825, 0.0975, 0.88, 0.195, 0.98, 0.2925, 1.0775, 0.39, 1.175, 0.49, 1.2725, 0.5875, 1.37, 0.685, 0, 0.7825, 0.0975, 0.88, 0.195, 0.98, 0.2925, 1.0775, 0.39, 1.175, 0.49, 1.2725, 0.5875, 1.37, 0.685],
  "SoftwareVersions": "syngo MR E11",
  "SpacingBetweenSlices": 2,
  "StationName": "MRC35049",
  "TaskName": "mario",
  "TotalReadoutTime": 0.0576811,
  "TxRefAmp": 272.312,
  "WipMemBlock": "0a13c2ae-e1ba-4d05-9ce1-fd149e6430e8||Sequence: R017 ve11c/master r/75a17815+; Jun 28 2022 16:32:11 by eja",
  "dcmmeta_affine": [
    [-1.999919056892395, 0.005584726110100746, -0.017107142135500908, 103.61846160888672],
    [0.011660046875476837, 1.850314974784851, -0.7590775489807129, -61.43138122558594],
    [-0.013707179576158524, 0.7591465711593628, 1.850272536277771, -48.08674240112305],
    [0.0, 0.0, 0.0, 1.0]
],
  "dcmmeta_reorient_transform": [
    [0.0, -1.0, 0.0, 103.0],
    [1.0, 0.0, 0.0, 0.0],
    [0.0, 0.0, 1.0, 0.0],
    [0.0, 0.0, 0.0, 1.0]
],
  "dcmmeta_shape": [104, 104, 60, 461],
  "dcmmeta_slice_dim": 2,
  "dcmmeta_version": 0.6,
  "global": {
    "const": {
      "AcquisitionMatrix": [104, 0, 0, 104],
      "AngioFlag": "N",
      "BitsAllocated": 16,
      "BitsStored": 16,
      "BodyPartExamined": "BRAIN",
      "Columns": 832,
      "EchoNumbers": 1,
      "EchoTime": 37.0,
      "EchoTrainLength": 104,
      "FlipAngle": 52.0,
      "HighBit": 15,
      "ImageOrientationPatient": [0.99995951874768, -0.0058300233098, -0.0068535898704, 0.00279236304634, 0.92515746248878, -0.3795732766014],
      "ImagePositionPatient": [-834.19705958666, -798.42143357778, 311.42411171349],
      "ImageType": [
        "ORIGINAL",
        "PRIMARY",
        "P",
        "MB",
        "ND",
        "MOSAIC"
],
      "ImagedNucleus": "1H",
      "ImagingFrequency": 123.258753,
      "InPlanePhaseEncodingDirection": "COL",
      "LargestImagePixelValue": 4095,
      "MRAcquisitionType": "2D",
      "MagneticFieldStrength": 3.0,
      "Manufacturer": "SIEMENS",
      "ManufacturerModelName": "Prisma_fit",
      "Modality": "MR",
      "NumberOfAverages": 1.0,
      "NumberOfPhaseEncodingSteps": 104,
      "PercentPhaseFieldOfView": 100.0,
      "PercentSampling": 100.0,
      "PerformedProcedureStepStartTime": "165743.043000",
      "PhotometricInterpretation": "MONOCHROME2",
      "PixelBandwidth": 2290.0,
      "PixelRepresentation": 0,
      "PixelSpacing": [2.0, 2.0],
      "ProtocolName": "func_task-mario_run-05",
      "RepetitionTime": 1490.0,
      "RescaleIntercept": -4096.0,
      "RescaleSlope": 2.0,
      "RescaleType": "US",
      "Rows": 832,
      "SAR": 0.08730674891372,
      "SamplesPerPixel": 1,
      "ScanOptions": "FS",
      "ScanningSequence": "EP",
      "SequenceName": "epfid2d1_104",
      "SequenceVariant": [
        "SK",
        "SS"
],
      "SeriesDescription": "func_task-mario_run-05",
      "SeriesNumber": 23,
      "SeriesTime": "182817.278000",
      "SliceLocation": -22.057507648976,
      "SliceThickness": 2.0,
      "SmallestImagePixelValue": 0,
      "SoftwareVersions": "syngo MR E11",
      "SpacingBetweenSlices": 1.9999999550483,
      "SpecificCharacterSet": "ISO_IR 100",
      "StudyID": "1",
      "StudyTime": "165742.967000",
      "TransmitCoilName": "Body",
      "VariableFlipAngleFlag": "N",
      "WindowCenterWidthExplanation": "Algo1",
      "dBdt": 0.0},
    "slices": {}
  },
  "time": {
    "samples": {
      "AcquisitionNumber": [1, 2, 3, 4, 5, 6, 7, 8, 9, 10, 11, 12, 13, 14, 15, 16, 17, 18, 19, 20, 21, 22, 23, 24, 25, 26, 27, 28, 29, 30, 31, 32, 33, 34, 35, 36, 37, 38, 39, 40, 41, 42, 43, 44, 45, 46, 47, 48, 49, 50, 51, 52, 53, 54, 55, 56, 57, 58, 59, 60, 61, 62, 63, 64, 65, 66, 67, 68, 69, 70, 71, 72, 73, 74, 75, 76, 77, 78, 79, 80, 81, 82, 83, 84, 85, 86, 87, 88, 89, 90, 91, 92, 93, 94, 95, 96, 97, 98, 99, 100, 101, 102, 103, 104, 105, 106, 107, 108, 109, 110, 111, 112, 113, 114, 115, 116, 117, 118, 119, 120, 121, 122, 123, 124, 125, 126, 127, 128, 129, 130, 131, 132, 133, 134, 135, 136, 137, 138, 139, 140, 141, 142, 143, 144, 145, 146, 147, 148, 149, 150, 151, 152, 153, 154, 155, 156, 157, 158, 159, 160, 161, 162, 163, 164, 165, 166, 167, 168, 169, 170, 171, 172, 173, 174, 175, 176, 177, 178, 179, 180, 181, 182, 183, 184, 185, 186, 187, 188, 189, 190, 191, 192, 193, 194, 195, 196, 197, 198, 199, 200, 201, 202, 203, 204, 205, 206, 207, 208, 209, 210, 211, 212, 213, 214, 215, 216, 217, 218, 219, 220, 221, 222, 223, 224, 225, 226, 227, 228, 229, 230, 231, 232, 233, 234, 235, 236, 237, 238, 239, 240, 241, 242, 243, 244, 245, 246, 247, 248, 249, 250, 251, 252, 253, 254, 255, 256, 257, 258, 259, 260, 261, 262, 263, 264, 265, 266, 267, 268, 269, 270, 271, 272, 273, 274, 275, 276, 277, 278, 279, 280, 281, 282, 283, 284, 285, 286, 287, 288, 289, 290, 291, 292, 293, 294, 295, 296, 297, 298, 299, 300, 301, 302, 303, 304, 305, 306, 307, 308, 309, 310, 311, 312, 313, 314, 315, 316, 317, 318, 319, 320, 321, 322, 323, 324, 325, 326, 327, 328, 329, 330, 331, 332, 333, 334, 335, 336, 337, 338, 339, 340, 341, 342, 343, 344, 345, 346, 347, 348, 349, 350, 351, 352, 353, 354, 355, 356, 357, 358, 359, 360, 361, 362, 363, 364, 365, 366, 367, 368, 369, 370, 371, 372, 373, 374, 375, 376, 377, 378, 379, 380, 381, 382, 383, 384, 385, 386, 387, 388, 389, 390, 391, 392, 393, 394, 395, 396, 397, 398, 399, 400, 401, 402, 403, 404, 405, 406, 407, 408, 409, 410, 411, 412, 413, 414, 415, 416, 417, 418, 419, 420, 421, 422, 423, 424, 425, 426, 427, 428, 429, 430, 431, 432, 433, 434, 435, 436, 437, 438, 439, 440, 441, 442, 443, 444, 445, 446, 447, 448, 449, 450, 451, 452, 453, 454, 455, 456, 457, 458, 459, 460, 461],
      "AcquisitionTime": ["182705.962500", "182707.452500", "182708.942500", "182710.432500", "182711.922500", "182713.412500", "182714.902500", "182716.392500", "182717.882500", "182719.372500", "182720.862500", "182722.352500", "182723.842500", "182725.332500", "182726.822500", "182728.312500", "182729.802500", "182731.292500", "182732.782500", "182734.272500", "182735.762500", "182737.252500", "182738.742500", "182740.232500", "182741.722500", "182743.212500", "182744.702500", "182746.192500", "182747.682500", "182749.172500", "182750.662500", "182752.152500", "182753.642500", "182755.132500", "182756.622500", "182758.112500", "182759.602500", "182801.092500", "182802.582500", "182804.072500", "182805.562500", "182807.052500", "182808.542500", "182810.032500", "182811.522500", "182813.012500", "182814.502500", "182815.992500", "182817.482500", "182818.972500", "182820.462500", "182821.952500", "182823.442500", "182824.932500", "182826.422500", "182827.912500", "182829.402500", "182830.892500", "182832.382500", "182833.872500", "182835.362500", "182836.852500", "182838.342500", "182839.832500", "182841.322500", "182842.812500", "182844.302500", "182845.792500", "182847.282500", "182848.772500", "182850.262500", "182851.752500", "182853.242500", "182854.732500", "182856.222500", "182857.712500", "182859.202500", "182900.692500", "182902.182500", "182903.672500", "182905.162500", "182906.652500", "182908.142500", "182909.632500", "182911.122500", "182912.612500", "182914.102500", "182915.592500", "182917.082500", "182918.572500", "182920.062500", "182921.552500", "182923.042500", "182924.532500", "182926.022500", "182927.512500", "182929.002500", "182930.492500", "182931.982500", "182933.472500", "182934.962500", "182936.452500", "182937.942500", "182939.432500", "182940.922500", "182942.412500", "182943.902500", "182945.392500", "182946.882500", "182948.372500", "182949.862500", "182951.352500", "182952.842500", "182954.332500", "182955.822500", "182957.312500", "182958.802500", "183000.292500", "183001.782500", "183003.272500", "183004.762500", "183006.252500", "183007.742500", "183009.232500", "183010.722500", "183012.212500", "183013.702500", "183015.192500", "183016.682500", "183018.172500", "183019.662500", "183021.152500", "183022.642500", "183024.132500", "183025.622500", "183027.112500", "183028.602500", "183030.092500", "183031.582500", "183033.072500", "183034.562500", "183036.052500", "183037.542500", "183039.032500", "183040.522500", "183042.012500", "183043.502500", "183044.992500", "183046.482500", "183047.972500", "183049.462500", "183050.952500", "183052.442500", "183053.932500", "183055.422500", "183056.912500", "183058.402500", "183059.892500", "183101.382500", "183102.872500", "183104.362500", "183105.852500", "183107.342500", "183108.832500", "183110.322500", "183111.812500", "183113.302500", "183114.792500", "183116.282500", "183117.772500", "183119.262500", "183120.752500", "183122.242500", "183123.732500", "183125.222500", "183126.712500", "183128.202500", "183129.692500", "183131.182500", "183132.672500", "183134.162500", "183135.652500", "183137.142500", "183138.632500", "183140.122500", "183141.612500", "183143.102500", "183144.592500", "183146.082500", "183147.572500", "183149.062500", "183150.552500", "183152.042500", "183153.532500", "183155.022500", "183156.512500", "183158.002500", "183159.492500", "183200.982500", "183202.472500", "183203.962500", "183205.452500", "183206.942500", "183208.432500", "183209.922500", "183211.412500", "183212.902500", "183214.392500", "183215.882500", "183217.372500", "183218.862500", "183220.352500", "183221.842500", "183223.332500", "183224.822500", "183226.312500", "183227.802500", "183229.292500", "183230.782500", "183232.272500", "183233.762500", "183235.252500", "183236.742500", "183238.232500", "183239.722500", "183241.212500", "183242.702500", "183244.192500", "183245.682500", "183247.172500", "183248.662500", "183250.152500", "183251.642500", "183253.132500", "183254.622500", "183256.112500", "183257.602500", "183259.092500", "183300.582500", "183302.072500", "183303.562500", "183305.052500", "183306.542500", "183308.032500", "183309.522500", "183311.012500", "183312.502500", "183313.992500", "183315.482500", "183316.972500", "183318.462500", "183319.952500", "183321.442500", "183322.932500", "183324.422500", "183325.912500", "183327.402500", "183328.892500", "183330.382500", "183331.872500", "183333.362500", "183334.852500", "183336.342500", "183337.832500", "183339.322500", "183340.812500", "183342.302500", "183343.792500", "183345.282500", "183346.772500", "183348.262500", "183349.752500", "183351.242500", "183352.732500", "183354.222500", "183355.712500", "183357.202500", "183358.692500", "183400.182500", "183401.672500", "183403.162500", "183404.652500", "183406.142500", "183407.632500", "183409.122500", "183410.612500", "183412.102500", "183413.592500", "183415.082500", "183416.572500", "183418.062500", "183419.552500", "183421.042500", "183422.532500", "183424.022500", "183425.512500", "183427.002500", "183428.492500", "183429.982500", "183431.472500", "183432.962500", "183434.452500", "183435.942500", "183437.432500", "183438.922500", "183440.412500", "183441.902500", "183443.392500", "183444.882500", "183446.372500", "183447.862500", "183449.352500", "183450.842500", "183452.332500", "183453.822500", "183455.312500", "183456.802500", "183458.292500", "183459.782500", "183501.272500", "183502.762500", "183504.252500", "183505.742500", "183507.232500", "183508.722500", "183510.212500", "183511.702500", "183513.192500", "183514.682500", "183516.172500", "183517.662500", "183519.152500", "183520.642500", "183522.132500", "183523.622500", "183525.112500", "183526.602500", "183528.092500", "183529.582500", "183531.072500", "183532.562500", "183534.052500", "183535.542500", "183537.032500", "183538.522500", "183540.012500", "183541.502500", "183542.992500", "183544.482500", "183545.972500", "183547.462500", "183548.952500", "183550.442500", "183551.932500", "183553.422500", "183554.912500", "183556.402500", "183557.892500", "183559.382500", "183600.872500", "183602.362500", "183603.852500", "183605.342500", "183606.832500", "183608.322500", "183609.812500", "183611.302500", "183612.792500", "183614.282500", "183615.772500", "183617.262500", "183618.752500", "183620.242500", "183621.732500", "183623.222500", "183624.712500", "183626.202500", "183627.692500", "183629.182500", "183630.672500", "183632.162500", "183633.652500", "183635.142500", "183636.632500", "183638.122500", "183639.612500", "183641.102500", "183642.592500", "183644.082500", "183645.572500", "183647.062500", "183648.552500", "183650.042500", "183651.532500", "183653.022500", "183654.512500", "183656.002500", "183657.492500", "183658.982500", "183700.472500", "183701.962500", "183703.452500", "183704.942500", "183706.432500", "183707.922500", "183709.412500", "183710.902500", "183712.392500", "183713.882500", "183715.372500", "183716.862500", "183718.352500", "183719.842500", "183721.332500", "183722.822500", "183724.312500", "183725.802500", "183727.292500", "183728.782500", "183730.272500", "183731.762500", "183733.252500", "183734.742500", "183736.232500", "183737.722500", "183739.212500", "183740.702500", "183742.192500", "183743.682500", "183745.172500", "183746.662500", "183748.152500", "183749.642500", "183751.132500", "183752.622500", "183754.112500", "183755.602500", "183757.092500", "183758.582500", "183800.072500", "183801.562500", "183803.052500", "183804.542500", "183806.032500", "183807.522500", "183809.012500", "183810.502500", "183811.992500", "183813.482500", "183814.972500", "183816.462500", "183817.952500", "183819.442500", "183820.932500", "183822.422500", "183823.912500", "183825.402500", "183826.892500", "183828.382500", "183829.872500", "183831.362500"],
      "ContentTime": ["182817.280000", "182817.283000", "182817.286000", "182817.288000", "182817.291000", "182817.293000", "182817.296000", "182817.299000", "182817.301000", "182817.304000", "182817.306000", "182817.309000", "182817.311000", "182817.314000", "182817.316000", "182817.319000", "182817.321000", "182817.324000", "182817.335000", "182817.337000", "182817.340000", "182837.204000", "182837.207000", "182837.209000", "182837.212000", "182837.214000", "182837.217000", "182837.219000", "182837.222000", "182837.225000", "182837.227000", "182837.230000", "182837.232000", "182837.235000", "182837.237000", "182837.240000", "182837.242000", "182837.245000", "182837.248000", "182837.250000", "182837.253000", "182837.255000", "182857.220000", "182857.223000", "182857.225000", "182857.228000", "182857.230000", "182857.233000", "182857.235000", "182857.238000", "182857.240000", "182857.243000", "182857.246000", "182857.248000", "182857.251000", "182857.253000", "182857.256000", "182857.258000", "182857.261000", "182857.265000", "182857.268000", "182857.271000", "182917.225000", "182917.227000", "182917.230000", "182917.233000", "182917.235000", "182917.238000", "182917.240000", "182917.243000", "182917.245000", "182917.248000", "182917.251000", "182917.253000", "182917.256000", "182917.258000", "182917.261000", "182917.263000", "182917.266000", "182917.268000", "182917.271000", "182917.273000", "182957.266000", "182957.269000", "182957.271000", "182957.274000", "182957.276000", "182957.279000", "182957.281000", "182957.284000", "182957.287000", "182957.289000", "182957.292000", "182957.294000", "182957.297000", "182957.299000", "182957.302000", "182957.304000", "182957.307000", "182957.310000", "182957.312000", "182957.315000", "182957.317000", "182957.320000", "182957.322000", "182957.325000", "182957.327000", "182957.330000", "182957.333000", "182957.335000", "182957.338000", "182957.340000", "182957.343000", "182957.345000", "183037.240000", "183037.243000", "183037.245000", "183037.248000", "183037.251000", "183037.253000", "183037.256000", "183037.258000", "183037.261000", "183037.263000", "183037.266000", "183037.269000", "183037.271000", "183037.274000", "183037.276000", "183037.279000", "183037.281000", "183037.284000", "183037.286000", "183037.289000", "183037.291000", "183037.294000", "183037.297000", "183037.299000", "183037.302000", "183037.304000", "183037.307000", "183117.744000", "183117.747000", "183117.759000", "183117.762000", "183117.764000", "183117.767000", "183117.769000", "183117.772000", "183117.774000", "183117.777000", "183117.779000", "183117.782000", "183117.785000", "183117.787000", "183117.790000", "183117.792000", "183117.795000", "183117.797000", "183117.800000", "183117.802000", "183117.805000", "183117.808000", "183117.810000", "183117.813000", "183117.815000", "183117.818000", "183157.245000", "183157.248000", "183157.250000", "183157.253000", "183157.255000", "183157.258000", "183157.261000", "183157.263000", "183157.266000", "183157.268000", "183157.271000", "183157.273000", "183157.276000", "183157.279000", "183157.281000", "183157.284000", "183157.286000", "183157.289000", "183157.292000", "183157.294000", "183157.297000", "183157.299000", "183157.302000", "183157.304000", "183157.307000", "183157.309000", "183157.312000", "183237.246000", "183237.249000", "183237.252000", "183237.254000", "183237.257000", "183237.260000", "183237.262000", "183237.265000", "183237.267000", "183237.270000", "183237.273000", "183237.275000", "183237.278000", "183237.280000", "183237.283000", "183237.285000", "183237.288000", "183237.290000", "183237.293000", "183237.295000", "183237.298000", "183237.301000", "183237.303000", "183237.306000", "183237.308000", "183237.311000", "183237.314000", "183317.243000", "183317.246000", "183317.248000", "183317.251000", "183317.254000", "183317.256000", "183317.259000", "183317.261000", "183317.264000", "183317.266000", "183317.269000", "183317.272000", "183317.274000", "183317.277000", "183317.279000", "183317.282000", "183317.285000", "183317.287000", "183317.290000", "183317.292000", "183317.295000", "183317.297000", "183317.300000", "183317.302000", "183317.305000", "183317.308000", "183317.310000", "183357.245000", "183357.248000", "183357.250000", "183357.253000", "183357.256000", "183357.258000", "183357.261000", "183357.263000", "183357.266000", "183357.269000", "183357.271000", "183357.274000", "183357.276000", "183357.279000", "183357.281000", "183357.284000", "183357.287000", "183357.289000", "183357.292000", "183357.294000", "183357.297000", "183357.299000", "183357.302000", "183357.304000", "183357.307000", "183357.310000", "183357.312000", "183437.242000", "183437.245000", "183437.248000", "183437.250000", "183437.253000", "183437.256000", "183437.258000", "183437.261000", "183437.263000", "183437.266000", "183437.268000", "183437.271000", "183437.273000", "183437.276000", "183437.278000", "183437.281000", "183437.284000", "183437.286000", "183437.289000", "183437.291000", "183437.294000", "183437.296000", "183437.299000", "183437.301000", "183437.304000", "183437.307000", "183437.309000", "183517.245000", "183517.248000", "183517.250000", "183517.253000", "183517.255000", "183517.258000", "183517.260000", "183517.263000", "183517.266000", "183517.268000", "183517.271000", "183517.273000", "183517.276000", "183517.278000", "183517.281000", "183517.284000", "183517.286000", "183517.289000", "183517.291000", "183517.294000", "183517.296000", "183517.299000", "183517.302000", "183517.304000", "183517.307000", "183517.310000", "183517.312000", "183557.236000", "183557.240000", "183557.242000", "183557.245000", "183557.248000", "183557.251000", "183557.253000", "183557.256000", "183557.258000", "183557.261000", "183557.264000", "183557.268000", "183557.270000", "183557.273000", "183557.276000", "183557.278000", "183557.281000", "183557.283000", "183557.286000", "183557.288000", "183557.291000", "183557.293000", "183557.296000", "183557.299000", "183557.301000", "183557.304000", "183637.245000", "183637.247000", "183637.250000", "183637.252000", "183637.255000", "183637.258000", "183637.260000", "183637.263000", "183637.265000", "183637.268000", "183637.270000", "183637.273000", "183637.276000", "183637.278000", "183637.281000", "183637.283000", "183637.286000", "183637.288000", "183637.291000", "183637.293000", "183637.296000", "183637.299000", "183637.301000", "183637.304000", "183637.306000", "183637.309000", "183637.312000", "183717.259000", "183717.262000", "183717.264000", "183717.267000", "183717.269000", "183717.272000", "183717.275000", "183717.277000", "183717.280000", "183717.282000", "183717.285000", "183717.287000", "183717.290000", "183717.292000", "183717.295000", "183717.298000", "183717.300000", "183717.303000", "183717.305000", "183717.308000", "183717.311000", "183717.313000", "183717.316000", "183717.318000", "183717.321000", "183717.323000", "183717.326000", "183757.238000", "183757.241000", "183757.244000", "183757.246000", "183757.249000", "183757.251000", "183757.254000", "183757.257000", "183757.259000", "183757.262000", "183757.264000", "183757.267000", "183757.269000", "183757.272000", "183757.274000", "183757.277000", "183757.279000", "183757.282000", "183757.285000", "183757.287000", "183757.304000", "183757.306000", "183757.309000", "183757.312000", "183757.314000", "183757.317000", "183757.319000", "183834.458000", "183834.460000", "183834.463000", "183834.465000", "183834.468000", "183834.471000", "183834.473000", "183834.476000", "183834.478000", "183834.481000", "183834.484000", "183834.486000", "183834.489000", "183834.491000", "183834.494000", "183834.496000", "183834.499000", "183834.502000", "183834.504000", "183834.507000", "183834.509000", "183834.512000", "183834.515000", "183834.517000", "183834.520000"],
