{
  "AcquisitionMatrixPE": 104,
  "AcquisitionNumber": 1,
  "AcquisitionTime": "17:41:54.002500",
  "BandwidthPerPixelPhaseEncode": 17.17,
  "BaseResolution": 104,
  "BodyPartExamined": "BRAIN",
  "CoilCombinationMethod": "Sum of Squares",
  "ConsistencyInfo": "N4_VE11C_LATEST_20160120",
  "ConversionSoftware": "dcm2niix",
  "ConversionSoftwareVersion": "v1.0.20211006",
  "DerivedVendorReportedEchoSpacing": 0.000560011,
  "DeviceSerialNumber": "167006",
  "DwellTime": 2.1e-06,
  "EchoTime": 0.037,
  "EchoTrainLength": 104,
  "EffectiveEchoSpacing": 0.000560011,
  "FlipAngle": 52,
  "HeudiconvVersion": "0.11.3.post9+gc939bf8",
  "ImageComments": "Unaliased MB4/PE3/LB",
  "ImageOrientationPatientDICOM": [0.99996, -0.00583002, -0.00685359, 0.00279236, 0.925157, -0.379573],
  "ImageOrientationText": "Tra>Cor(-22.3)>Sag(-0.5)",
  "ImageType": [
    "ORIGINAL",
    "PRIMARY",
    "M",
    "MB",
    "ND",
    "MOSAIC"
],
  "ImagingFrequency": 123.259,
  "InPlanePhaseEncodingDirectionDICOM": "COL",
  "InstitutionAddress": "Chemin Queen-Mary 4565,Montreal,District,CA,H3W 1W5",
  "InstitutionName": "IUGM",
  "InstitutionalDepartmentName": "Department",
  "MRAcquisitionType": "2D",
  "MagneticFieldStrength": 3,
  "Manufacturer": "Siemens",
  "ManufacturersModelName": "Prisma_fit",
  "MatrixCoilMode": "SENSE",
  "Modality": "MR",
  "MultibandAccelerationFactor": 4,
  "PartialFourier": 1,
  "PatientPosition": "HFS",
  "PercentPhaseFOV": 100,
  "PercentSampling": 100,
  "PhaseEncodingDirection": "j",
  "PhaseEncodingSteps": 104,
  "PhaseResolution": 1,
  "PixelBandwidth": 2290,
  "ProcedureStepDescription": "games^mario",
  "ProtocolName": "func_task-mario_run-02",
  "PulseSequenceDetails": "%CustomerSeq%\\cmrr_mbep2d_bold",
  "ReceiveCoilActiveElements": "HC1-7;NC1,2",
  "ReceiveCoilName": "HeadNeck_64",
  "ReconMatrixPE": 104,
  "RepetitionTime": 1.49,
  "SAR": 0.0873067,
  "ScanOptions": "FS",
  "ScanningSequence": "EP",
  "SequenceName": "epfid2d1_104",
  "SequenceVariant": "SK\\SS",
  "SeriesDescription": "func_task-mario_run-02",
  "SeriesNumber": 13,
  "ShimSetting": [607, -7258, -8808, 394, 0, -312, 15, 46],
  "SliceThickness": 2,
  "SliceTiming": [0, 0.785, 0.0975, 0.8825, 0.195, 0.98, 0.295, 1.0775, 0.3925, 1.175, 0.49, 1.275, 0.5875, 1.3725, 0.685, 0, 0.785, 0.0975, 0.8825, 0.195, 0.98, 0.295, 1.0775, 0.3925, 1.175, 0.49, 1.275, 0.5875, 1.3725, 0.685, 0, 0.785, 0.0975, 0.8825, 0.195, 0.98, 0.295, 1.0775, 0.3925, 1.175, 0.49, 1.275, 0.5875, 1.3725, 0.685, 0, 0.785, 0.0975, 0.8825, 0.195, 0.98, 0.295, 1.0775, 0.3925, 1.175, 0.49, 1.275, 0.5875, 1.3725, 0.685],
  "SoftwareVersions": "syngo MR E11",
  "SpacingBetweenSlices": 2,
  "StationName": "MRC35049",
  "TaskName": "mario",
  "TotalReadoutTime": 0.0576811,
  "TxRefAmp": 272.312,
  "WipMemBlock": "e5247089-5bc4-480f-8977-5b3f14c131b0||Sequence: R017 ve11c/master r/75a17815+; Jun 28 2022 16:32:11 by eja",
  "dcmmeta_affine": [
    [-1.999919056892395, 0.005584726110100746, -0.017107142135500908, 103.61846160888672],
    [0.011660046875476837, 1.850314974784851, -0.7590775489807129, -61.43138122558594],
    [-0.013707179576158524, 0.7591465711593628, 1.850272536277771, -48.08674240112305],
    [0.0, 0.0, 0.0, 1.0]
],
  "dcmmeta_reorient_transform": [
    [0.0, -1.0, 0.0, 103.0],
    [1.0, 0.0, 0.0, 0.0],
    [0.0, 0.0, 1.0, 0.0],
    [0.0, 0.0, 0.0, 1.0]
],
  "dcmmeta_shape": [104, 104, 60, 487],
  "dcmmeta_slice_dim": 2,
  "dcmmeta_version": 0.6,
  "global": {
    "const": {
      "AcquisitionMatrix": [104, 0, 0, 104],
      "AngioFlag": "N",
      "BitsAllocated": 16,
      "BitsStored": 16,
      "BodyPartExamined": "BRAIN",
      "Columns": 832,
      "EchoNumbers": 1,
      "EchoTime": 37.0,
      "EchoTrainLength": 104,
      "FlipAngle": 52.0,
      "HighBit": 15,
      "ImageOrientationPatient": [0.99995951874768, -0.0058300233098, -0.0068535898704, 0.00279236304634, 0.92515746248878, -0.3795732766014],
      "ImagePositionPatient": [-834.19705958666, -798.42143357778, 311.42411171349],
      "ImageType": [
        "ORIGINAL",
        "PRIMARY",
        "M",
        "MB",
        "ND",
        "MOSAIC"
],
      "ImagedNucleus": "1H",
      "ImagingFrequency": 123.258734,
      "InPlanePhaseEncodingDirection": "COL",
      "MRAcquisitionType": "2D",
      "MagneticFieldStrength": 3.0,
      "Manufacturer": "SIEMENS",
      "ManufacturerModelName": "Prisma_fit",
      "Modality": "MR",
      "NumberOfAverages": 1.0,
      "NumberOfPhaseEncodingSteps": 104,
      "PercentPhaseFieldOfView": 100.0,
      "PercentSampling": 100.0,
      "PerformedProcedureStepStartTime": "165743.043000",
      "PhotometricInterpretation": "MONOCHROME2",
      "PixelBandwidth": 2290.0,
      "PixelRepresentation": 0,
      "PixelSpacing": [2.0, 2.0],
      "ProtocolName": "func_task-mario_run-02",
      "RepetitionTime": 1490.0,
      "Rows": 832,
      "SAR": 0.08730674891372,
      "SamplesPerPixel": 1,
      "ScanOptions": "FS",
      "ScanningSequence": "EP",
      "SequenceName": "epfid2d1_104",
      "SequenceVariant": [
        "SK",
        "SS"
],
      "SeriesDescription": "func_task-mario_run-02",
      "SeriesNumber": 13,
      "SeriesTime": "174317.139000",
      "SliceLocation": -22.057507648976,
      "SliceThickness": 2.0,
      "SmallestImagePixelValue": 0,
      "SoftwareVersions": "syngo MR E11",
      "SpacingBetweenSlices": 1.9999999550483,
      "SpecificCharacterSet": "ISO_IR 100",
      "StudyID": "1",
      "StudyTime": "165742.967000",
      "TransmitCoilName": "Body",
      "VariableFlipAngleFlag": "N",
      "WindowCenterWidthExplanation": "Algo1",
      "dBdt": 0.0},
    "slices": {}
  },
  "time": {
    "samples": {
      "AcquisitionNumber": [1, 2, 3, 4, 5, 6, 7, 8, 9, 10, 11, 12, 13, 14, 15, 16, 17, 18, 19, 20, 21, 22, 23, 24, 25, 26, 27, 28, 29, 30, 31, 32, 33, 34, 35, 36, 37, 38, 39, 40, 41, 42, 43, 44, 45, 46, 47, 48, 49, 50, 51, 52, 53, 54, 55, 56, 57, 58, 59, 60, 61, 62, 63, 64, 65, 66, 67, 68, 69, 70, 71, 72, 73, 74, 75, 76, 77, 78, 79, 80, 81, 82, 83, 84, 85, 86, 87, 88, 89, 90, 91, 92, 93, 94, 95, 96, 97, 98, 99, 100, 101, 102, 103, 104, 105, 106, 107, 108, 109, 110, 111, 112, 113, 114, 115, 116, 117, 118, 119, 120, 121, 122, 123, 124, 125, 126, 127, 128, 129, 130, 131, 132, 133, 134, 135, 136, 137, 138, 139, 140, 141, 142, 143, 144, 145, 146, 147, 148, 149, 150, 151, 152, 153, 154, 155, 156, 157, 158, 159, 160, 161, 162, 163, 164, 165, 166, 167, 168, 169, 170, 171, 172, 173, 174, 175, 176, 177, 178, 179, 180, 181, 182, 183, 184, 185, 186, 187, 188, 189, 190, 191, 192, 193, 194, 195, 196, 197, 198, 199, 200, 201, 202, 203, 204, 205, 206, 207, 208, 209, 210, 211, 212, 213, 214, 215, 216, 217, 218, 219, 220, 221, 222, 223, 224, 225, 226, 227, 228, 229, 230, 231, 232, 233, 234, 235, 236, 237, 238, 239, 240, 241, 242, 243, 244, 245, 246, 247, 248, 249, 250, 251, 252, 253, 254, 255, 256, 257, 258, 259, 260, 261, 262, 263, 264, 265, 266, 267, 268, 269, 270, 271, 272, 273, 274, 275, 276, 277, 278, 279, 280, 281, 282, 283, 284, 285, 286, 287, 288, 289, 290, 291, 292, 293, 294, 295, 296, 297, 298, 299, 300, 301, 302, 303, 304, 305, 306, 307, 308, 309, 310, 311, 312, 313, 314, 315, 316, 317, 318, 319, 320, 321, 322, 323, 324, 325, 326, 327, 328, 329, 330, 331, 332, 333, 334, 335, 336, 337, 338, 339, 340, 341, 342, 343, 344, 345, 346, 347, 348, 349, 350, 351, 352, 353, 354, 355, 356, 357, 358, 359, 360, 361, 362, 363, 364, 365, 366, 367, 368, 369, 370, 371, 372, 373, 374, 375, 376, 377, 378, 379, 380, 381, 382, 383, 384, 385, 386, 387, 388, 389, 390, 391, 392, 393, 394, 395, 396, 397, 398, 399, 400, 401, 402, 403, 404, 405, 406, 407, 408, 409, 410, 411, 412, 413, 414, 415, 416, 417, 418, 419, 420, 421, 422, 423, 424, 425, 426, 427, 428, 429, 430, 431, 432, 433, 434, 435, 436, 437, 438, 439, 440, 441, 442, 443, 444, 445, 446, 447, 448, 449, 450, 451, 452, 453, 454, 455, 456, 457, 458, 459, 460, 461, 462, 463, 464, 465, 466, 467, 468, 469, 470, 471, 472, 473, 474, 475, 476, 477, 478, 479, 480, 481, 482, 483, 484, 485, 486, 487],
      "AcquisitionTime": ["174154.002500", "174155.492500", "174156.982500", "174158.472500", "174159.962500", "174201.452500", "174202.942500", "174204.432500", "174205.922500", "174207.412500", "174208.902500", "174210.392500", "174211.882500", "174213.372500", "174214.862500", "174216.352500", "174217.842500", "174219.332500", "174220.822500", "174222.312500", "174223.802500", "174225.292500", "174226.782500", "174228.272500", "174229.762500", "174231.252500", "174232.742500", "174234.232500", "174235.722500", "174237.212500", "174238.702500", "174240.192500", "174241.682500", "174243.172500", "174244.662500", "174246.152500", "174247.642500", "174249.132500", "174250.622500", "174252.112500", "174253.602500", "174255.092500", "174256.582500", "174258.072500", "174259.562500", "174301.052500", "174302.542500", "174304.032500", "174305.522500", "174307.012500", "174308.502500", "174309.992500", "174311.482500", "174312.972500", "174314.462500", "174315.952500", "174317.442500", "174318.932500", "174320.422500", "174321.912500", "174323.402500", "174324.892500", "174326.382500", "174327.872500", "174329.362500", "174330.852500", "174332.342500", "174333.832500", "174335.322500", "174336.812500", "174338.302500", "174339.792500", "174341.282500", "174342.772500", "174344.262500", "174345.752500", "174347.242500", "174348.732500", "174350.222500", "174351.712500", "174353.202500", "174354.692500", "174356.182500", "174357.672500", "174359.162500", "174400.652500", "174402.142500", "174403.632500", "174405.122500", "174406.612500", "174408.102500", "174409.592500", "174411.082500", "174412.572500", "174414.062500", "174415.552500", "174417.042500", "174418.532500", "174420.022500", "174421.512500", "174423.002500", "174424.492500", "174425.982500", "174427.472500", "174428.962500", "174430.452500", "174431.942500", "174433.432500", "174434.922500", "174436.412500", "174437.902500", "174439.392500", "174440.882500", "174442.372500", "174443.862500", "174445.352500", "174446.842500", "174448.332500", "174449.822500", "174451.312500", "174452.802500", "174454.292500", "174455.782500", "174457.272500", "174458.762500", "174500.252500", "174501.742500", "174503.232500", "174504.722500", "174506.212500", "174507.702500", "174509.192500", "174510.682500", "174512.172500", "174513.662500", "174515.152500", "174516.642500", "174518.132500", "174519.622500", "174521.112500", "174522.602500", "174524.092500", "174525.582500", "174527.072500", "174528.562500", "174530.052500", "174531.542500", "174533.032500", "174534.522500", "174536.012500", "174537.502500", "174538.992500", "174540.482500", "174541.972500", "174543.462500", "174544.952500", "174546.442500", "174547.932500", "174549.422500", "174550.912500", "174552.402500", "174553.892500", "174555.382500", "174556.872500", "174558.362500", "174559.852500", "174601.342500", "174602.832500", "174604.322500", "174605.812500", "174607.302500", "174608.792500", "174610.282500", "174611.772500", "174613.262500", "174614.752500", "174616.242500", "174617.732500", "174619.222500", "174620.712500", "174622.202500", "174623.692500", "174625.182500", "174626.672500", "174628.162500", "174629.652500", "174631.142500", "174632.632500", "174634.122500", "174635.612500", "174637.102500", "174638.592500", "174640.082500", "174641.572500", "174643.062500", "174644.552500", "174646.042500", "174647.532500", "174649.022500", "174650.512500", "174652.002500", "174653.492500", "174654.982500", "174656.472500", "174657.962500", "174659.452500", "174700.942500", "174702.432500", "174703.922500", "174705.412500", "174706.902500", "174708.392500", "174709.882500", "174711.372500", "174712.862500", "174714.352500", "174715.842500", "174717.332500", "174718.822500", "174720.312500", "174721.802500", "174723.292500", "174724.782500", "174726.272500", "174727.762500", "174729.252500", "174730.742500", "174732.232500", "174733.722500", "174735.212500", "174736.702500", "174738.192500", "174739.682500", "174741.172500", "174742.662500", "174744.152500", "174745.642500", "174747.132500", "174748.622500", "174750.112500", "174751.602500", "174753.092500", "174754.582500", "174756.072500", "174757.562500", "174759.052500", "174800.542500", "174802.032500", "174803.522500", "174805.012500", "174806.502500", "174807.992500", "174809.482500", "174810.972500", "174812.462500", "174813.952500", "174815.442500", "174816.932500", "174818.422500", "174819.912500", "174821.402500", "174822.892500", "174824.382500", "174825.872500", "174827.362500", "174828.852500", "174830.342500", "174831.832500", "174833.322500", "174834.812500", "174836.302500", "174837.792500", "174839.282500", "174840.772500", "174842.262500", "174843.752500", "174845.242500", "174846.732500", "174848.222500", "174849.712500", "174851.202500", "174852.692500", "174854.182500", "174855.672500", "174857.162500", "174858.652500", "174900.142500", "174901.632500", "174903.122500", "174904.612500", "174906.102500", "174907.592500", "174909.082500", "174910.572500", "174912.062500", "174913.552500", "174915.042500", "174916.532500", "174918.022500", "174919.512500", "174921.002500", "174922.492500", "174923.982500", "174925.472500", "174926.962500", "174928.452500", "174929.942500", "174931.432500", "174932.922500", "174934.412500", "174935.902500", "174937.392500", "174938.882500", "174940.372500", "174941.862500", "174943.352500", "174944.842500", "174946.332500", "174947.822500", "174949.312500", "174950.802500", "174952.292500", "174953.782500", "174955.272500", "174956.762500", "174958.252500", "174959.742500", "175001.232500", "175002.722500", "175004.212500", "175005.702500", "175007.192500", "175008.682500", "175010.172500", "175011.662500", "175013.152500", "175014.642500", "175016.132500", "175017.622500", "175019.112500", "175020.602500", "175022.092500", "175023.582500", "175025.072500", "175026.562500", "175028.052500", "175029.542500", "175031.032500", "175032.522500", "175034.012500", "175035.502500", "175036.992500", "175038.482500", "175039.972500", "175041.462500", "175042.952500", "175044.442500", "175045.932500", "175047.422500", "175048.912500", "175050.402500", "175051.892500", "175053.382500", "175054.872500", "175056.362500", "175057.852500", "175059.342500", "175100.832500", "175102.322500", "175103.812500", "175105.302500", "175106.792500", "175108.282500", "175109.772500", "175111.262500", "175112.752500", "175114.242500", "175115.732500", "175117.222500", "175118.712500", "175120.202500", "175121.692500", "175123.182500", "175124.672500", "175126.162500", "175127.652500", "175129.142500", "175130.632500", "175132.122500", "175133.612500", "175135.102500", "175136.592500", "175138.082500", "175139.572500", "175141.062500", "175142.552500", "175144.042500", "175145.532500", "175147.022500", "175148.512500", "175150.002500", "175151.492500", "175152.982500", "175154.472500", "175155.962500", "175157.452500", "175158.942500", "175200.432500", "175201.922500", "175203.412500", "175204.902500", "175206.392500", "175207.882500", "175209.372500", "175210.862500", "175212.352500", "175213.842500", "175215.332500", "175216.822500", "175218.312500", "175219.802500", "175221.292500", "175222.782500", "175224.272500", "175225.762500", "175227.252500", "175228.742500", "175230.232500", "175231.722500", "175233.212500", "175234.702500", "175236.192500", "175237.682500", "175239.172500", "175240.662500", "175242.152500", "175243.642500", "175245.132500", "175246.622500", "175248.112500", "175249.602500", "175251.092500", "175252.582500", "175254.072500", "175255.562500", "175257.052500", "175258.542500", "175300.032500", "175301.522500", "175303.012500", "175304.502500", "175305.992500", "175307.482500", "175308.972500", "175310.462500", "175311.952500", "175313.442500", "175314.932500", "175316.422500", "175317.912500", "175319.402500", "175320.892500", "175322.382500", "175323.872500", "175325.362500", "175326.852500", "175328.342500", "175329.832500", "175331.322500", "175332.812500", "175334.302500", "175335.792500", "175337.282500", "175338.772500", "175340.262500", "175341.752500", "175343.242500", "175344.732500", "175346.222500", "175347.712500", "175349.202500", "175350.692500", "175352.182500", "175353.672500", "175355.162500", "175356.652500", "175358.142500"],
      "ContentTime": ["174317.142000", "174317.146000", "174317.149000", "174317.152000", "174317.156000", "174317.159000", "174317.163000", "174317.166000", "174317.169000", "174317.173000", "174317.176000", "174317.180000", "174317.183000", "174317.186000", "174317.190000", "174317.193000", "174317.197000", "174317.200000", "174317.203000", "174317.207000", "174317.210000", "174317.214000", "174317.217000", "174317.220000", "174317.224000", "174317.227000", "174317.230000", "174317.234000", "174317.237000", "174317.241000", "174317.244000", "174317.247000", "174317.251000", "174317.260000", "174317.263000", "174337.102000", "174337.106000", "174337.109000", "174337.113000", "174337.116000", "174337.120000", "174337.123000", "174337.126000", "174337.130000", "174337.133000", "174337.136000", "174337.140000", "174337.143000", "174337.146000", "174337.150000", "174337.153000", "174337.156000", "174337.160000", "174337.163000", "174337.167000", "174357.102000", "174357.106000", "174357.109000", "174357.113000", "174357.116000", "174357.120000", "174357.123000", "174357.126000", "174357.130000", "174357.133000", "174357.137000", "174357.140000", "174357.143000", "174357.147000", "174357.150000", "174357.153000", "174357.157000", "174357.161000", "174357.164000", "174357.167000", "174417.101000", "174417.105000", "174417.130000", "174417.133000", "174417.137000", "174417.140000", "174417.143000", "174417.147000", "174417.150000", "174417.153000", "174417.157000", "174417.160000", "174417.164000", "174417.167000", "174417.170000", "174417.174000", "174417.177000", "174417.180000", "174417.184000", "174417.187000", "174457.102000", "174457.105000", "174457.109000", "174457.112000", "174457.116000", "174457.119000", "174457.123000", "174457.126000", "174457.129000", "174457.133000", "174457.137000", "174457.141000", "174457.144000", "174457.148000", "174457.151000", "174457.155000", "174457.158000", "174457.163000", "174457.166000", "174457.170000", "174457.174000", "174457.177000", "174457.181000", "174457.185000", "174457.189000", "174457.194000", "174457.197000", "174537.102000", "174537.106000", "174537.110000", "174537.113000", "174537.116000", "174537.120000", "174537.123000", "174537.126000", "174537.130000", "174537.133000", "174537.137000", "174537.140000", "174537.144000", "174537.147000", "174537.150000", "174537.154000", "174537.157000", "174537.161000", "174537.164000", "174537.168000", "174537.171000", "174537.174000", "174537.178000", "174537.181000", "174537.185000", "174537.188000", "174537.192000", "174617.102000", "174617.106000", "174617.110000", "174617.113000", "174617.116000", "174617.120000", "174617.123000", "174617.127000", "174617.130000", "174617.134000", "174617.137000", "174617.140000", "174617.144000", "174617.147000", "174617.151000", "174617.155000", "174617.158000", "174617.162000", "174617.165000", "174617.169000", "174617.172000", "174617.176000", "174617.180000", "174617.183000", "174617.187000", "174617.190000", "174657.101000", "174657.105000", "174657.109000", "174657.113000", "174657.116000", "174657.120000", "174657.123000", "174657.127000", "174657.130000", "174657.134000", "174657.137000", "174657.141000", "174657.144000", "174657.147000", "174657.151000", "174657.163000", "174657.166000", "174657.170000", "174657.173000", "174657.176000", "174657.180000", "174657.183000", "174657.186000", "174657.190000", "174657.193000", "174657.196000", "174657.200000", "174737.101000", "174737.105000", "174737.109000", "174737.112000", "174737.115000", "174737.119000", "174737.122000", "174737.126000", "174737.129000", "174737.133000", "174737.136000", "174737.140000", "174737.143000", "174737.147000", "174737.150000", "174737.154000", "174737.157000", "174737.160000", "174737.164000", "174737.167000", "174737.171000", "174737.174000", "174737.178000", "174737.181000", "174737.184000", "174737.188000", "174737.191000", "174817.102000", "174817.106000", "174817.109000", "174817.113000", "174817.116000", "174817.120000", "174817.123000", "174817.127000", "174817.130000", "174817.133000", "174817.137000", "174817.140000", "174817.144000", "174817.147000", "174817.150000", "174817.154000", "174817.157000", "174817.161000", "174817.164000", "174817.167000", "174817.171000", "174817.174000", "174817.178000", "174817.181000", "174817.184000", "174817.188000", "174817.191000", "174857.101000", "174857.105000", "174857.109000", "174857.112000", "174857.115000", "174857.119000", "174857.122000", "174857.125000", "174857.129000", "174857.132000", "174857.136000", "174857.139000", "174857.142000", "174857.146000", "174857.149000", "174857.153000", "174857.156000", "174857.159000", "174857.163000", "174857.166000", "174857.170000", "174857.173000", "174857.176000", "174857.180000", "174857.183000", "174857.187000", "174857.190000", "174917.101000", "174917.105000", "174917.109000", "174917.112000", "174917.115000", "174917.119000", "174917.122000", "174917.126000", "174917.129000", "174917.132000", "174917.136000", "174917.139000", "174917.143000", "174957.101000", "174957.105000", "174957.109000", "174957.112000", "174957.116000", "174957.119000", "174957.123000", "174957.126000", "174957.130000", "174957.133000", "174957.137000", "174957.140000", "174957.143000", "174957.147000", "174957.150000", "174957.153000", "174957.157000", "174957.160000", "174957.164000", "174957.167000", "174957.170000", "174957.174000", "174957.177000", "174957.181000", "174957.184000", "174957.187000", "174957.191000", "175037.102000", "175037.106000", "175037.110000", "175037.113000", "175037.116000", "175037.120000", "175037.123000", "175037.127000", "175037.130000", "175037.134000", "175037.137000", "175037.140000", "175037.144000", "175037.147000", "175037.151000", "175037.154000", "175037.166000", "175037.169000", "175037.173000", "175037.176000", "175037.180000", "175037.183000", "175037.186000", "175037.190000", "175037.193000", "175037.197000", "175037.200000", "175117.101000", "175117.105000", "175117.109000", "175117.112000", "175117.115000", "175117.119000", "175117.122000", "175117.126000", "175117.129000", "175117.133000", "175117.136000", "175117.139000", "175117.143000", "175117.146000", "175117.150000", "175117.153000", "175117.157000", "175117.160000", "175117.163000", "175117.167000", "175117.170000", "175117.174000", "175117.179000", "175117.182000", "175117.185000", "175117.189000", "175117.192000", "175157.101000", "175157.132000", "175157.135000", "175157.139000", "175157.142000", "175157.145000", "175157.149000", "175157.152000", "175157.156000", "175157.159000", "175157.162000", "175157.166000", "175157.169000", "175157.173000", "175157.176000", "175157.179000", "175157.183000", "175157.186000", "175157.190000", "175157.193000", "175157.196000", "175157.200000", "175157.203000", "175157.207000", "175157.210000", "175157.213000", "175237.103000", "175237.107000", "175237.111000", "175237.114000", "175237.118000", "175237.123000", "175237.128000", "175237.132000", "175237.135000", "175237.139000", "175237.142000", "175237.146000", "175237.149000", "175237.152000", "175237.156000", "175237.159000", "175237.163000", "175237.166000", "175237.169000", "175237.173000", "175237.176000", "175237.180000", "175237.183000", "175237.186000", "175237.190000", "175237.193000", "175237.197000", "175317.102000", "175317.106000", "175317.110000", "175317.113000", "175317.116000", "175317.120000", "175317.123000", "175317.127000", "175317.130000", "175317.133000", "175317.137000", "175317.140000", "175317.143000", "175317.147000", "175317.150000", "175317.154000", "175317.157000", "175317.161000", "175317.164000", "175317.167000", "175317.171000", "175317.174000", "175317.177000", "175317.181000", "175317.184000", "175317.188000", "175317.191000", "175357.101000", "175357.105000", "175357.109000", "175357.112000", "175357.115000", "175357.119000", "175357.122000", "175357.126000", "175357.129000", "175357.132000", "175357.136000", "175357.139000", "175357.143000", "175357.146000", "175357.150000", "175357.153000", "175357.156000", "175357.160000", "175357.163000", "175357.167000", "175357.170000", "175357.174000", "175357.177000", "175357.180000", "175357.184000", "175357.187000", "175357.191000", "175401.852000", "175401.856000", "175401.859000"],
