{
  "AcquisitionMatrixPE": 104,
  "AcquisitionNumber": 1,
  "AcquisitionTime": "18:14:15.620000",
  "BandwidthPerPixelPhaseEncode": 17.17,
  "BaseResolution": 104,
  "BodyPartExamined": "BRAIN",
  "CoilCombinationMethod": "Sum of Squares",
  "ConsistencyInfo": "N4_VE11C_LATEST_20160120",
  "ConversionSoftware": "dcm2niix",
  "ConversionSoftwareVersion": "v1.0.20211006",
  "DerivedVendorReportedEchoSpacing": 0.000560011,
  "DeviceSerialNumber": "167006",
  "DwellTime": 2.1e-06,
  "EchoTime": 0.037,
  "EchoTime1": 0.037,
  "EchoTime2": 0.001,
  "EchoTrainLength": 104,
  "EffectiveEchoSpacing": 0.000560011,
  "FlipAngle": 52,
  "HeudiconvVersion": "0.11.3.post9+gc939bf8",
  "ImageComments": "Unaliased MB4/PE3/LB",
  "ImageOrientationPatientDICOM": [0.99996, -0.00583002, -0.00685359, 0.00279236, 0.925157, -0.379573],
  "ImageOrientationText": "Tra>Cor(-22.3)>Sag(-0.5)",
  "ImageType": [
    "ORIGINAL",
    "PRIMARY",
    "P",
    "MB",
    "ND",
    "MOSAIC",
    "PHASE"
],
  "ImagingFrequency": 123.259,
  "InPlanePhaseEncodingDirectionDICOM": "COL",
  "InstitutionAddress": "Chemin Queen-Mary 4565,Montreal,District,CA,H3W 1W5",
  "InstitutionName": "IUGM",
  "InstitutionalDepartmentName": "Department",
  "MRAcquisitionType": "2D",
  "MagneticFieldStrength": 3,
  "Manufacturer": "Siemens",
  "ManufacturersModelName": "Prisma_fit",
  "MatrixCoilMode": "SENSE",
  "Modality": "MR",
  "MultibandAccelerationFactor": 4,
  "PartialFourier": 1,
  "PatientPosition": "HFS",
  "PercentPhaseFOV": 100,
  "PercentSampling": 100,
  "PhaseEncodingDirection": "j",
  "PhaseEncodingSteps": 104,
  "PhaseResolution": 1,
  "PixelBandwidth": 2290,
  "ProcedureStepDescription": "games^mario",
  "ProtocolName": "func_task-mario_run-04",
  "PulseSequenceDetails": "%CustomerSeq%\\cmrr_mbep2d_bold",
  "ReceiveCoilActiveElements": "HC1-7;NC1,2",
  "ReceiveCoilName": "HeadNeck_64",
  "ReconMatrixPE": 104,
  "RepetitionTime": 1.49,
  "SAR": 0.0873067,
  "ScanOptions": "FS",
  "ScanningSequence": "EP",
  "SequenceName": "epfid2d1_104",
  "SequenceVariant": "SK\\SS",
  "SeriesDescription": "func_task-mario_run-04",
  "SeriesNumber": 20,
  "ShimSetting": [607, -7258, -8808, 394, 0, -312, 15, 46],
  "SliceThickness": 2,
  "SliceTiming": [0, 0.7825, 0.0975, 0.8825, 0.195, 0.98, 0.295, 1.0775, 0.3925, 1.175, 0.49, 1.2725, 0.5875, 1.3725, 0.685, 0, 0.7825, 0.0975, 0.8825, 0.195, 0.98, 0.295, 1.0775, 0.3925, 1.175, 0.49, 1.2725, 0.5875, 1.3725, 0.685, 0, 0.7825, 0.0975, 0.8825, 0.195, 0.98, 0.295, 1.0775, 0.3925, 1.175, 0.49, 1.2725, 0.5875, 1.3725, 0.685, 0, 0.7825, 0.0975, 0.8825, 0.195, 0.98, 0.295, 1.0775, 0.3925, 1.175, 0.49, 1.2725, 0.5875, 1.3725, 0.685],
  "SoftwareVersions": "syngo MR E11",
  "SpacingBetweenSlices": 2,
  "StationName": "MRC35049",
  "TaskName": "mario",
  "TotalReadoutTime": 0.0576811,
  "TxRefAmp": 272.312,
  "WipMemBlock": "9dbe0184-24c0-4475-8b21-a3e37a327f30||Sequence: R017 ve11c/master r/75a17815+; Jun 28 2022 16:32:11 by eja",
  "dcmmeta_affine": [
    [-1.999919056892395, 0.005584726110100746, -0.017107142135500908, 103.61846160888672],
    [0.011660046875476837, 1.850314974784851, -0.7590775489807129, -61.43138122558594],
    [-0.013707179576158524, 0.7591465711593628, 1.850272536277771, -48.08674240112305],
    [0.0, 0.0, 0.0, 1.0]
],
  "dcmmeta_reorient_transform": [
    [0.0, -1.0, 0.0, 103.0],
    [1.0, 0.0, 0.0, 0.0],
    [0.0, 0.0, 1.0, 0.0],
    [0.0, 0.0, 0.0, 1.0]
],
  "dcmmeta_shape": [104, 104, 60, 452],
  "dcmmeta_slice_dim": 2,
  "dcmmeta_version": 0.6,
  "global": {
    "const": {
      "AcquisitionMatrix": [104, 0, 0, 104],
      "AngioFlag": "N",
      "BitsAllocated": 16,
      "BitsStored": 16,
      "BodyPartExamined": "BRAIN",
      "Columns": 832,
      "EchoNumbers": 1,
      "EchoTime": 37.0,
      "EchoTrainLength": 104,
      "FlipAngle": 52.0,
      "HighBit": 15,
      "ImageOrientationPatient": [0.99995951874768, -0.0058300233098, -0.0068535898704, 0.00279236304634, 0.92515746248878, -0.3795732766014],
      "ImagePositionPatient": [-834.19705958666, -798.42143357778, 311.42411171349],
      "ImageType": [
        "ORIGINAL",
        "PRIMARY",
        "P",
        "MB",
        "ND",
        "MOSAIC"
],
      "ImagedNucleus": "1H",
      "ImagingFrequency": 123.258752,
      "InPlanePhaseEncodingDirection": "COL",
      "LargestImagePixelValue": 4095,
      "MRAcquisitionType": "2D",
      "MagneticFieldStrength": 3.0,
      "Manufacturer": "SIEMENS",
      "ManufacturerModelName": "Prisma_fit",
      "Modality": "MR",
      "NumberOfAverages": 1.0,
      "NumberOfPhaseEncodingSteps": 104,
      "PercentPhaseFieldOfView": 100.0,
      "PercentSampling": 100.0,
      "PerformedProcedureStepStartTime": "165743.043000",
      "PhotometricInterpretation": "MONOCHROME2",
      "PixelBandwidth": 2290.0,
      "PixelRepresentation": 0,
      "PixelSpacing": [2.0, 2.0],
      "ProtocolName": "func_task-mario_run-04",
      "RepetitionTime": 1490.0,
      "RescaleIntercept": -4096.0,
      "RescaleSlope": 2.0,
      "RescaleType": "US",
      "Rows": 832,
      "SAR": 0.08730674891372,
      "SamplesPerPixel": 1,
      "ScanOptions": "FS",
      "ScanningSequence": "EP",
      "SequenceName": "epfid2d1_104",
      "SequenceVariant": [
        "SK",
        "SS"
],
      "SeriesDescription": "func_task-mario_run-04",
      "SeriesNumber": 20,
      "SeriesTime": "181541.143000",
      "SliceLocation": -22.057507648976,
      "SliceThickness": 2.0,
      "SmallestImagePixelValue": 0,
      "SoftwareVersions": "syngo MR E11",
      "SpacingBetweenSlices": 1.9999999550483,
      "SpecificCharacterSet": "ISO_IR 100",
      "StudyID": "1",
      "StudyTime": "165742.967000",
      "TransmitCoilName": "Body",
      "VariableFlipAngleFlag": "N",
      "WindowCenterWidthExplanation": "Algo1",
      "dBdt": 0.0},
    "slices": {}
  },
  "time": {
    "samples": {
      "AcquisitionNumber": [1, 2, 3, 4, 5, 6, 7, 8, 9, 10, 11, 12, 13, 14, 15, 16, 17, 18, 19, 20, 21, 22, 23, 24, 25, 26, 27, 28, 29, 30, 31, 32, 33, 34, 35, 36, 37, 38, 39, 40, 41, 42, 43, 44, 45, 46, 47, 48, 49, 50, 51, 52, 53, 54, 55, 56, 57, 58, 59, 60, 61, 62, 63, 64, 65, 66, 67, 68, 69, 70, 71, 72, 73, 74, 75, 76, 77, 78, 79, 80, 81, 82, 83, 84, 85, 86, 87, 88, 89, 90, 91, 92, 93, 94, 95, 96, 97, 98, 99, 100, 101, 102, 103, 104, 105, 106, 107, 108, 109, 110, 111, 112, 113, 114, 115, 116, 117, 118, 119, 120, 121, 122, 123, 124, 125, 126, 127, 128, 129, 130, 131, 132, 133, 134, 135, 136, 137, 138, 139, 140, 141, 142, 143, 144, 145, 146, 147, 148, 149, 150, 151, 152, 153, 154, 155, 156, 157, 158, 159, 160, 161, 162, 163, 164, 165, 166, 167, 168, 169, 170, 171, 172, 173, 174, 175, 176, 177, 178, 179, 180, 181, 182, 183, 184, 185, 186, 187, 188, 189, 190, 191, 192, 193, 194, 195, 196, 197, 198, 199, 200, 201, 202, 203, 204, 205, 206, 207, 208, 209, 210, 211, 212, 213, 214, 215, 216, 217, 218, 219, 220, 221, 222, 223, 224, 225, 226, 227, 228, 229, 230, 231, 232, 233, 234, 235, 236, 237, 238, 239, 240, 241, 242, 243, 244, 245, 246, 247, 248, 249, 250, 251, 252, 253, 254, 255, 256, 257, 258, 259, 260, 261, 262, 263, 264, 265, 266, 267, 268, 269, 270, 271, 272, 273, 274, 275, 276, 277, 278, 279, 280, 281, 282, 283, 284, 285, 286, 287, 288, 289, 290, 291, 292, 293, 294, 295, 296, 297, 298, 299, 300, 301, 302, 303, 304, 305, 306, 307, 308, 309, 310, 311, 312, 313, 314, 315, 316, 317, 318, 319, 320, 321, 322, 323, 324, 325, 326, 327, 328, 329, 330, 331, 332, 333, 334, 335, 336, 337, 338, 339, 340, 341, 342, 343, 344, 345, 346, 347, 348, 349, 350, 351, 352, 353, 354, 355, 356, 357, 358, 359, 360, 361, 362, 363, 364, 365, 366, 367, 368, 369, 370, 371, 372, 373, 374, 375, 376, 377, 378, 379, 380, 381, 382, 383, 384, 385, 386, 387, 388, 389, 390, 391, 392, 393, 394, 395, 396, 397, 398, 399, 400, 401, 402, 403, 404, 405, 406, 407, 408, 409, 410, 411, 412, 413, 414, 415, 416, 417, 418, 419, 420, 421, 422, 423, 424, 425, 426, 427, 428, 429, 430, 431, 432, 433, 434, 435, 436, 437, 438, 439, 440, 441, 442, 443, 444, 445, 446, 447, 448, 449, 450, 451, 452],
      "AcquisitionTime": ["181415.620000", "181417.110000", "181418.600000", "181420.090000", "181421.580000", "181423.070000", "181424.560000", "181426.050000", "181427.540000", "181429.030000", "181430.520000", "181432.010000", "181433.500000", "181434.990000", "181436.480000", "181437.970000", "181439.460000", "181440.950000", "181442.440000", "181443.930000", "181445.420000", "181446.910000", "181448.400000", "181449.890000", "181451.380000", "181452.870000", "181454.360000", "181455.850000", "181457.340000", "181458.830000", "181500.320000", "181501.810000", "181503.300000", "181504.790000", "181506.280000", "181507.770000", "181509.260000", "181510.750000", "181512.240000", "181513.730000", "181515.220000", "181516.710000", "181518.200000", "181519.690000", "181521.180000", "181522.670000", "181524.160000", "181525.650000", "181527.140000", "181528.630000", "181530.120000", "181531.610000", "181533.100000", "181534.590000", "181536.080000", "181537.570000", "181539.060000", "181540.550000", "181542.040000", "181543.530000", "181545.020000", "181546.510000", "181548.000000", "181549.490000", "181550.980000", "181552.470000", "181553.960000", "181555.450000", "181556.940000", "181558.430000", "181559.920000", "181601.410000", "181602.900000", "181604.390000", "181605.880000", "181607.370000", "181608.860000", "181610.350000", "181611.840000", "181613.330000", "181614.820000", "181616.310000", "181617.800000", "181619.290000", "181620.780000", "181622.270000", "181623.760000", "181625.250000", "181626.740000", "181628.230000", "181629.720000", "181631.210000", "181632.700000", "181634.190000", "181635.680000", "181637.170000", "181638.660000", "181640.150000", "181641.640000", "181643.130000", "181644.620000", "181646.110000", "181647.600000", "181649.090000", "181650.580000", "181652.070000", "181653.560000", "181655.050000", "181656.540000", "181658.030000", "181659.520000", "181701.010000", "181702.500000", "181703.990000", "181705.480000", "181706.970000", "181708.460000", "181709.950000", "181711.440000", "181712.930000", "181714.420000", "181715.910000", "181717.400000", "181718.890000", "181720.380000", "181721.870000", "181723.360000", "181724.850000", "181726.340000", "181727.830000", "181729.320000", "181730.810000", "181732.300000", "181733.790000", "181735.280000", "181736.770000", "181738.260000", "181739.750000", "181741.240000", "181742.730000", "181744.220000", "181745.710000", "181747.200000", "181748.690000", "181750.180000", "181751.670000", "181753.160000", "181754.650000", "181756.140000", "181757.630000", "181759.120000", "181800.610000", "181802.100000", "181803.590000", "181805.080000", "181806.570000", "181808.060000", "181809.550000", "181811.040000", "181812.530000", "181814.020000", "181815.510000", "181817.000000", "181818.490000", "181819.980000", "181821.470000", "181822.960000", "181824.450000", "181825.940000", "181827.430000", "181828.920000", "181830.410000", "181831.900000", "181833.390000", "181834.880000", "181836.370000", "181837.860000", "181839.350000", "181840.840000", "181842.330000", "181843.820000", "181845.310000", "181846.800000", "181848.290000", "181849.780000", "181851.270000", "181852.760000", "181854.250000", "181855.740000", "181857.230000", "181858.720000", "181900.210000", "181901.700000", "181903.190000", "181904.680000", "181906.170000", "181907.660000", "181909.150000", "181910.640000", "181912.130000", "181913.620000", "181915.110000", "181916.600000", "181918.090000", "181919.580000", "181921.070000", "181922.560000", "181924.050000", "181925.540000", "181927.030000", "181928.520000", "181930.010000", "181931.500000", "181932.990000", "181934.480000", "181935.970000", "181937.460000", "181938.950000", "181940.440000", "181941.930000", "181943.420000", "181944.910000", "181946.400000", "181947.890000", "181949.380000", "181950.870000", "181952.360000", "181953.850000", "181955.340000", "181956.830000", "181958.320000", "181959.810000", "182001.300000", "182002.790000", "182004.280000", "182005.770000", "182007.260000", "182008.750000", "182010.240000", "182011.730000", "182013.220000", "182014.710000", "182016.200000", "182017.690000", "182019.180000", "182020.670000", "182022.160000", "182023.650000", "182025.140000", "182026.630000", "182028.120000", "182029.610000", "182031.100000", "182032.590000", "182034.080000", "182035.570000", "182037.060000", "182038.550000", "182040.040000", "182041.530000", "182043.020000", "182044.510000", "182046.000000", "182047.490000", "182048.980000", "182050.470000", "182051.960000", "182053.450000", "182054.940000", "182056.430000", "182057.920000", "182059.410000", "182100.900000", "182102.390000", "182103.880000", "182105.370000", "182106.860000", "182108.350000", "182109.840000", "182111.330000", "182112.820000", "182114.310000", "182115.800000", "182117.290000", "182118.780000", "182120.270000", "182121.760000", "182123.250000", "182124.740000", "182126.230000", "182127.720000", "182129.210000", "182130.700000", "182132.190000", "182133.680000", "182135.170000", "182136.660000", "182138.150000", "182139.640000", "182141.130000", "182142.620000", "182144.110000", "182145.600000", "182147.090000", "182148.580000", "182150.070000", "182151.560000", "182153.050000", "182154.540000", "182156.030000", "182157.520000", "182159.010000", "182200.500000", "182201.990000", "182203.480000", "182204.970000", "182206.460000", "182207.950000", "182209.440000", "182210.930000", "182212.420000", "182213.910000", "182215.400000", "182216.890000", "182218.380000", "182219.870000", "182221.360000", "182222.850000", "182224.340000", "182225.830000", "182227.320000", "182228.810000", "182230.300000", "182231.790000", "182233.280000", "182234.770000", "182236.260000", "182237.750000", "182239.240000", "182240.730000", "182242.220000", "182243.710000", "182245.200000", "182246.690000", "182248.180000", "182249.670000", "182251.160000", "182252.650000", "182254.140000", "182255.630000", "182257.120000", "182258.610000", "182300.100000", "182301.590000", "182303.080000", "182304.570000", "182306.060000", "182307.550000", "182309.040000", "182310.530000", "182312.020000", "182313.510000", "182315.000000", "182316.490000", "182317.980000", "182319.470000", "182320.960000", "182322.450000", "182323.940000", "182325.430000", "182326.920000", "182328.410000", "182329.900000", "182331.390000", "182332.880000", "182334.370000", "182335.860000", "182337.350000", "182338.840000", "182340.330000", "182341.820000", "182343.310000", "182344.800000", "182346.290000", "182347.780000", "182349.270000", "182350.760000", "182352.250000", "182353.740000", "182355.230000", "182356.720000", "182358.210000", "182359.700000", "182401.190000", "182402.680000", "182404.170000", "182405.660000", "182407.150000", "182408.640000", "182410.130000", "182411.620000", "182413.110000", "182414.600000", "182416.090000", "182417.580000", "182419.070000", "182420.560000", "182422.050000", "182423.540000", "182425.030000", "182426.520000", "182428.010000", "182429.500000", "182430.990000", "182432.480000", "182433.970000", "182435.460000", "182436.950000", "182438.440000", "182439.930000", "182441.420000", "182442.910000", "182444.400000", "182445.890000", "182447.380000", "182448.870000", "182450.360000", "182451.850000", "182453.340000", "182454.830000", "182456.320000", "182457.810000", "182459.300000", "182500.790000", "182502.280000", "182503.770000", "182505.260000", "182506.750000", "182508.240000", "182509.730000", "182511.220000", "182512.710000", "182514.200000", "182515.690000", "182517.180000", "182518.670000", "182520.160000", "182521.650000", "182523.140000", "182524.630000", "182526.120000", "182527.610000"],
      "ContentTime": ["181541.145000", "181541.148000", "181541.150000", "181541.153000", "181541.155000", "181541.158000", "181541.161000", "181541.163000", "181541.166000", "181541.168000", "181541.171000", "181541.173000", "181541.176000", "181541.198000", "181541.201000", "181541.203000", "181541.206000", "181541.208000", "181541.211000", "181541.214000", "181541.216000", "181541.219000", "181541.221000", "181541.224000", "181541.226000", "181541.229000", "181541.231000", "181541.234000", "181541.236000", "181541.239000", "181541.241000", "181541.244000", "181541.246000", "181541.249000", "181541.252000", "181601.062000", "181601.065000", "181601.067000", "181601.070000", "181601.072000", "181601.075000", "181601.078000", "181601.080000", "181601.083000", "181601.085000", "181601.088000", "181601.091000", "181601.093000", "181601.096000", "181601.098000", "181601.101000", "181601.103000", "181601.123000", "181601.126000", "181601.129000", "181621.056000", "181621.059000", "181621.061000", "181621.065000", "181621.067000", "181621.070000", "181621.073000", "181621.076000", "181621.078000", "181621.081000", "181621.083000", "181621.086000", "181621.088000", "181621.091000", "181621.093000", "181621.096000", "181621.099000", "181621.101000", "181621.104000", "181621.106000", "181641.049000", "181641.051000", "181641.054000", "181641.056000", "181641.059000", "181641.062000", "181641.064000", "181641.067000", "181641.069000", "181641.072000", "181641.074000", "181641.077000", "181641.079000", "181641.082000", "181641.084000", "181641.087000", "181641.089000", "181641.092000", "181641.096000", "181641.098000", "181641.101000", "181721.067000", "181721.070000", "181721.073000", "181721.075000", "181721.078000", "181721.080000", "181721.083000", "181721.085000", "181721.088000", "181721.091000", "181721.093000", "181721.096000", "181721.098000", "181721.101000", "181721.103000", "181721.106000", "181721.108000", "181721.111000", "181721.113000", "181721.116000", "181721.119000", "181721.121000", "181721.124000", "181721.126000", "181721.129000", "181721.131000", "181721.134000", "181801.069000", "181801.072000", "181801.074000", "181801.077000", "181801.079000", "181801.082000", "181801.085000", "181801.087000", "181801.090000", "181801.092000", "181801.095000", "181801.097000", "181801.100000", "181801.102000", "181801.105000", "181801.108000", "181801.110000", "181801.113000", "181801.115000", "181801.118000", "181801.121000", "181801.123000", "181801.126000", "181801.128000", "181801.131000", "181801.134000", "181801.136000", "181841.088000", "181841.091000", "181841.093000", "181841.096000", "181841.099000", "181841.101000", "181841.104000", "181841.106000", "181841.109000", "181841.111000", "181841.114000", "181841.116000", "181841.119000", "181841.122000", "181841.124000", "181841.127000", "181841.129000", "181841.132000", "181841.134000", "181841.137000", "181841.140000", "181841.142000", "181841.145000", "181841.147000", "181841.150000", "181841.152000", "181841.155000", "181901.462000", "181901.465000", "181901.468000", "181901.470000", "181901.473000", "181901.475000", "181901.478000", "181901.481000", "181901.483000", "181901.486000", "181901.488000", "181901.491000", "181901.493000", "181941.065000", "181941.068000", "181941.071000", "181941.073000", "181941.076000", "181941.078000", "181941.081000", "181941.084000", "181941.087000", "181941.089000", "181941.092000", "181941.094000", "181941.097000", "181941.099000", "181941.102000", "181941.104000", "181941.107000", "181941.110000", "181941.112000", "181941.115000", "181941.117000", "181941.120000", "181941.122000", "181941.125000", "181941.127000", "181941.130000", "181941.133000", "182021.091000", "182021.094000", "182021.096000", "182021.099000", "182021.102000", "182021.104000", "182021.107000", "182021.109000", "182021.112000", "182021.114000", "182021.117000", "182021.120000", "182021.122000", "182021.125000", "182021.127000", "182021.130000", "182021.132000", "182021.135000", "182021.138000", "182021.140000", "182021.143000", "182021.145000", "182021.148000", "182021.150000", "182021.153000", "182021.155000", "182021.158000", "182101.082000", "182101.085000", "182101.087000", "182101.090000", "182101.092000", "182101.095000", "182101.097000", "182101.100000", "182101.103000", "182101.105000", "182101.108000", "182101.110000", "182101.113000", "182101.115000", "182101.118000", "182101.120000", "182101.123000", "182101.126000", "182101.128000", "182101.131000", "182101.133000", "182101.136000", "182101.138000", "182101.141000", "182101.143000", "182101.146000", "182101.148000", "182141.170000", "182141.173000", "182141.175000", "182141.178000", "182141.180000", "182141.183000", "182141.185000", "182141.188000", "182141.191000", "182141.193000", "182141.196000", "182141.198000", "182141.201000", "182141.203000", "182141.206000", "182141.209000", "182141.211000", "182141.214000", "182141.216000", "182141.219000", "182141.221000", "182141.224000", "182141.226000", "182141.229000", "182141.231000", "182141.234000", "182141.237000", "182221.087000", "182221.090000", "182221.093000", "182221.095000", "182221.098000", "182221.100000", "182221.103000", "182221.105000", "182221.108000", "182221.111000", "182221.113000", "182221.116000", "182221.118000", "182221.121000", "182221.123000", "182221.126000", "182221.128000", "182221.131000", "182221.133000", "182221.136000", "182221.139000", "182221.141000", "182221.144000", "182221.146000", "182221.149000", "182221.151000", "182301.072000", "182301.075000", "182301.078000", "182301.080000", "182301.083000", "182301.085000", "182301.088000", "182301.090000", "182301.093000", "182301.096000", "182301.099000", "182301.101000", "182301.104000", "182301.106000", "182301.109000", "182301.111000", "182301.114000", "182301.116000", "182301.119000", "182301.121000", "182301.124000", "182301.127000", "182301.129000", "182301.132000", "182301.134000", "182301.137000", "182301.140000", "182341.063000", "182341.066000", "182341.069000", "182341.071000", "182341.074000", "182341.076000", "182341.079000", "182341.081000", "182341.084000", "182341.087000", "182341.089000", "182341.092000", "182341.094000", "182341.097000", "182341.099000", "182341.102000", "182341.105000", "182341.107000", "182341.110000", "182341.112000", "182341.115000", "182341.117000", "182341.120000", "182341.122000", "182341.125000", "182341.127000", "182341.130000", "182421.061000", "182421.064000", "182421.067000", "182421.070000", "182421.072000", "182421.075000", "182421.077000", "182421.080000", "182421.082000", "182421.085000", "182421.087000", "182421.090000", "182421.093000", "182421.095000", "182421.098000", "182421.100000", "182421.103000", "182421.105000", "182421.108000", "182421.110000", "182421.113000", "182421.116000", "182421.118000", "182421.121000", "182421.123000", "182421.126000", "182421.128000", "182501.073000", "182501.075000", "182501.078000", "182501.080000", "182501.083000", "182501.086000", "182501.088000", "182501.091000", "182501.093000", "182501.096000", "182501.098000", "182501.110000", "182501.113000", "182501.116000", "182501.118000", "182501.121000", "182501.123000", "182501.126000", "182501.128000", "182501.131000", "182501.133000", "182501.136000", "182501.139000", "182501.141000", "182501.144000", "182501.146000", "182501.149000", "182531.222000", "182531.225000", "182531.227000", "182531.230000", "182531.232000", "182531.235000", "182531.237000", "182531.240000", "182531.243000", "182531.245000", "182531.248000", "182531.250000", "182531.253000", "182531.255000", "182531.258000", "182531.261000", "182531.263000", "182531.266000", "182531.268000", "182531.271000"],
