{
  "AcquisitionMatrixPE": 104,
  "AcquisitionNumber": 1,
  "AcquisitionTime": "17:59:26.442500",
  "BandwidthPerPixelPhaseEncode": 17.17,
  "BaseResolution": 104,
  "BodyPartExamined": "BRAIN",
  "CoilCombinationMethod": "Sum of Squares",
  "ConsistencyInfo": "N4_VE11C_LATEST_20160120",
  "ConversionSoftware": "dcm2niix",
  "ConversionSoftwareVersion": "v1.0.20211006",
  "DerivedVendorReportedEchoSpacing": 0.000560011,
  "DeviceSerialNumber": "167006",
  "DwellTime": 2.1e-06,
  "EchoTime": 0.037,
  "EchoTime1": 0.037,
  "EchoTime2": 0.001,
  "EchoTrainLength": 104,
  "EffectiveEchoSpacing": 0.000560011,
  "FlipAngle": 52,
  "HeudiconvVersion": "0.11.3.post9+gc939bf8",
  "ImageComments": "Unaliased MB4/PE3/LB",
  "ImageOrientationPatientDICOM": [0.99996, -0.00583002, -0.00685359, 0.00279236, 0.925157, -0.379573],
  "ImageOrientationText": "Tra>Cor(-22.3)>Sag(-0.5)",
  "ImageType": [
    "ORIGINAL",
    "PRIMARY",
    "P",
    "MB",
    "ND",
    "MOSAIC",
    "PHASE"
],
  "ImagingFrequency": 123.259,
  "InPlanePhaseEncodingDirectionDICOM": "COL",
  "InstitutionAddress": "Chemin Queen-Mary 4565,Montreal,District,CA,H3W 1W5",
  "InstitutionName": "IUGM",
  "InstitutionalDepartmentName": "Department",
  "MRAcquisitionType": "2D",
  "MagneticFieldStrength": 3,
  "Manufacturer": "Siemens",
  "ManufacturersModelName": "Prisma_fit",
  "MatrixCoilMode": "SENSE",
  "Modality": "MR",
  "MultibandAccelerationFactor": 4,
  "PartialFourier": 1,
  "PatientPosition": "HFS",
  "PercentPhaseFOV": 100,
  "PercentSampling": 100,
  "PhaseEncodingDirection": "j",
  "PhaseEncodingSteps": 104,
  "PhaseResolution": 1,
  "PixelBandwidth": 2290,
  "ProcedureStepDescription": "games^mario",
  "ProtocolName": "func_task-mario_run-03",
  "PulseSequenceDetails": "%CustomerSeq%\\cmrr_mbep2d_bold",
  "ReceiveCoilActiveElements": "HC1-7;NC1,2",
  "ReceiveCoilName": "HeadNeck_64",
  "ReconMatrixPE": 104,
  "RepetitionTime": 1.49,
  "SAR": 0.0873067,
  "ScanOptions": "FS",
  "ScanningSequence": "EP",
  "SequenceName": "epfid2d1_104",
  "SequenceVariant": "SK\\SS",
  "SeriesDescription": "func_task-mario_run-03",
  "SeriesNumber": 17,
  "ShimSetting": [607, -7258, -8808, 394, 0, -312, 15, 46],
  "SliceThickness": 2,
  "SliceTiming": [0, 0.7825, 0.0975, 0.88, 0.195, 0.98, 0.2925, 1.0775, 0.39, 1.175, 0.49, 1.2725, 0.5875, 1.37, 0.685, 0, 0.7825, 0.0975, 0.88, 0.195, 0.98, 0.2925, 1.0775, 0.39, 1.175, 0.49, 1.2725, 0.5875, 1.37, 0.685, 0, 0.7825, 0.0975, 0.88, 0.195, 0.98, 0.2925, 1.0775, 0.39, 1.175, 0.49, 1.2725, 0.5875, 1.37, 0.685, 0, 0.7825, 0.0975, 0.88, 0.195, 0.98, 0.2925, 1.0775, 0.39, 1.175, 0.49, 1.2725, 0.5875, 1.37, 0.685],
  "SoftwareVersions": "syngo MR E11",
  "SpacingBetweenSlices": 2,
  "StationName": "MRC35049",
  "TaskName": "mario",
  "TotalReadoutTime": 0.0576811,
  "TxRefAmp": 272.312,
  "WipMemBlock": "f9d05ab8-fdf0-4153-974a-ae58190478ae||Sequence: R017 ve11c/master r/75a17815+; Jun 28 2022 16:32:11 by eja",
  "dcmmeta_affine": [
    [-1.999919056892395, 0.005584726110100746, -0.017107142135500908, 103.61846160888672],
    [0.011660046875476837, 1.850314974784851, -0.7590775489807129, -61.43138122558594],
    [-0.013707179576158524, 0.7591465711593628, 1.850272536277771, -48.08674240112305],
    [0.0, 0.0, 0.0, 1.0]
],
  "dcmmeta_reorient_transform": [
    [0.0, -1.0, 0.0, 103.0],
    [1.0, 0.0, 0.0, 0.0],
    [0.0, 0.0, 1.0, 0.0],
    [0.0, 0.0, 0.0, 1.0]
],
  "dcmmeta_shape": [104, 104, 60, 518],
  "dcmmeta_slice_dim": 2,
  "dcmmeta_version": 0.6,
  "global": {
    "const": {
      "AcquisitionMatrix": [104, 0, 0, 104],
      "AngioFlag": "N",
      "BitsAllocated": 16,
      "BitsStored": 16,
      "BodyPartExamined": "BRAIN",
      "Columns": 832,
      "EchoNumbers": 1,
      "EchoTime": 37.0,
      "EchoTrainLength": 104,
      "FlipAngle": 52.0,
      "HighBit": 15,
      "ImageOrientationPatient": [0.99995951874768, -0.0058300233098, -0.0068535898704, 0.00279236304634, 0.92515746248878, -0.3795732766014],
      "ImagePositionPatient": [-834.19705958666, -798.42143357778, 311.42411171349],
      "ImageType": [
        "ORIGINAL",
        "PRIMARY",
        "P",
        "MB",
        "ND",
        "MOSAIC"
],
      "ImagedNucleus": "1H",
      "ImagingFrequency": 123.258743,
      "InPlanePhaseEncodingDirection": "COL",
      "LargestImagePixelValue": 4095,
      "MRAcquisitionType": "2D",
      "MagneticFieldStrength": 3.0,
      "Manufacturer": "SIEMENS",
      "ManufacturerModelName": "Prisma_fit",
      "Modality": "MR",
      "NumberOfAverages": 1.0,
      "NumberOfPhaseEncodingSteps": 104,
      "PercentPhaseFieldOfView": 100.0,
      "PercentSampling": 100.0,
      "PerformedProcedureStepStartTime": "165743.043000",
      "PhotometricInterpretation": "MONOCHROME2",
      "PixelBandwidth": 2290.0,
      "PixelRepresentation": 0,
      "PixelSpacing": [2.0, 2.0],
      "ProtocolName": "func_task-mario_run-03",
      "RepetitionTime": 1490.0,
      "RescaleIntercept": -4096.0,
      "RescaleSlope": 2.0,
      "RescaleType": "US",
      "Rows": 832,
      "SAR": 0.08730674891372,
      "SamplesPerPixel": 1,
      "ScanOptions": "FS",
      "ScanningSequence": "EP",
      "SequenceName": "epfid2d1_104",
      "SequenceVariant": [
        "SK",
        "SS"
],
      "SeriesDescription": "func_task-mario_run-03",
      "SeriesNumber": 17,
      "SeriesTime": "180032.576000",
      "SliceLocation": -22.057507648976,
      "SliceThickness": 2.0,
      "SmallestImagePixelValue": 0,
      "SoftwareVersions": "syngo MR E11",
      "SpacingBetweenSlices": 1.9999999550483,
      "SpecificCharacterSet": "ISO_IR 100",
      "StudyID": "1",
      "StudyTime": "165742.967000",
      "TransmitCoilName": "Body",
      "VariableFlipAngleFlag": "N",
      "WindowCenterWidthExplanation": "Algo1",
      "dBdt": 0.0},
    "slices": {}
  },
  "time": {
    "samples": {
      "AcquisitionNumber": [1, 2, 3, 4, 5, 6, 7, 8, 9, 10, 11, 12, 13, 14, 15, 16, 17, 18, 19, 20, 21, 22, 23, 24, 25, 26, 27, 28, 29, 30, 31, 32, 33, 34, 35, 36, 37, 38, 39, 40, 41, 42, 43, 44, 45, 46, 47, 48, 49, 50, 51, 52, 53, 54, 55, 56, 57, 58, 59, 60, 61, 62, 63, 64, 65, 66, 67, 68, 69, 70, 71, 72, 73, 74, 75, 76, 77, 78, 79, 80, 81, 82, 83, 84, 85, 86, 87, 88, 89, 90, 91, 92, 93, 94, 95, 96, 97, 98, 99, 100, 101, 102, 103, 104, 105, 106, 107, 108, 109, 110, 111, 112, 113, 114, 115, 116, 117, 118, 119, 120, 121, 122, 123, 124, 125, 126, 127, 128, 129, 130, 131, 132, 133, 134, 135, 136, 137, 138, 139, 140, 141, 142, 143, 144, 145, 146, 147, 148, 149, 150, 151, 152, 153, 154, 155, 156, 157, 158, 159, 160, 161, 162, 163, 164, 165, 166, 167, 168, 169, 170, 171, 172, 173, 174, 175, 176, 177, 178, 179, 180, 181, 182, 183, 184, 185, 186, 187, 188, 189, 190, 191, 192, 193, 194, 195, 196, 197, 198, 199, 200, 201, 202, 203, 204, 205, 206, 207, 208, 209, 210, 211, 212, 213, 214, 215, 216, 217, 218, 219, 220, 221, 222, 223, 224, 225, 226, 227, 228, 229, 230, 231, 232, 233, 234, 235, 236, 237, 238, 239, 240, 241, 242, 243, 244, 245, 246, 247, 248, 249, 250, 251, 252, 253, 254, 255, 256, 257, 258, 259, 260, 261, 262, 263, 264, 265, 266, 267, 268, 269, 270, 271, 272, 273, 274, 275, 276, 277, 278, 279, 280, 281, 282, 283, 284, 285, 286, 287, 288, 289, 290, 291, 292, 293, 294, 295, 296, 297, 298, 299, 300, 301, 302, 303, 304, 305, 306, 307, 308, 309, 310, 311, 312, 313, 314, 315, 316, 317, 318, 319, 320, 321, 322, 323, 324, 325, 326, 327, 328, 329, 330, 331, 332, 333, 334, 335, 336, 337, 338, 339, 340, 341, 342, 343, 344, 345, 346, 347, 348, 349, 350, 351, 352, 353, 354, 355, 356, 357, 358, 359, 360, 361, 362, 363, 364, 365, 366, 367, 368, 369, 370, 371, 372, 373, 374, 375, 376, 377, 378, 379, 380, 381, 382, 383, 384, 385, 386, 387, 388, 389, 390, 391, 392, 393, 394, 395, 396, 397, 398, 399, 400, 401, 402, 403, 404, 405, 406, 407, 408, 409, 410, 411, 412, 413, 414, 415, 416, 417, 418, 419, 420, 421, 422, 423, 424, 425, 426, 427, 428, 429, 430, 431, 432, 433, 434, 435, 436, 437, 438, 439, 440, 441, 442, 443, 444, 445, 446, 447, 448, 449, 450, 451, 452, 453, 454, 455, 456, 457, 458, 459, 460, 461, 462, 463, 464, 465, 466, 467, 468, 469, 470, 471, 472, 473, 474, 475, 476, 477, 478, 479, 480, 481, 482, 483, 484, 485, 486, 487, 488, 489, 490, 491, 492, 493, 494, 495, 496, 497, 498, 499, 500, 501, 502, 503, 504, 505, 506, 507, 508, 509, 510, 511, 512, 513, 514, 515, 516, 517, 518],
      "AcquisitionTime": ["175926.442500", "175927.932500", "175929.422500", "175930.912500", "175932.402500", "175933.892500", "175935.382500", "175936.872500", "175938.362500", "175939.852500", "175941.342500", "175942.832500", "175944.322500", "175945.812500", "175947.302500", "175948.792500", "175950.282500", "175951.772500", "175953.262500", "175954.752500", "175956.242500", "175957.732500", "175959.222500", "180000.712500", "180002.202500", "180003.692500", "180005.182500", "180006.672500", "180008.162500", "180009.652500", "180011.142500", "180012.632500", "180014.122500", "180015.612500", "180017.102500", "180018.592500", "180020.082500", "180021.572500", "180023.062500", "180024.552500", "180026.042500", "180027.532500", "180029.022500", "180030.512500", "180032.002500", "180033.492500", "180034.982500", "180036.472500", "180037.962500", "180039.452500", "180040.942500", "180042.432500", "180043.922500", "180045.412500", "180046.902500", "180048.392500", "180049.882500", "180051.372500", "180052.862500", "180054.352500", "180055.842500", "180057.332500", "180058.822500", "180100.312500", "180101.802500", "180103.292500", "180104.782500", "180106.272500", "180107.762500", "180109.252500", "180110.742500", "180112.232500", "180113.722500", "180115.212500", "180116.702500", "180118.192500", "180119.682500", "180121.172500", "180122.662500", "180124.152500", "180125.642500", "180127.132500", "180128.622500", "180130.112500", "180131.602500", "180133.092500", "180134.582500", "180136.072500", "180137.562500", "180139.052500", "180140.542500", "180142.032500", "180143.522500", "180145.012500", "180146.502500", "180147.992500", "180149.482500", "180150.972500", "180152.462500", "180153.952500", "180155.442500", "180156.932500", "180158.422500", "180159.912500", "180201.402500", "180202.892500", "180204.382500", "180205.872500", "180207.362500", "180208.852500", "180210.342500", "180211.832500", "180213.322500", "180214.812500", "180216.302500", "180217.792500", "180219.282500", "180220.772500", "180222.262500", "180223.752500", "180225.242500", "180226.732500", "180228.222500", "180229.712500", "180231.202500", "180232.692500", "180234.182500", "180235.672500", "180237.162500", "180238.652500", "180240.142500", "180241.632500", "180243.122500", "180244.612500", "180246.102500", "180247.592500", "180249.082500", "180250.572500", "180252.062500", "180253.552500", "180255.042500", "180256.532500", "180258.022500", "180259.512500", "180301.002500", "180302.492500", "180303.982500", "180305.472500", "180306.962500", "180308.452500", "180309.942500", "180311.432500", "180312.922500", "180314.412500", "180315.902500", "180317.392500", "180318.882500", "180320.372500", "180321.862500", "180323.352500", "180324.842500", "180326.332500", "180327.822500", "180329.312500", "180330.802500", "180332.292500", "180333.782500", "180335.272500", "180336.762500", "180338.252500", "180339.742500", "180341.232500", "180342.722500", "180344.212500", "180345.702500", "180347.192500", "180348.682500", "180350.172500", "180351.662500", "180353.152500", "180354.642500", "180356.132500", "180357.622500", "180359.112500", "180400.602500", "180402.092500", "180403.582500", "180405.072500", "180406.562500", "180408.052500", "180409.542500", "180411.032500", "180412.522500", "180414.012500", "180415.502500", "180416.992500", "180418.482500", "180419.972500", "180421.462500", "180422.952500", "180424.442500", "180425.932500", "180427.422500", "180428.912500", "180430.402500", "180431.892500", "180433.382500", "180434.872500", "180436.362500", "180437.852500", "180439.342500", "180440.832500", "180442.322500", "180443.812500", "180445.302500", "180446.792500", "180448.282500", "180449.772500", "180451.262500", "180452.752500", "180454.242500", "180455.732500", "180457.222500", "180458.712500", "180500.202500", "180501.692500", "180503.182500", "180504.672500", "180506.162500", "180507.652500", "180509.142500", "180510.632500", "180512.122500", "180513.612500", "180515.102500", "180516.592500", "180518.082500", "180519.572500", "180521.062500", "180522.552500", "180524.042500", "180525.532500", "180527.022500", "180528.512500", "180530.002500", "180531.492500", "180532.982500", "180534.472500", "180535.962500", "180537.452500", "180538.942500", "180540.432500", "180541.922500", "180543.412500", "180544.902500", "180546.392500", "180547.882500", "180549.372500", "180550.862500", "180552.352500", "180553.842500", "180555.332500", "180556.822500", "180558.312500", "180559.802500", "180601.292500", "180602.782500", "180604.272500", "180605.762500", "180607.252500", "180608.742500", "180610.232500", "180611.722500", "180613.212500", "180614.702500", "180616.192500", "180617.682500", "180619.172500", "180620.662500", "180622.152500", "180623.642500", "180625.132500", "180626.622500", "180628.112500", "180629.602500", "180631.092500", "180632.582500", "180634.072500", "180635.562500", "180637.052500", "180638.542500", "180640.032500", "180641.522500", "180643.012500", "180644.502500", "180645.992500", "180647.482500", "180648.972500", "180650.462500", "180651.952500", "180653.442500", "180654.932500", "180656.422500", "180657.912500", "180659.402500", "180700.892500", "180702.382500", "180703.872500", "180705.362500", "180706.852500", "180708.342500", "180709.832500", "180711.322500", "180712.812500", "180714.302500", "180715.792500", "180717.282500", "180718.772500", "180720.262500", "180721.752500", "180723.242500", "180724.732500", "180726.222500", "180727.712500", "180729.202500", "180730.692500", "180732.182500", "180733.672500", "180735.162500", "180736.652500", "180738.142500", "180739.632500", "180741.122500", "180742.612500", "180744.102500", "180745.592500", "180747.082500", "180748.572500", "180750.062500", "180751.552500", "180753.042500", "180754.532500", "180756.022500", "180757.512500", "180759.002500", "180800.492500", "180801.982500", "180803.472500", "180804.962500", "180806.452500", "180807.942500", "180809.432500", "180810.922500", "180812.412500", "180813.902500", "180815.392500", "180816.882500", "180818.372500", "180819.862500", "180821.352500", "180822.842500", "180824.332500", "180825.822500", "180827.312500", "180828.802500", "180830.292500", "180831.782500", "180833.272500", "180834.762500", "180836.252500", "180837.742500", "180839.232500", "180840.722500", "180842.212500", "180843.702500", "180845.192500", "180846.682500", "180848.172500", "180849.662500", "180851.152500", "180852.642500", "180854.132500", "180855.622500", "180857.112500", "180858.602500", "180900.092500", "180901.582500", "180903.072500", "180904.562500", "180906.052500", "180907.542500", "180909.032500", "180910.522500", "180912.012500", "180913.502500", "180914.992500", "180916.482500", "180917.972500", "180919.462500", "180920.952500", "180922.442500", "180923.932500", "180925.422500", "180926.912500", "180928.402500", "180929.892500", "180931.382500", "180932.872500", "180934.362500", "180935.852500", "180937.342500", "180938.832500", "180940.322500", "180941.812500", "180943.302500", "180944.792500", "180946.282500", "180947.772500", "180949.262500", "180950.752500", "180952.242500", "180953.732500", "180955.222500", "180956.712500", "180958.202500", "180959.692500", "181001.182500", "181002.672500", "181004.162500", "181005.652500", "181007.142500", "181008.632500", "181010.122500", "181011.612500", "181013.102500", "181014.592500", "181016.082500", "181017.572500", "181019.062500", "181020.552500", "181022.042500", "181023.532500", "181025.022500", "181026.512500", "181028.002500", "181029.492500", "181030.982500", "181032.472500", "181033.962500", "181035.452500", "181036.942500", "181038.432500", "181039.922500", "181041.412500", "181042.902500", "181044.392500", "181045.882500", "181047.372500", "181048.862500", "181050.352500", "181051.842500", "181053.332500", "181054.822500", "181056.312500", "181057.802500", "181059.292500", "181100.782500", "181102.272500", "181103.762500", "181105.252500", "181106.742500", "181108.232500", "181109.722500", "181111.212500", "181112.702500", "181114.192500", "181115.682500", "181117.172500", "181118.662500", "181120.152500", "181121.642500", "181123.132500", "181124.622500", "181126.112500", "181127.602500", "181129.092500", "181130.582500", "181132.072500", "181133.562500", "181135.052500", "181136.542500", "181138.032500", "181139.522500", "181141.012500", "181142.502500", "181143.992500", "181145.482500", "181146.972500", "181148.462500", "181149.952500", "181151.442500", "181152.932500", "181154.422500", "181155.912500", "181157.402500", "181158.892500", "181200.382500", "181201.872500", "181203.362500", "181204.852500", "181206.342500", "181207.832500", "181209.322500", "181210.812500", "181212.302500", "181213.792500", "181215.282500", "181216.772500"],
      "ContentTime": ["180032.579000", "180032.581000", "180032.584000", "180032.587000", "180032.600000", "180032.602000", "180032.605000", "180032.608000", "180032.610000", "180032.613000", "180032.615000", "180032.618000", "180032.620000", "180032.623000", "180032.625000", "180052.588000", "180052.590000", "180052.611000", "180052.614000", "180052.616000", "180052.619000", "180052.621000", "180052.624000", "180052.626000", "180052.629000", "180052.631000", "180052.634000", "180052.636000", "180052.639000", "180052.641000", "180052.644000", "180052.646000", "180052.649000", "180052.651000", "180052.654000", "180112.587000", "180112.589000", "180112.592000", "180112.595000", "180112.597000", "180112.600000", "180112.602000", "180112.605000", "180112.607000", "180112.610000", "180112.612000", "180112.615000", "180112.618000", "180112.620000", "180112.623000", "180112.625000", "180112.628000", "180112.630000", "180112.633000", "180112.635000", "180112.638000", "180132.568000", "180132.571000", "180132.574000", "180132.576000", "180132.579000", "180132.581000", "180132.584000", "180132.587000", "180132.589000", "180132.592000", "180132.594000", "180132.597000", "180132.599000", "180132.602000", "180132.604000", "180132.607000", "180132.609000", "180132.612000", "180132.614000", "180132.617000", "180152.567000", "180152.570000", "180152.573000", "180152.575000", "180152.578000", "180152.580000", "180152.583000", "180152.586000", "180152.588000", "180152.591000", "180152.593000", "180152.596000", "180152.599000", "180152.601000", "180152.604000", "180152.606000", "180152.609000", "180152.611000", "180152.614000", "180152.616000", "180232.633000", "180232.636000", "180232.639000", "180232.641000", "180232.644000", "180232.646000", "180232.649000", "180232.652000", "180232.654000", "180232.657000", "180232.659000", "180232.662000", "180232.664000", "180232.667000", "180232.669000", "180232.672000", "180232.690000", "180232.693000", "180232.695000", "180232.698000", "180232.700000", "180232.703000", "180232.706000", "180232.708000", "180232.711000", "180232.713000", "180232.716000", "180232.718000", "180312.606000", "180312.609000", "180312.612000", "180312.614000", "180312.617000", "180312.619000", "180312.622000", "180312.625000", "180312.627000", "180312.630000", "180312.632000", "180312.635000", "180312.638000", "180312.640000", "180312.643000", "180312.645000", "180312.648000", "180312.650000", "180312.653000", "180312.655000", "180312.658000", "180312.660000", "180312.663000", "180312.666000", "180312.668000", "180312.671000", "180312.673000", "180352.620000", "180352.622000", "180352.625000", "180352.627000", "180352.630000", "180352.633000", "180352.635000", "180352.638000", "180352.640000", "180352.643000", "180352.646000", "180352.648000", "180352.651000", "180352.653000", "180352.656000", "180352.659000", "180352.661000", "180352.664000", "180352.666000", "180352.669000", "180352.671000", "180352.674000", "180352.676000", "180352.679000", "180352.682000", "180352.684000", "180432.594000", "180432.597000", "180432.600000", "180432.602000", "180432.605000", "180432.607000", "180432.610000", "180432.612000", "180432.615000", "180432.617000", "180432.620000", "180432.622000", "180432.625000", "180432.628000", "180432.630000", "180432.633000", "180432.635000", "180432.638000", "180432.640000", "180432.643000", "180432.646000", "180432.648000", "180432.651000", "180432.653000", "180432.656000", "180432.659000", "180432.661000", "180512.618000", "180512.620000", "180512.623000", "180512.626000", "180512.628000", "180512.631000", "180512.633000", "180512.636000", "180512.639000", "180512.641000", "180512.644000", "180512.646000", "180512.649000", "180512.651000", "180512.654000", "180512.656000", "180512.659000", "180512.662000", "180512.664000", "180512.667000", "180512.669000", "180512.672000", "180512.675000", "180512.677000", "180512.680000", "180512.682000", "180512.685000", "180552.608000", "180552.611000", "180552.614000", "180552.616000", "180552.619000", "180552.621000", "180552.624000", "180552.626000", "180552.629000", "180552.632000", "180552.634000", "180552.637000", "180552.639000", "180552.642000", "180552.644000", "180552.647000", "180552.649000", "180552.652000", "180552.655000", "180552.657000", "180552.660000", "180552.662000", "180552.665000", "180552.668000", "180552.670000", "180552.673000", "180552.675000", "180632.593000", "180632.596000", "180632.598000", "180632.601000", "180632.604000", "180632.606000", "180632.609000", "180632.611000", "180632.614000", "180632.616000", "180632.619000", "180632.621000", "180632.624000", "180632.627000", "180632.629000", "180632.632000", "180632.634000", "180632.637000", "180632.639000", "180632.642000", "180632.644000", "180632.647000", "180632.650000", "180632.652000", "180632.655000", "180632.657000", "180632.660000", "180713.166000", "180713.169000", "180713.172000", "180713.174000", "180713.177000", "180713.180000", "180713.182000", "180713.185000", "180713.187000", "180713.190000", "180713.193000", "180713.195000", "180713.198000", "180713.200000", "180713.203000", "180713.205000", "180713.208000", "180713.210000", "180713.213000", "180713.216000", "180713.218000", "180713.221000", "180713.233000", "180713.235000", "180713.238000", "180713.240000", "180713.243000", "180752.616000", "180752.618000", "180752.621000", "180752.624000", "180752.626000", "180752.629000", "180752.631000", "180752.634000", "180752.637000", "180752.639000", "180752.642000", "180752.644000", "180752.647000", "180752.649000", "180752.652000", "180752.655000", "180752.657000", "180752.660000", "180752.662000", "180752.665000", "180752.667000", "180752.670000", "180752.673000", "180752.675000", "180752.678000", "180752.680000", "180752.683000", "180832.601000", "180832.604000", "180832.606000", "180832.609000", "180832.611000", "180832.614000", "180832.617000", "180832.619000", "180832.622000", "180832.624000", "180832.627000", "180832.630000", "180832.632000", "180832.635000", "180832.637000", "180832.640000", "180832.642000", "180832.645000", "180832.649000", "180832.652000", "180832.654000", "180832.657000", "180832.659000", "180832.662000", "180832.665000", "180832.667000", "180912.599000", "180912.602000", "180912.604000", "180912.607000", "180912.609000", "180912.612000", "180912.615000", "180912.617000", "180912.620000", "180912.622000", "180912.625000", "180912.627000", "180912.630000", "180912.633000", "180912.635000", "180912.638000", "180912.640000", "180912.643000", "180912.646000", "180912.649000", "180912.652000", "180912.654000", "180912.657000", "180912.659000", "180912.662000", "180912.664000", "180912.667000", "180952.613000", "180952.615000", "180952.618000", "180952.621000", "180952.623000", "180952.626000", "180952.628000", "180952.631000", "180952.633000", "180952.636000", "180952.639000", "180952.641000", "180952.644000", "180952.646000", "180952.649000", "180952.651000", "180952.654000", "180952.657000", "180952.659000", "180952.662000", "180952.664000", "180952.667000", "180952.669000", "180952.672000", "180952.675000", "180952.677000", "180952.680000", "181032.604000", "181032.607000", "181032.609000", "181032.612000", "181032.614000", "181032.617000", "181032.620000", "181032.622000", "181032.625000", "181032.627000", "181032.630000", "181032.632000", "181032.635000", "181032.637000", "181032.640000", "181032.642000", "181032.645000", "181032.647000", "181032.650000", "181032.653000", "181032.655000", "181032.658000", "181032.660000", "181032.663000", "181032.665000", "181032.668000", "181032.671000", "181112.601000", "181112.603000", "181112.606000", "181112.609000", "181112.611000", "181112.614000", "181112.616000", "181112.619000", "181112.621000", "181112.624000", "181112.627000", "181112.629000", "181112.632000", "181112.634000", "181112.637000", "181112.639000", "181112.642000", "181112.645000", "181112.647000", "181112.650000", "181112.652000", "181112.655000", "181112.657000", "181112.660000", "181112.663000", "181112.665000", "181112.668000", "181152.610000", "181152.613000", "181152.615000", "181152.618000", "181152.620000", "181152.623000", "181152.626000", "181152.628000", "181152.631000", "181152.634000", "181152.636000", "181152.639000", "181152.641000", "181152.644000", "181152.647000", "181152.649000", "181152.652000", "181152.654000", "181152.657000", "181152.659000", "181152.662000", "181152.665000", "181152.667000", "181152.670000", "181152.672000", "181152.675000", "181152.678000", "181219.767000", "181219.770000", "181219.773000", "181219.775000", "181219.778000", "181219.780000", "181219.783000", "181219.786000", "181219.788000", "181219.791000", "181219.793000", "181219.796000", "181219.798000", "181219.801000", "181219.803000", "181219.806000", "181219.808000", "181219.811000"],
