{
  "AcquisitionMatrixPE": 104,
  "AcquisitionNumber": 1,
  "AcquisitionTime": "17:59:26.442500",
  "BandwidthPerPixelPhaseEncode": 17.17,
  "BaseResolution": 104,
  "BodyPartExamined": "BRAIN",
  "CoilCombinationMethod": "Sum of Squares",
  "ConsistencyInfo": "N4_VE11C_LATEST_20160120",
  "ConversionSoftware": "dcm2niix",
  "ConversionSoftwareVersion": "v1.0.20211006",
  "DerivedVendorReportedEchoSpacing": 0.000560011,
  "DeviceSerialNumber": "167006",
  "DwellTime": 2.1e-06,
  "EchoTime": 0.037,
  "EchoTrainLength": 104,
  "EffectiveEchoSpacing": 0.000560011,
  "FlipAngle": 52,
  "HeudiconvVersion": "0.11.3.post9+gc939bf8",
  "ImageComments": "Unaliased MB4/PE3/LB",
  "ImageOrientationPatientDICOM": [0.99996, -0.00583002, -0.00685359, 0.00279236, 0.925157, -0.379573],
  "ImageOrientationText": "Tra>Cor(-22.3)>Sag(-0.5)",
  "ImageType": [
    "ORIGINAL",
    "PRIMARY",
    "M",
    "MB",
    "ND",
    "MOSAIC"
],
  "ImagingFrequency": 123.259,
  "InPlanePhaseEncodingDirectionDICOM": "COL",
  "InstitutionAddress": "Chemin Queen-Mary 4565,Montreal,District,CA,H3W 1W5",
  "InstitutionName": "IUGM",
  "InstitutionalDepartmentName": "Department",
  "MRAcquisitionType": "2D",
  "MagneticFieldStrength": 3,
  "Manufacturer": "Siemens",
  "ManufacturersModelName": "Prisma_fit",
  "MatrixCoilMode": "SENSE",
  "Modality": "MR",
  "MultibandAccelerationFactor": 4,
  "PartialFourier": 1,
  "PatientPosition": "HFS",
  "PercentPhaseFOV": 100,
  "PercentSampling": 100,
  "PhaseEncodingDirection": "j",
  "PhaseEncodingSteps": 104,
  "PhaseResolution": 1,
  "PixelBandwidth": 2290,
  "ProcedureStepDescription": "games^mario",
  "ProtocolName": "func_task-mario_run-03",
  "PulseSequenceDetails": "%CustomerSeq%\\cmrr_mbep2d_bold",
  "ReceiveCoilActiveElements": "HC1-7;NC1,2",
  "ReceiveCoilName": "HeadNeck_64",
  "ReconMatrixPE": 104,
  "RepetitionTime": 1.49,
  "SAR": 0.0873067,
  "ScanOptions": "FS",
  "ScanningSequence": "EP",
  "SequenceName": "epfid2d1_104",
  "SequenceVariant": "SK\\SS",
  "SeriesDescription": "func_task-mario_run-03",
  "SeriesNumber": 16,
  "ShimSetting": [607, -7258, -8808, 394, 0, -312, 15, 46],
  "SliceThickness": 2,
  "SliceTiming": [0, 0.7825, 0.0975, 0.88, 0.195, 0.98, 0.2925, 1.0775, 0.39, 1.175, 0.49, 1.2725, 0.5875, 1.37, 0.685, 0, 0.7825, 0.0975, 0.88, 0.195, 0.98, 0.2925, 1.0775, 0.39, 1.175, 0.49, 1.2725, 0.5875, 1.37, 0.685, 0, 0.7825, 0.0975, 0.88, 0.195, 0.98, 0.2925, 1.0775, 0.39, 1.175, 0.49, 1.2725, 0.5875, 1.37, 0.685, 0, 0.7825, 0.0975, 0.88, 0.195, 0.98, 0.2925, 1.0775, 0.39, 1.175, 0.49, 1.2725, 0.5875, 1.37, 0.685],
  "SoftwareVersions": "syngo MR E11",
  "SpacingBetweenSlices": 2,
  "StationName": "MRC35049",
  "TaskName": "mario",
  "TotalReadoutTime": 0.0576811,
  "TxRefAmp": 272.312,
  "WipMemBlock": "f9d05ab8-fdf0-4153-974a-ae58190478ae||Sequence: R017 ve11c/master r/75a17815+; Jun 28 2022 16:32:11 by eja",
  "dcmmeta_affine": [
    [-1.999919056892395, 0.005584726110100746, -0.017107142135500908, 103.61846160888672],
    [0.011660046875476837, 1.850314974784851, -0.7590775489807129, -61.43138122558594],
    [-0.013707179576158524, 0.7591465711593628, 1.850272536277771, -48.08674240112305],
    [0.0, 0.0, 0.0, 1.0]
],
  "dcmmeta_reorient_transform": [
    [0.0, -1.0, 0.0, 103.0],
    [1.0, 0.0, 0.0, 0.0],
    [0.0, 0.0, 1.0, 0.0],
    [0.0, 0.0, 0.0, 1.0]
],
  "dcmmeta_shape": [104, 104, 60, 518],
  "dcmmeta_slice_dim": 2,
  "dcmmeta_version": 0.6,
  "global": {
    "const": {
      "AcquisitionMatrix": [104, 0, 0, 104],
      "AngioFlag": "N",
      "BitsAllocated": 16,
      "BitsStored": 16,
      "BodyPartExamined": "BRAIN",
      "Columns": 832,
      "EchoNumbers": 1,
      "EchoTime": 37.0,
      "EchoTrainLength": 104,
      "FlipAngle": 52.0,
      "HighBit": 15,
      "ImageOrientationPatient": [0.99995951874768, -0.0058300233098, -0.0068535898704, 0.00279236304634, 0.92515746248878, -0.3795732766014],
      "ImagePositionPatient": [-834.19705958666, -798.42143357778, 311.42411171349],
      "ImageType": [
        "ORIGINAL",
        "PRIMARY",
        "M",
        "MB",
        "ND",
        "MOSAIC"
],
      "ImagedNucleus": "1H",
      "ImagingFrequency": 123.258743,
      "InPlanePhaseEncodingDirection": "COL",
      "MRAcquisitionType": "2D",
      "MagneticFieldStrength": 3.0,
      "Manufacturer": "SIEMENS",
      "ManufacturerModelName": "Prisma_fit",
      "Modality": "MR",
      "NumberOfAverages": 1.0,
      "NumberOfPhaseEncodingSteps": 104,
      "PercentPhaseFieldOfView": 100.0,
      "PercentSampling": 100.0,
      "PerformedProcedureStepStartTime": "165743.043000",
      "PhotometricInterpretation": "MONOCHROME2",
      "PixelBandwidth": 2290.0,
      "PixelRepresentation": 0,
      "PixelSpacing": [2.0, 2.0],
      "ProtocolName": "func_task-mario_run-03",
      "RepetitionTime": 1490.0,
      "Rows": 832,
      "SAR": 0.08730674891372,
      "SamplesPerPixel": 1,
      "ScanOptions": "FS",
      "ScanningSequence": "EP",
      "SequenceName": "epfid2d1_104",
      "SequenceVariant": [
        "SK",
        "SS"
],
      "SeriesDescription": "func_task-mario_run-03",
      "SeriesNumber": 16,
      "SeriesTime": "180032.490000",
      "SliceLocation": -22.057507648976,
      "SliceThickness": 2.0,
      "SmallestImagePixelValue": 0,
      "SoftwareVersions": "syngo MR E11",
      "SpacingBetweenSlices": 1.9999999550483,
      "SpecificCharacterSet": "ISO_IR 100",
      "StudyID": "1",
      "StudyTime": "165742.967000",
      "TransmitCoilName": "Body",
      "VariableFlipAngleFlag": "N",
      "WindowCenterWidthExplanation": "Algo1",
      "dBdt": 0.0},
    "slices": {}
  },
  "time": {
    "samples": {
      "AcquisitionNumber": [1, 2, 3, 4, 5, 6, 7, 8, 9, 10, 11, 12, 13, 14, 15, 16, 17, 18, 19, 20, 21, 22, 23, 24, 25, 26, 27, 28, 29, 30, 31, 32, 33, 34, 35, 36, 37, 38, 39, 40, 41, 42, 43, 44, 45, 46, 47, 48, 49, 50, 51, 52, 53, 54, 55, 56, 57, 58, 59, 60, 61, 62, 63, 64, 65, 66, 67, 68, 69, 70, 71, 72, 73, 74, 75, 76, 77, 78, 79, 80, 81, 82, 83, 84, 85, 86, 87, 88, 89, 90, 91, 92, 93, 94, 95, 96, 97, 98, 99, 100, 101, 102, 103, 104, 105, 106, 107, 108, 109, 110, 111, 112, 113, 114, 115, 116, 117, 118, 119, 120, 121, 122, 123, 124, 125, 126, 127, 128, 129, 130, 131, 132, 133, 134, 135, 136, 137, 138, 139, 140, 141, 142, 143, 144, 145, 146, 147, 148, 149, 150, 151, 152, 153, 154, 155, 156, 157, 158, 159, 160, 161, 162, 163, 164, 165, 166, 167, 168, 169, 170, 171, 172, 173, 174, 175, 176, 177, 178, 179, 180, 181, 182, 183, 184, 185, 186, 187, 188, 189, 190, 191, 192, 193, 194, 195, 196, 197, 198, 199, 200, 201, 202, 203, 204, 205, 206, 207, 208, 209, 210, 211, 212, 213, 214, 215, 216, 217, 218, 219, 220, 221, 222, 223, 224, 225, 226, 227, 228, 229, 230, 231, 232, 233, 234, 235, 236, 237, 238, 239, 240, 241, 242, 243, 244, 245, 246, 247, 248, 249, 250, 251, 252, 253, 254, 255, 256, 257, 258, 259, 260, 261, 262, 263, 264, 265, 266, 267, 268, 269, 270, 271, 272, 273, 274, 275, 276, 277, 278, 279, 280, 281, 282, 283, 284, 285, 286, 287, 288, 289, 290, 291, 292, 293, 294, 295, 296, 297, 298, 299, 300, 301, 302, 303, 304, 305, 306, 307, 308, 309, 310, 311, 312, 313, 314, 315, 316, 317, 318, 319, 320, 321, 322, 323, 324, 325, 326, 327, 328, 329, 330, 331, 332, 333, 334, 335, 336, 337, 338, 339, 340, 341, 342, 343, 344, 345, 346, 347, 348, 349, 350, 351, 352, 353, 354, 355, 356, 357, 358, 359, 360, 361, 362, 363, 364, 365, 366, 367, 368, 369, 370, 371, 372, 373, 374, 375, 376, 377, 378, 379, 380, 381, 382, 383, 384, 385, 386, 387, 388, 389, 390, 391, 392, 393, 394, 395, 396, 397, 398, 399, 400, 401, 402, 403, 404, 405, 406, 407, 408, 409, 410, 411, 412, 413, 414, 415, 416, 417, 418, 419, 420, 421, 422, 423, 424, 425, 426, 427, 428, 429, 430, 431, 432, 433, 434, 435, 436, 437, 438, 439, 440, 441, 442, 443, 444, 445, 446, 447, 448, 449, 450, 451, 452, 453, 454, 455, 456, 457, 458, 459, 460, 461, 462, 463, 464, 465, 466, 467, 468, 469, 470, 471, 472, 473, 474, 475, 476, 477, 478, 479, 480, 481, 482, 483, 484, 485, 486, 487, 488, 489, 490, 491, 492, 493, 494, 495, 496, 497, 498, 499, 500, 501, 502, 503, 504, 505, 506, 507, 508, 509, 510, 511, 512, 513, 514, 515, 516, 517, 518],
      "AcquisitionTime": ["175926.442500", "175927.932500", "175929.422500", "175930.912500", "175932.402500", "175933.892500", "175935.382500", "175936.872500", "175938.362500", "175939.852500", "175941.342500", "175942.832500", "175944.322500", "175945.812500", "175947.302500", "175948.792500", "175950.282500", "175951.772500", "175953.262500", "175954.752500", "175956.242500", "175957.732500", "175959.222500", "180000.712500", "180002.202500", "180003.692500", "180005.182500", "180006.672500", "180008.162500", "180009.652500", "180011.142500", "180012.632500", "180014.122500", "180015.612500", "180017.102500", "180018.592500", "180020.082500", "180021.572500", "180023.062500", "180024.552500", "180026.042500", "180027.532500", "180029.022500", "180030.512500", "180032.002500", "180033.492500", "180034.982500", "180036.472500", "180037.962500", "180039.452500", "180040.942500", "180042.432500", "180043.922500", "180045.412500", "180046.902500", "180048.392500", "180049.882500", "180051.372500", "180052.862500", "180054.352500", "180055.842500", "180057.332500", "180058.822500", "180100.312500", "180101.802500", "180103.292500", "180104.782500", "180106.272500", "180107.762500", "180109.252500", "180110.742500", "180112.232500", "180113.722500", "180115.212500", "180116.702500", "180118.192500", "180119.682500", "180121.172500", "180122.662500", "180124.152500", "180125.642500", "180127.132500", "180128.622500", "180130.112500", "180131.602500", "180133.092500", "180134.582500", "180136.072500", "180137.562500", "180139.052500", "180140.542500", "180142.032500", "180143.522500", "180145.012500", "180146.502500", "180147.992500", "180149.482500", "180150.972500", "180152.462500", "180153.952500", "180155.442500", "180156.932500", "180158.422500", "180159.912500", "180201.402500", "180202.892500", "180204.382500", "180205.872500", "180207.362500", "180208.852500", "180210.342500", "180211.832500", "180213.322500", "180214.812500", "180216.302500", "180217.792500", "180219.282500", "180220.772500", "180222.262500", "180223.752500", "180225.242500", "180226.732500", "180228.222500", "180229.712500", "180231.202500", "180232.692500", "180234.182500", "180235.672500", "180237.162500", "180238.652500", "180240.142500", "180241.632500", "180243.122500", "180244.612500", "180246.102500", "180247.592500", "180249.082500", "180250.572500", "180252.062500", "180253.552500", "180255.042500", "180256.532500", "180258.022500", "180259.512500", "180301.002500", "180302.492500", "180303.982500", "180305.472500", "180306.962500", "180308.452500", "180309.942500", "180311.432500", "180312.922500", "180314.412500", "180315.902500", "180317.392500", "180318.882500", "180320.372500", "180321.862500", "180323.352500", "180324.842500", "180326.332500", "180327.822500", "180329.312500", "180330.802500", "180332.292500", "180333.782500", "180335.272500", "180336.762500", "180338.252500", "180339.742500", "180341.232500", "180342.722500", "180344.212500", "180345.702500", "180347.192500", "180348.682500", "180350.172500", "180351.662500", "180353.152500", "180354.642500", "180356.132500", "180357.622500", "180359.112500", "180400.602500", "180402.092500", "180403.582500", "180405.072500", "180406.562500", "180408.052500", "180409.542500", "180411.032500", "180412.522500", "180414.012500", "180415.502500", "180416.992500", "180418.482500", "180419.972500", "180421.462500", "180422.952500", "180424.442500", "180425.932500", "180427.422500", "180428.912500", "180430.402500", "180431.892500", "180433.382500", "180434.872500", "180436.362500", "180437.852500", "180439.342500", "180440.832500", "180442.322500", "180443.812500", "180445.302500", "180446.792500", "180448.282500", "180449.772500", "180451.262500", "180452.752500", "180454.242500", "180455.732500", "180457.222500", "180458.712500", "180500.202500", "180501.692500", "180503.182500", "180504.672500", "180506.162500", "180507.652500", "180509.142500", "180510.632500", "180512.122500", "180513.612500", "180515.102500", "180516.592500", "180518.082500", "180519.572500", "180521.062500", "180522.552500", "180524.042500", "180525.532500", "180527.022500", "180528.512500", "180530.002500", "180531.492500", "180532.982500", "180534.472500", "180535.962500", "180537.452500", "180538.942500", "180540.432500", "180541.922500", "180543.412500", "180544.902500", "180546.392500", "180547.882500", "180549.372500", "180550.862500", "180552.352500", "180553.842500", "180555.332500", "180556.822500", "180558.312500", "180559.802500", "180601.292500", "180602.782500", "180604.272500", "180605.762500", "180607.252500", "180608.742500", "180610.232500", "180611.722500", "180613.212500", "180614.702500", "180616.192500", "180617.682500", "180619.172500", "180620.662500", "180622.152500", "180623.642500", "180625.132500", "180626.622500", "180628.112500", "180629.602500", "180631.092500", "180632.582500", "180634.072500", "180635.562500", "180637.052500", "180638.542500", "180640.032500", "180641.522500", "180643.012500", "180644.502500", "180645.992500", "180647.482500", "180648.972500", "180650.462500", "180651.952500", "180653.442500", "180654.932500", "180656.422500", "180657.912500", "180659.402500", "180700.892500", "180702.382500", "180703.872500", "180705.362500", "180706.852500", "180708.342500", "180709.832500", "180711.322500", "180712.812500", "180714.302500", "180715.792500", "180717.282500", "180718.772500", "180720.262500", "180721.752500", "180723.242500", "180724.732500", "180726.222500", "180727.712500", "180729.202500", "180730.692500", "180732.182500", "180733.672500", "180735.162500", "180736.652500", "180738.142500", "180739.632500", "180741.122500", "180742.612500", "180744.102500", "180745.592500", "180747.082500", "180748.572500", "180750.062500", "180751.552500", "180753.042500", "180754.532500", "180756.022500", "180757.512500", "180759.002500", "180800.492500", "180801.982500", "180803.472500", "180804.962500", "180806.452500", "180807.942500", "180809.432500", "180810.922500", "180812.412500", "180813.902500", "180815.392500", "180816.882500", "180818.372500", "180819.862500", "180821.352500", "180822.842500", "180824.332500", "180825.822500", "180827.312500", "180828.802500", "180830.292500", "180831.782500", "180833.272500", "180834.762500", "180836.252500", "180837.742500", "180839.232500", "180840.722500", "180842.212500", "180843.702500", "180845.192500", "180846.682500", "180848.172500", "180849.662500", "180851.152500", "180852.642500", "180854.132500", "180855.622500", "180857.112500", "180858.602500", "180900.092500", "180901.582500", "180903.072500", "180904.562500", "180906.052500", "180907.542500", "180909.032500", "180910.522500", "180912.012500", "180913.502500", "180914.992500", "180916.482500", "180917.972500", "180919.462500", "180920.952500", "180922.442500", "180923.932500", "180925.422500", "180926.912500", "180928.402500", "180929.892500", "180931.382500", "180932.872500", "180934.362500", "180935.852500", "180937.342500", "180938.832500", "180940.322500", "180941.812500", "180943.302500", "180944.792500", "180946.282500", "180947.772500", "180949.262500", "180950.752500", "180952.242500", "180953.732500", "180955.222500", "180956.712500", "180958.202500", "180959.692500", "181001.182500", "181002.672500", "181004.162500", "181005.652500", "181007.142500", "181008.632500", "181010.122500", "181011.612500", "181013.102500", "181014.592500", "181016.082500", "181017.572500", "181019.062500", "181020.552500", "181022.042500", "181023.532500", "181025.022500", "181026.512500", "181028.002500", "181029.492500", "181030.982500", "181032.472500", "181033.962500", "181035.452500", "181036.942500", "181038.432500", "181039.922500", "181041.412500", "181042.902500", "181044.392500", "181045.882500", "181047.372500", "181048.862500", "181050.352500", "181051.842500", "181053.332500", "181054.822500", "181056.312500", "181057.802500", "181059.292500", "181100.782500", "181102.272500", "181103.762500", "181105.252500", "181106.742500", "181108.232500", "181109.722500", "181111.212500", "181112.702500", "181114.192500", "181115.682500", "181117.172500", "181118.662500", "181120.152500", "181121.642500", "181123.132500", "181124.622500", "181126.112500", "181127.602500", "181129.092500", "181130.582500", "181132.072500", "181133.562500", "181135.052500", "181136.542500", "181138.032500", "181139.522500", "181141.012500", "181142.502500", "181143.992500", "181145.482500", "181146.972500", "181148.462500", "181149.952500", "181151.442500", "181152.932500", "181154.422500", "181155.912500", "181157.402500", "181158.892500", "181200.382500", "181201.872500", "181203.362500", "181204.852500", "181206.342500", "181207.832500", "181209.322500", "181210.812500", "181212.302500", "181213.792500", "181215.282500", "181216.772500"],
      "ContentTime": ["180032.493000", "180032.497000", "180032.500000", "180032.503000", "180032.507000", "180032.510000", "180032.513000", "180032.517000", "180032.520000", "180032.524000", "180032.527000", "180032.530000", "180032.534000", "180032.537000", "180032.540000", "180052.457000", "180052.461000", "180052.464000", "180052.484000", "180052.488000", "180052.491000", "180052.494000", "180052.498000", "180052.501000", "180052.504000", "180052.508000", "180052.511000", "180052.515000", "180052.518000", "180052.521000", "180052.525000", "180052.528000", "180052.532000", "180052.535000", "180052.538000", "180112.457000", "180112.461000", "180112.464000", "180112.468000", "180112.471000", "180112.475000", "180112.478000", "180112.481000", "180112.485000", "180112.488000", "180112.491000", "180112.495000", "180112.498000", "180112.501000", "180112.505000", "180112.508000", "180112.512000", "180112.515000", "180112.518000", "180112.522000", "180112.525000", "180132.457000", "180132.461000", "180132.464000", "180132.468000", "180132.471000", "180132.475000", "180132.478000", "180132.481000", "180132.485000", "180132.488000", "180132.491000", "180132.495000", "180132.498000", "180132.502000", "180132.505000", "180132.508000", "180132.512000", "180132.515000", "180132.519000", "180132.522000", "180152.457000", "180152.461000", "180152.464000", "180152.468000", "180152.471000", "180152.475000", "180152.478000", "180152.481000", "180152.485000", "180152.488000", "180152.491000", "180152.495000", "180152.498000", "180152.502000", "180152.505000", "180152.508000", "180152.512000", "180152.515000", "180152.519000", "180152.522000", "180232.457000", "180232.461000", "180232.464000", "180232.468000", "180232.471000", "180232.474000", "180232.478000", "180232.481000", "180232.485000", "180232.488000", "180232.492000", "180232.495000", "180232.498000", "180232.502000", "180232.505000", "180232.509000", "180232.512000", "180232.515000", "180232.519000", "180232.522000", "180232.526000", "180232.529000", "180232.532000", "180232.536000", "180232.539000", "180232.543000", "180232.546000", "180232.549000", "180312.457000", "180312.461000", "180312.465000", "180312.468000", "180312.471000", "180312.475000", "180312.478000", "180312.482000", "180312.485000", "180312.489000", "180312.492000", "180312.495000", "180312.499000", "180312.502000", "180312.506000", "180312.509000", "180312.512000", "180312.516000", "180312.519000", "180312.523000", "180312.526000", "180312.529000", "180312.533000", "180312.536000", "180312.540000", "180312.543000", "180312.547000", "180352.458000", "180352.461000", "180352.465000", "180352.468000", "180352.499000", "180352.502000", "180352.506000", "180352.509000", "180352.512000", "180352.516000", "180352.519000", "180352.523000", "180352.526000", "180352.529000", "180352.533000", "180352.536000", "180352.540000", "180352.543000", "180352.547000", "180352.550000", "180352.554000", "180352.557000", "180352.560000", "180352.564000", "180352.567000", "180352.571000", "180352.574000", "180432.458000", "180432.462000", "180432.465000", "180432.469000", "180432.472000", "180432.476000", "180432.479000", "180432.483000", "180432.486000", "180432.489000", "180432.493000", "180432.496000", "180432.500000", "180432.503000", "180432.507000", "180432.510000", "180432.513000", "180432.517000", "180432.520000", "180432.524000", "180432.527000", "180432.531000", "180432.535000", "180432.538000", "180432.542000", "180432.545000", "180512.457000", "180512.461000", "180512.465000", "180512.468000", "180512.471000", "180512.475000", "180512.478000", "180512.482000", "180512.485000", "180512.488000", "180512.492000", "180512.510000", "180512.513000", "180512.517000", "180512.520000", "180512.524000", "180512.527000", "180512.530000", "180512.534000", "180512.537000", "180512.541000", "180512.544000", "180512.548000", "180512.551000", "180512.554000", "180512.558000", "180512.561000", "180552.457000", "180552.461000", "180552.465000", "180552.468000", "180552.471000", "180552.475000", "180552.478000", "180552.482000", "180552.485000", "180552.489000", "180552.492000", "180552.496000", "180552.499000", "180552.502000", "180552.506000", "180552.509000", "180552.513000", "180552.516000", "180552.520000", "180552.523000", "180552.526000", "180552.530000", "180552.533000", "180552.537000", "180552.540000", "180552.543000", "180552.547000", "180632.457000", "180632.461000", "180632.464000", "180632.468000", "180632.471000", "180632.475000", "180632.478000", "180632.481000", "180632.485000", "180632.488000", "180632.492000", "180632.495000", "180632.499000", "180632.502000", "180632.505000", "180632.509000", "180632.512000", "180632.516000", "180632.519000", "180632.522000", "180632.526000", "180632.529000", "180632.533000", "180632.536000", "180632.540000", "180632.543000", "180632.546000", "180712.458000", "180712.462000", "180712.466000", "180712.470000", "180712.474000", "180712.477000", "180712.481000", "180712.485000", "180712.489000", "180712.493000", "180712.497000", "180712.501000", "180712.505000", "180712.508000", "180712.512000", "180712.515000", "180712.519000", "180712.522000", "180712.526000", "180712.529000", "180712.533000", "180712.536000", "180712.540000", "180712.543000", "180712.547000", "180712.550000", "180712.554000", "180752.457000", "180752.461000", "180752.465000", "180752.468000", "180752.471000", "180752.475000", "180752.478000", "180752.482000", "180752.485000", "180752.489000", "180752.492000", "180752.495000", "180752.499000", "180752.502000", "180752.506000", "180752.509000", "180752.512000", "180752.516000", "180752.519000", "180752.523000", "180752.526000", "180752.530000", "180752.533000", "180752.536000", "180752.540000", "180752.543000", "180752.547000", "180832.457000", "180832.461000", "180832.465000", "180832.468000", "180832.472000", "180832.475000", "180832.479000", "180832.482000", "180832.486000", "180832.489000", "180832.492000", "180832.496000", "180832.499000", "180832.503000", "180832.506000", "180832.510000", "180832.513000", "180832.516000", "180832.520000", "180832.523000", "180832.527000", "180832.530000", "180832.534000", "180832.537000", "180832.541000", "180832.544000", "180912.459000", "180912.462000", "180912.466000", "180912.469000", "180912.473000", "180912.476000", "180912.479000", "180912.483000", "180912.486000", "180912.490000", "180912.493000", "180912.497000", "180912.500000", "180912.503000", "180912.507000", "180912.510000", "180912.514000", "180912.517000", "180912.520000", "180912.524000", "180912.527000", "180912.531000", "180912.534000", "180912.537000", "180912.541000", "180912.544000", "180912.548000", "180952.457000", "180952.461000", "180952.465000", "180952.468000", "180952.479000", "180952.483000", "180952.486000", "180952.490000", "180952.493000", "180952.496000", "180952.500000", "180952.503000", "180952.507000", "180952.510000", "180952.513000", "180952.517000", "180952.520000", "180952.524000", "180952.527000", "180952.531000", "180952.534000", "180952.537000", "180952.541000", "180952.544000", "180952.548000", "180952.551000", "180952.554000", "181032.457000", "181032.461000", "181032.465000", "181032.468000", "181032.472000", "181032.475000", "181032.478000", "181032.482000", "181032.485000", "181032.489000", "181032.492000", "181032.496000", "181032.499000", "181032.503000", "181032.506000", "181032.509000", "181032.513000", "181032.516000", "181032.520000", "181032.523000", "181032.526000", "181032.530000", "181032.533000", "181032.536000", "181032.540000", "181032.543000", "181032.547000", "181112.457000", "181112.461000", "181112.465000", "181112.468000", "181112.471000", "181112.475000", "181112.478000", "181112.482000", "181112.485000", "181112.489000", "181112.492000", "181112.495000", "181112.499000", "181112.502000", "181112.506000", "181112.509000", "181112.513000", "181112.516000", "181112.520000", "181112.523000", "181112.527000", "181112.530000", "181112.533000", "181112.537000", "181112.540000", "181112.544000", "181112.547000", "181152.458000", "181152.461000", "181152.465000", "181152.468000", "181152.472000", "181152.475000", "181152.479000", "181152.482000", "181152.486000", "181152.489000", "181152.492000", "181152.496000", "181152.499000", "181152.503000", "181152.506000", "181152.510000", "181152.523000", "181152.526000", "181152.530000", "181152.533000", "181152.536000", "181152.540000", "181152.543000", "181152.547000", "181152.550000", "181152.554000", "181152.557000", "181219.639000", "181219.643000", "181219.646000", "181219.650000", "181219.653000", "181219.656000", "181219.660000", "181219.663000", "181219.667000", "181219.670000", "181219.674000", "181219.677000", "181219.680000", "181219.684000", "181219.687000", "181219.691000", "181219.694000", "181219.697000"],
