{
  "AcquisitionMatrixPE": 104,
  "AcquisitionNumber": 1,
  "AcquisitionTime": "15:51:6.797500",
  "BandwidthPerPixelPhaseEncode": 17.17,
  "BaseResolution": 104,
  "BodyPartExamined": "BRAIN",
  "CoilString": "HC1-7;NC1_2",
  "ConsistencyInfo": "N4_VE11C_LATEST_20160120",
  "ConversionSoftware": "dcm2niix",
  "ConversionSoftwareVersion": "v1.0.20190902",
  "DerivedVendorReportedEchoSpacing": 0.000560011,
  "DeviceSerialNumber": "167006",
  "DwellTime": 2.1e-06,
  "EchoTime": 0.037,
  "EchoTrainLength": 104,
  "EffectiveEchoSpacing": 0.000560011,
  "FlipAngle": 52,
  "HeudiconvVersion": "0.10.0",
  "ImageComments": "Unaliased_MB4_PE3_LB",
  "ImageOrientationPatientDICOM": [0.999754, -0.0216468, 0.00482315, 0.0219893, 0.939255, -0.342516],
  "ImageType": [
    "ORIGINAL",
    "PRIMARY",
    "M",
    "MB",
    "ND",
    "MOSAIC"
],
  "ImagingFrequency": 123.259,
  "InPlanePhaseEncodingDirectionDICOM": "COL",
  "InstitutionAddress": "Chemin_Queen-Mary_4565_Montreal_District_CA_H3W_1W5",
  "InstitutionName": "IUGM",
  "InstitutionalDepartmentName": "Department",
  "MRAcquisitionType": "2D",
  "MagneticFieldStrength": 3,
  "Manufacturer": "Siemens",
  "ManufacturersModelName": "Prisma_fit",
  "Modality": "MR",
  "MultibandAccelerationFactor": 4,
  "PartialFourier": 1,
  "PatientPosition": "HFS",
  "PercentPhaseFOV": 100,
  "PhaseEncodingDirection": "j",
  "PhaseEncodingSteps": 104,
  "PhaseResolution": 1,
  "PixelBandwidth": 2290,
  "ProcedureStepDescription": "games_mario",
  "ProtocolName": "func_task-mario_run-01",
  "PulseSequenceDetails": "%CustomerSeq%_cmrr_mbep2d_bold",
  "ReceiveCoilActiveElements": "HC1-7;NC1,2",
  "ReceiveCoilName": "HeadNeck_64",
  "ReconMatrixPE": 104,
  "RepetitionTime": 1.49,
  "SAR": 0.0453045,
  "ScanOptions": "FS",
  "ScanningSequence": "EP",
  "SequenceName": "epfid2d1_104",
  "SequenceVariant": "SK_SS",
  "SeriesDescription": "func_task-mario_run-01",
  "SeriesNumber": 10,
  "ShimSetting": [627, -7253, -8824, 580, 17, -196, -75, -12],
  "SliceThickness": 2,
  "SliceTiming": [0, 0.7825, 0.0975, 0.88, 0.195, 0.98, 0.2925, 1.0775, 0.39, 1.175, 0.49, 1.2725, 0.5875, 1.37, 0.685, 0, 0.7825, 0.0975, 0.88, 0.195, 0.98, 0.2925, 1.0775, 0.39, 1.175, 0.49, 1.2725, 0.5875, 1.37, 0.685, 0, 0.7825, 0.0975, 0.88, 0.195, 0.98, 0.2925, 1.0775, 0.39, 1.175, 0.49, 1.2725, 0.5875, 1.37, 0.685, 0, 0.7825, 0.0975, 0.88, 0.195, 0.98, 0.2925, 1.0775, 0.39, 1.175, 0.49, 1.2725, 0.5875, 1.37, 0.685],
  "SoftwareVersions": "syngo_MR_E11",
  "SpacingBetweenSlices": 2,
  "StationName": "MRC35049",
  "TaskName": "mario",
  "TotalReadoutTime": 0.0576811,
  "TxRefAmp": 242.856,
  "WipMemBlock": "e6ffc32f-f2eb-4cb5-9ee6-9a10c17086a4||Sequence: R016 ve11c/master r/e634e98; Dec 19 2017 11:00:25 by eja",
  "dcmmeta_affine": [
    [-1.9995081424713135, 0.04397851601243019, -0.005768405739217997, 104.25056457519531],
    [0.04329356923699379, 1.8785094022750854, -0.6850754022598267, -66.92291259765625],
    [0.009646297432482243, 0.6850317716598511, 1.8789993524551392, -63.841365814208984],
    [0.0, 0.0, 0.0, 1.0]
],
  "dcmmeta_reorient_transform": [
    [0.0, -1.0, 0.0, 103.0],
    [1.0, 0.0, 0.0, 0.0],
    [0.0, 0.0, 1.0, 0.0],
    [0.0, 0.0, 0.0, 1.0]
],
  "dcmmeta_shape": [104, 104, 60, 508],
  "dcmmeta_slice_dim": 2,
  "dcmmeta_version": 0.6,
  "global": {
    "const": {
      "AcquisitionMatrix": [104, 0, 0, 104],
      "AngioFlag": "N",
      "BitsAllocated": 16,
      "BitsStored": 16,
      "BodyPartExamined": "BRAIN",
      "Columns": 832,
      "EchoNumbers": 1,
      "EchoTime": 37.0,
      "EchoTrainLength": 104,
      "FlipAngle": 52.0,
      "HighBit": 15,
      "ImageOrientationPatient": [0.99975404671812, -0.0216467851854, 0.0048231485444, 0.02198925749045, 0.93925467598691, -0.3425158772842],
      "ImagePositionPatient": [-852.60947707707, -794.58209699502, 252.55721310444],
      "ImageType": [
        "ORIGINAL",
        "PRIMARY",
        "M",
        "MB",
        "ND",
        "MOSAIC"
],
      "ImagedNucleus": "1H",
      "ImagingFrequency": 123.258864,
      "InPlanePhaseEncodingDirection": "COL",
      "MRAcquisitionType": "2D",
      "MagneticFieldStrength": 3.0,
      "Manufacturer": "SIEMENS",
      "ManufacturerModelName": "Prisma_fit",
      "Modality": "MR",
      "NumberOfAverages": 1.0,
      "NumberOfPhaseEncodingSteps": 104,
      "PercentPhaseFieldOfView": 100.0,
      "PercentSampling": 100.0,
      "PerformedProcedureStepStartTime": "151002.367000",
      "PhotometricInterpretation": "MONOCHROME2",
      "PixelBandwidth": 2290.0,
      "PixelRepresentation": 0,
      "PixelSpacing": [2.0, 2.0],
      "ProtocolName": "func_task-mario_run-01",
      "RepetitionTime": 1490.0,
      "Rows": 832,
      "SAR": 0.04530451043177,
      "SamplesPerPixel": 1,
      "ScanOptions": "FS",
      "ScanningSequence": "EP",
      "SequenceName": "epfid2d1_104",
      "SequenceVariant": [
        "SK",
        "SS"
],
      "SeriesDescription": "func_task-mario_run-01",
      "SeriesNumber": 10,
      "SeriesTime": "155224.646000",
      "SliceLocation": -37.356000285448,
      "SliceThickness": 2.0,
      "SmallestImagePixelValue": 0,
      "SoftwareVersions": "syngo MR E11",
      "SpacingBetweenSlices": 2.000000034014,
      "SpecificCharacterSet": "ISO_IR 100",
      "StudyID": "1",
      "StudyTime": "151002.312000",
      "TransmitCoilName": "Body",
      "VariableFlipAngleFlag": "N",
      "WindowCenterWidthExplanation": "Algo1",
      "dBdt": 0.0},
    "slices": {}
  },
  "time": {
    "samples": {
      "AcquisitionNumber": [1, 2, 3, 4, 5, 6, 7, 8, 9, 10, 11, 12, 13, 14, 15, 16, 17, 18, 19, 20, 21, 22, 23, 24, 25, 26, 27, 28, 29, 30, 31, 32, 33, 34, 35, 36, 37, 38, 39, 40, 41, 42, 43, 44, 45, 46, 47, 48, 49, 50, 51, 52, 53, 54, 55, 56, 57, 58, 59, 60, 61, 62, 63, 64, 65, 66, 67, 68, 69, 70, 71, 72, 73, 74, 75, 76, 77, 78, 79, 80, 81, 82, 83, 84, 85, 86, 87, 88, 89, 90, 91, 92, 93, 94, 95, 96, 97, 98, 99, 100, 101, 102, 103, 104, 105, 106, 107, 108, 109, 110, 111, 112, 113, 114, 115, 116, 117, 118, 119, 120, 121, 122, 123, 124, 125, 126, 127, 128, 129, 130, 131, 132, 133, 134, 135, 136, 137, 138, 139, 140, 141, 142, 143, 144, 145, 146, 147, 148, 149, 150, 151, 152, 153, 154, 155, 156, 157, 158, 159, 160, 161, 162, 163, 164, 165, 166, 167, 168, 169, 170, 171, 172, 173, 174, 175, 176, 177, 178, 179, 180, 181, 182, 183, 184, 185, 186, 187, 188, 189, 190, 191, 192, 193, 194, 195, 196, 197, 198, 199, 200, 201, 202, 203, 204, 205, 206, 207, 208, 209, 210, 211, 212, 213, 214, 215, 216, 217, 218, 219, 220, 221, 222, 223, 224, 225, 226, 227, 228, 229, 230, 231, 232, 233, 234, 235, 236, 237, 238, 239, 240, 241, 242, 243, 244, 245, 246, 247, 248, 249, 250, 251, 252, 253, 254, 255, 256, 257, 258, 259, 260, 261, 262, 263, 264, 265, 266, 267, 268, 269, 270, 271, 272, 273, 274, 275, 276, 277, 278, 279, 280, 281, 282, 283, 284, 285, 286, 287, 288, 289, 290, 291, 292, 293, 294, 295, 296, 297, 298, 299, 300, 301, 302, 303, 304, 305, 306, 307, 308, 309, 310, 311, 312, 313, 314, 315, 316, 317, 318, 319, 320, 321, 322, 323, 324, 325, 326, 327, 328, 329, 330, 331, 332, 333, 334, 335, 336, 337, 338, 339, 340, 341, 342, 343, 344, 345, 346, 347, 348, 349, 350, 351, 352, 353, 354, 355, 356, 357, 358, 359, 360, 361, 362, 363, 364, 365, 366, 367, 368, 369, 370, 371, 372, 373, 374, 375, 376, 377, 378, 379, 380, 381, 382, 383, 384, 385, 386, 387, 388, 389, 390, 391, 392, 393, 394, 395, 396, 397, 398, 399, 400, 401, 402, 403, 404, 405, 406, 407, 408, 409, 410, 411, 412, 413, 414, 415, 416, 417, 418, 419, 420, 421, 422, 423, 424, 425, 426, 427, 428, 429, 430, 431, 432, 433, 434, 435, 436, 437, 438, 439, 440, 441, 442, 443, 444, 445, 446, 447, 448, 449, 450, 451, 452, 453, 454, 455, 456, 457, 458, 459, 460, 461, 462, 463, 464, 465, 466, 467, 468, 469, 470, 471, 472, 473, 474, 475, 476, 477, 478, 479, 480, 481, 482, 483, 484, 485, 486, 487, 488, 489, 490, 491, 492, 493, 494, 495, 496, 497, 498, 499, 500, 501, 502, 503, 504, 505, 506, 507, 508],
      "AcquisitionTime": ["155106.797500", "155108.287500", "155109.777500", "155111.267500", "155112.757500", "155114.247500", "155115.737500", "155117.227500", "155118.717500", "155120.207500", "155121.697500", "155123.187500", "155124.677500", "155126.167500", "155127.657500", "155129.147500", "155130.637500", "155132.127500", "155133.617500", "155135.107500", "155136.597500", "155138.087500", "155139.577500", "155141.067500", "155142.557500", "155144.047500", "155145.537500", "155147.027500", "155148.517500", "155150.007500", "155151.497500", "155152.987500", "155154.477500", "155155.967500", "155157.457500", "155158.947500", "155200.437500", "155201.927500", "155203.417500", "155204.907500", "155206.397500", "155207.887500", "155209.377500", "155210.867500", "155212.357500", "155213.847500", "155215.337500", "155216.827500", "155218.317500", "155219.807500", "155221.297500", "155222.787500", "155224.277500", "155225.767500", "155227.257500", "155228.747500", "155230.237500", "155231.727500", "155233.217500", "155234.707500", "155236.197500", "155237.687500", "155239.177500", "155240.667500", "155242.157500", "155243.647500", "155245.137500", "155246.627500", "155248.117500", "155249.607500", "155251.097500", "155252.587500", "155254.077500", "155255.567500", "155257.057500", "155258.547500", "155300.037500", "155301.527500", "155303.017500", "155304.507500", "155305.997500", "155307.487500", "155308.977500", "155310.467500", "155311.957500", "155313.447500", "155314.937500", "155316.427500", "155317.917500", "155319.407500", "155320.897500", "155322.387500", "155323.877500", "155325.367500", "155326.857500", "155328.347500", "155329.837500", "155331.327500", "155332.817500", "155334.307500", "155335.797500", "155337.287500", "155338.777500", "155340.267500", "155341.757500", "155343.247500", "155344.737500", "155346.227500", "155347.717500", "155349.207500", "155350.697500", "155352.187500", "155353.677500", "155355.167500", "155356.657500", "155358.147500", "155359.637500", "155401.127500", "155402.617500", "155404.107500", "155405.597500", "155407.087500", "155408.577500", "155410.067500", "155411.557500", "155413.047500", "155414.537500", "155416.027500", "155417.517500", "155419.007500", "155420.497500", "155421.987500", "155423.477500", "155424.967500", "155426.457500", "155427.947500", "155429.437500", "155430.927500", "155432.417500", "155433.907500", "155435.397500", "155436.887500", "155438.377500", "155439.867500", "155441.357500", "155442.847500", "155444.337500", "155445.827500", "155447.317500", "155448.807500", "155450.297500", "155451.787500", "155453.277500", "155454.767500", "155456.257500", "155457.747500", "155459.237500", "155500.727500", "155502.217500", "155503.707500", "155505.197500", "155506.687500", "155508.177500", "155509.667500", "155511.157500", "155512.647500", "155514.137500", "155515.627500", "155517.117500", "155518.607500", "155520.097500", "155521.587500", "155523.077500", "155524.567500", "155526.057500", "155527.547500", "155529.037500", "155530.527500", "155532.017500", "155533.507500", "155534.997500", "155536.487500", "155537.977500", "155539.467500", "155540.957500", "155542.447500", "155543.937500", "155545.427500", "155546.917500", "155548.407500", "155549.897500", "155551.387500", "155552.877500", "155554.367500", "155555.857500", "155557.347500", "155558.837500", "155600.327500", "155601.817500", "155603.307500", "155604.797500", "155606.287500", "155607.777500", "155609.267500", "155610.757500", "155612.247500", "155613.737500", "155615.227500", "155616.717500", "155618.207500", "155619.697500", "155621.187500", "155622.677500", "155624.167500", "155625.657500", "155627.147500", "155628.637500", "155630.127500", "155631.617500", "155633.107500", "155634.597500", "155636.087500", "155637.577500", "155639.067500", "155640.557500", "155642.047500", "155643.537500", "155645.027500", "155646.517500", "155648.007500", "155649.497500", "155650.987500", "155652.477500", "155653.967500", "155655.457500", "155656.947500", "155658.437500", "155659.927500", "155701.417500", "155702.907500", "155704.397500", "155705.887500", "155707.377500", "155708.867500", "155710.357500", "155711.847500", "155713.337500", "155714.827500", "155716.317500", "155717.807500", "155719.297500", "155720.787500", "155722.277500", "155723.767500", "155725.257500", "155726.747500", "155728.237500", "155729.727500", "155731.217500", "155732.707500", "155734.197500", "155735.687500", "155737.177500", "155738.667500", "155740.157500", "155741.647500", "155743.137500", "155744.627500", "155746.117500", "155747.607500", "155749.097500", "155750.587500", "155752.077500", "155753.567500", "155755.057500", "155756.547500", "155758.037500", "155759.527500", "155801.017500", "155802.507500", "155803.997500", "155805.487500", "155806.977500", "155808.467500", "155809.957500", "155811.447500", "155812.937500", "155814.427500", "155815.917500", "155817.407500", "155818.897500", "155820.387500", "155821.877500", "155823.367500", "155824.857500", "155826.347500", "155827.837500", "155829.327500", "155830.817500", "155832.307500", "155833.797500", "155835.287500", "155836.777500", "155838.267500", "155839.757500", "155841.247500", "155842.737500", "155844.227500", "155845.717500", "155847.207500", "155848.697500", "155850.187500", "155851.677500", "155853.167500", "155854.657500", "155856.147500", "155857.637500", "155859.127500", "155900.617500", "155902.107500", "155903.597500", "155905.087500", "155906.577500", "155908.067500", "155909.557500", "155911.047500", "155912.537500", "155914.027500", "155915.517500", "155917.007500", "155918.497500", "155919.987500", "155921.477500", "155922.967500", "155924.457500", "155925.947500", "155927.437500", "155928.927500", "155930.417500", "155931.907500", "155933.397500", "155934.887500", "155936.377500", "155937.867500", "155939.357500", "155940.847500", "155942.337500", "155943.827500", "155945.317500", "155946.807500", "155948.297500", "155949.787500", "155951.277500", "155952.767500", "155954.257500", "155955.747500", "155957.237500", "155958.727500", "160000.217500", "160001.707500", "160003.197500", "160004.687500", "160006.177500", "160007.667500", "160009.157500", "160010.647500", "160012.137500", "160013.627500", "160015.117500", "160016.607500", "160018.097500", "160019.587500", "160021.077500", "160022.567500", "160024.057500", "160025.547500", "160027.037500", "160028.527500", "160030.017500", "160031.507500", "160032.997500", "160034.487500", "160035.977500", "160037.467500", "160038.957500", "160040.447500", "160041.937500", "160043.427500", "160044.917500", "160046.407500", "160047.897500", "160049.387500", "160050.877500", "160052.367500", "160053.857500", "160055.347500", "160056.837500", "160058.327500", "160059.817500", "160101.307500", "160102.797500", "160104.287500", "160105.777500", "160107.267500", "160108.757500", "160110.247500", "160111.737500", "160113.227500", "160114.717500", "160116.207500", "160117.697500", "160119.187500", "160120.677500", "160122.167500", "160123.657500", "160125.147500", "160126.637500", "160128.127500", "160129.617500", "160131.107500", "160132.597500", "160134.087500", "160135.577500", "160137.067500", "160138.557500", "160140.047500", "160141.537500", "160143.027500", "160144.517500", "160146.007500", "160147.497500", "160148.987500", "160150.477500", "160151.967500", "160153.457500", "160154.947500", "160156.437500", "160157.927500", "160159.417500", "160200.907500", "160202.397500", "160203.887500", "160205.377500", "160206.867500", "160208.357500", "160209.847500", "160211.337500", "160212.827500", "160214.317500", "160215.807500", "160217.297500", "160218.787500", "160220.277500", "160221.767500", "160223.257500", "160224.747500", "160226.237500", "160227.727500", "160229.217500", "160230.707500", "160232.197500", "160233.687500", "160235.177500", "160236.667500", "160238.157500", "160239.647500", "160241.137500", "160242.627500", "160244.117500", "160245.607500", "160247.097500", "160248.587500", "160250.077500", "160251.567500", "160253.057500", "160254.547500", "160256.037500", "160257.527500", "160259.017500", "160300.507500", "160301.997500", "160303.487500", "160304.977500", "160306.467500", "160307.957500", "160309.447500", "160310.937500", "160312.427500", "160313.917500", "160315.407500", "160316.897500", "160318.387500", "160319.877500", "160321.367500", "160322.857500", "160324.347500", "160325.837500", "160327.327500", "160328.817500", "160330.307500", "160331.797500", "160333.287500", "160334.777500", "160336.267500", "160337.757500", "160339.247500", "160340.737500", "160342.227500"],
      "ContentTime": ["155224.649000", "155224.653000", "155224.656000", "155224.660000", "155224.663000", "155224.667000", "155224.677000", "155224.681000", "155224.685000", "155224.688000", "155224.691000", "155224.695000", "155224.698000", "155224.702000", "155224.705000", "155224.709000", "155224.712000", "155224.715000", "155224.719000", "155224.722000", "155224.726000", "155224.733000", "155224.737000", "155224.740000", "155224.743000", "155304.604000", "155304.608000", "155304.611000", "155304.615000", "155304.618000", "155304.626000", "155304.630000", "155304.633000", "155304.636000", "155304.640000", "155304.643000", "155304.647000", "155304.650000", "155304.654000", "155304.657000", "155304.660000", "155304.664000", "155304.667000", "155304.671000", "155304.674000", "155304.677000", "155304.681000", "155304.684000", "155304.688000", "155304.691000", "155304.694000", "155304.698000", "155304.701000", "155304.705000", "155304.708000", "155304.712000", "155304.715000", "155304.718000", "155304.722000", "155304.725000", "155304.729000", "155304.732000", "155304.735000", "155304.739000", "155304.742000", "155324.604000", "155324.608000", "155324.611000", "155324.615000", "155324.618000", "155324.622000", "155324.625000", "155324.628000", "155324.632000", "155324.635000", "155324.639000", "155324.642000", "155324.646000", "155324.649000", "155324.652000", "155324.656000", "155324.659000", "155324.663000", "155324.666000", "155324.670000", "155344.605000", "155344.609000", "155344.612000", "155344.616000", "155344.619000", "155344.623000", "155344.626000", "155344.630000", "155344.633000", "155344.636000", "155344.640000", "155344.643000", "155344.647000", "155344.650000", "155344.653000", "155344.657000", "155344.660000", "155344.664000", "155344.667000", "155344.671000", "155424.605000", "155424.608000", "155424.612000", "155424.615000", "155424.619000", "155424.622000", "155424.625000", "155424.629000", "155424.641000", "155424.644000", "155424.647000", "155424.651000", "155424.654000", "155424.658000", "155424.661000", "155424.665000", "155424.668000", "155424.671000", "155424.675000", "155424.678000", "155424.682000", "155424.690000", "155424.693000", "155424.697000", "155424.700000", "155424.704000", "155424.707000", "155504.604000", "155504.608000", "155504.611000", "155504.615000", "155504.618000", "155504.622000", "155504.625000", "155504.628000", "155504.632000", "155504.635000", "155504.639000", "155504.642000", "155504.646000", "155504.649000", "155504.653000", "155504.656000", "155504.660000", "155504.663000", "155504.666000", "155504.670000", "155504.673000", "155504.677000", "155504.680000", "155504.684000", "155504.687000", "155504.690000", "155504.694000", "155544.604000", "155544.608000", "155544.611000", "155544.615000", "155544.618000", "155544.622000", "155544.625000", "155544.629000", "155544.632000", "155544.635000", "155544.640000", "155544.643000", "155544.647000", "155544.650000", "155544.653000", "155544.657000", "155544.660000", "155544.664000", "155544.667000", "155544.670000", "155544.674000", "155544.677000", "155544.681000", "155544.684000", "155544.687000", "155544.691000", "155544.694000", "155624.605000", "155624.609000", "155624.612000", "155624.616000", "155624.620000", "155624.623000", "155624.627000", "155624.630000", "155624.634000", "155624.637000", "155624.640000", "155624.644000", "155624.647000", "155624.651000", "155624.654000", "155624.658000", "155624.661000", "155624.664000", "155624.668000", "155624.671000", "155624.675000", "155624.678000", "155624.681000", "155624.685000", "155624.688000", "155624.692000", "155704.604000", "155704.608000", "155704.611000", "155704.615000", "155704.618000", "155704.622000", "155704.625000", "155704.629000", "155704.632000", "155704.635000", "155704.639000", "155704.642000", "155704.646000", "155704.649000", "155704.653000", "155704.656000", "155704.660000", "155704.663000", "155704.666000", "155704.670000", "155704.673000", "155704.677000", "155704.680000", "155704.684000", "155704.687000", "155704.690000", "155704.694000", "155744.604000", "155744.608000", "155744.612000", "155744.615000", "155744.618000", "155744.622000", "155744.625000", "155744.629000", "155744.632000", "155744.636000", "155744.639000", "155744.642000", "155744.646000", "155744.649000", "155744.653000", "155744.656000", "155744.660000", "155744.663000", "155744.666000", "155744.670000", "155744.673000", "155744.677000", "155744.680000", "155744.684000", "155744.687000", "155744.690000", "155744.694000", "155824.605000", "155824.609000", "155824.613000", "155824.616000", "155824.620000", "155824.623000", "155824.626000", "155824.630000", "155824.633000", "155824.637000", "155824.640000", "155824.644000", "155824.647000", "155824.651000", "155824.654000", "155824.658000", "155824.661000", "155824.664000", "155824.668000", "155824.671000", "155824.675000", "155824.678000", "155824.682000", "155824.685000", "155824.689000", "155824.692000", "155824.695000", "155904.604000", "155904.608000", "155904.612000", "155904.615000", "155904.618000", "155904.622000", "155904.625000", "155904.644000", "155904.648000", "155904.651000", "155904.654000", "155904.658000", "155904.661000", "155904.665000", "155904.668000", "155904.672000", "155904.675000", "155904.678000", "155904.682000", "155904.685000", "155904.689000", "155904.692000", "155904.696000", "155904.699000", "155904.703000", "155904.706000", "155904.710000", "155944.605000", "155944.608000", "155944.612000", "155944.615000", "155944.619000", "155944.622000", "155944.625000", "155944.629000", "155944.632000", "155944.636000", "155944.639000", "155944.643000", "155944.646000", "155944.649000", "155944.653000", "155944.656000", "155944.660000", "155944.663000", "155944.667000", "155944.670000", "155944.673000", "155944.677000", "155944.680000", "155944.684000", "155944.687000", "155944.691000", "155944.694000", "160024.606000", "160024.609000", "160024.613000", "160024.616000", "160024.620000", "160024.623000", "160024.627000", "160024.630000", "160024.633000", "160024.637000", "160024.640000", "160024.644000", "160024.647000", "160024.650000", "160024.654000", "160024.657000", "160024.661000", "160024.664000", "160024.668000", "160024.671000", "160024.674000", "160024.678000", "160024.681000", "160024.685000", "160024.688000", "160024.691000", "160024.695000", "160104.605000", "160104.609000", "160104.612000", "160104.616000", "160104.619000", "160104.623000", "160104.626000", "160104.630000", "160104.633000", "160104.637000", "160104.641000", "160104.645000", "160104.648000", "160104.652000", "160104.655000", "160104.659000", "160104.662000", "160104.665000", "160104.669000", "160104.672000", "160104.676000", "160104.690000", "160104.694000", "160104.697000", "160104.701000", "160104.704000", "160144.604000", "160144.608000", "160144.612000", "160144.615000", "160144.619000", "160144.622000", "160144.625000", "160144.629000", "160144.632000", "160144.636000", "160144.639000", "160144.643000", "160144.646000", "160144.650000", "160144.653000", "160144.656000", "160144.660000", "160144.664000", "160144.667000", "160144.670000", "160144.674000", "160144.677000", "160144.681000", "160144.684000", "160144.688000", "160144.691000", "160144.695000", "160224.604000", "160224.608000", "160224.612000", "160224.615000", "160224.618000", "160224.622000", "160224.625000", "160224.629000", "160224.632000", "160224.636000", "160224.639000", "160224.643000", "160224.646000", "160224.650000", "160224.653000", "160224.656000", "160224.660000", "160224.663000", "160224.667000", "160224.670000", "160224.674000", "160224.677000", "160224.681000", "160224.684000", "160224.687000", "160224.691000", "160224.694000", "160304.605000", "160304.609000", "160304.613000", "160304.616000", "160304.619000", "160304.623000", "160304.626000", "160304.630000", "160304.633000", "160304.637000", "160304.640000", "160304.644000", "160304.647000", "160304.650000", "160304.654000", "160304.657000", "160304.661000", "160304.664000", "160304.668000", "160304.671000", "160304.674000", "160304.678000", "160304.681000", "160304.685000", "160304.688000", "160304.692000", "160304.695000", "160344.569000", "160344.573000", "160344.577000", "160344.581000", "160344.585000", "160344.588000", "160344.592000", "160344.596000", "160344.599000", "160344.603000", "160344.606000", "160344.609000", "160344.613000", "160344.616000", "160344.620000", "160344.623000", "160344.627000", "160344.630000", "160344.633000", "160344.637000", "160344.640000", "160344.644000", "160344.647000", "160344.651000", "160344.654000", "160344.657000", "160344.661000"],
