{
  "AcquisitionMatrixPE": 104,
  "AcquisitionNumber": 1,
  "AcquisitionTime": "16:05:15.357500",
  "BandwidthPerPixelPhaseEncode": 17.17,
  "BaseResolution": 104,
  "BodyPartExamined": "BRAIN",
  "CoilString": "HC1-7;NC1_2",
  "ConsistencyInfo": "N4_VE11C_LATEST_20160120",
  "ConversionSoftware": "dcm2niix",
  "ConversionSoftwareVersion": "v1.0.20190902",
  "DerivedVendorReportedEchoSpacing": 0.000560011,
  "DeviceSerialNumber": "167006",
  "DwellTime": 2.1e-06,
  "EchoTime": 0.037,
  "EchoTrainLength": 104,
  "EffectiveEchoSpacing": 0.000560011,
  "FlipAngle": 52,
  "HeudiconvVersion": "0.10.0",
  "ImageComments": "Unaliased_MB4_PE3_LB",
  "ImageOrientationPatientDICOM": [0.999754, -0.0216468, 0.00482315, 0.0219893, 0.939255, -0.342516],
  "ImageType": [
    "ORIGINAL",
    "PRIMARY",
    "P",
    "MB",
    "ND",
    "MOSAIC"
],
  "ImagingFrequency": 123.259,
  "InPlanePhaseEncodingDirectionDICOM": "COL",
  "InstitutionAddress": "Chemin_Queen-Mary_4565_Montreal_District_CA_H3W_1W5",
  "InstitutionName": "IUGM",
  "InstitutionalDepartmentName": "Department",
  "MRAcquisitionType": "2D",
  "MagneticFieldStrength": 3,
  "Manufacturer": "Siemens",
  "ManufacturersModelName": "Prisma_fit",
  "Modality": "MR",
  "MultibandAccelerationFactor": 4,
  "PartialFourier": 1,
  "PatientPosition": "HFS",
  "PercentPhaseFOV": 100,
  "PhaseEncodingDirection": "j",
  "PhaseEncodingSteps": 104,
  "PhaseResolution": 1,
  "PixelBandwidth": 2290,
  "ProcedureStepDescription": "games_mario",
  "ProtocolName": "func_task-mario_run-02",
  "PulseSequenceDetails": "%CustomerSeq%_cmrr_mbep2d_bold",
  "ReceiveCoilActiveElements": "HC1-7;NC1,2",
  "ReceiveCoilName": "HeadNeck_64",
  "ReconMatrixPE": 104,
  "RepetitionTime": 1.49,
  "SAR": 0.0453045,
  "ScanOptions": "FS",
  "ScanningSequence": "EP",
  "SequenceName": "epfid2d1_104",
  "SequenceVariant": "SK_SS",
  "SeriesDescription": "func_task-mario_run-02",
  "SeriesNumber": 14,
  "ShimSetting": [627, -7253, -8824, 580, 17, -196, -75, -12],
  "SliceThickness": 2,
  "SliceTiming": [0, 0.785, 0.0975, 0.8825, 0.1975, 0.98, 0.295, 1.0775, 0.3925, 1.175, 0.49, 1.275, 0.5875, 1.3725, 0.6875, 0, 0.785, 0.0975, 0.8825, 0.1975, 0.98, 0.295, 1.0775, 0.3925, 1.175, 0.49, 1.275, 0.5875, 1.3725, 0.6875, 0, 0.785, 0.0975, 0.8825, 0.1975, 0.98, 0.295, 1.0775, 0.3925, 1.175, 0.49, 1.275, 0.5875, 1.3725, 0.6875, 0, 0.785, 0.0975, 0.8825, 0.1975, 0.98, 0.295, 1.0775, 0.3925, 1.175, 0.49, 1.275, 0.5875, 1.3725, 0.6875],
  "SoftwareVersions": "syngo_MR_E11",
  "SpacingBetweenSlices": 2,
  "StationName": "MRC35049",
  "TaskName": "mario",
  "TotalReadoutTime": 0.0576811,
  "TxRefAmp": 242.856,
  "WipMemBlock": "3c563691-4811-488e-82a8-296ac99ec5dc||Sequence: R016 ve11c/master r/e634e98; Dec 19 2017 11:00:25 by eja",
  "dcmmeta_affine": [
    [-1.9995081424713135, 0.04397851601243019, -0.005768405739217997, 104.25056457519531],
    [0.04329356923699379, 1.8785094022750854, -0.6850754022598267, -66.92291259765625],
    [0.009646297432482243, 0.6850317716598511, 1.8789993524551392, -63.841365814208984],
    [0.0, 0.0, 0.0, 1.0]
],
  "dcmmeta_reorient_transform": [
    [0.0, -1.0, 0.0, 103.0],
    [1.0, 0.0, 0.0, 0.0],
    [0.0, 0.0, 1.0, 0.0],
    [0.0, 0.0, 0.0, 1.0]
],
  "dcmmeta_shape": [104, 104, 60, 420],
  "dcmmeta_slice_dim": 2,
  "dcmmeta_version": 0.6,
  "global": {
    "const": {
      "AcquisitionMatrix": [104, 0, 0, 104],
      "AngioFlag": "N",
      "BitsAllocated": 16,
      "BitsStored": 16,
      "BodyPartExamined": "BRAIN",
      "Columns": 832,
      "EchoNumbers": 1,
      "EchoTime": 37.0,
      "EchoTrainLength": 104,
      "FlipAngle": 52.0,
      "HighBit": 15,
      "ImageOrientationPatient": [0.99975404671812, -0.0216467851854, 0.0048231485444, 0.02198925749045, 0.93925467598691, -0.3425158772842],
      "ImagePositionPatient": [-852.60947707707, -794.58209699502, 252.55721310444],
      "ImageType": [
        "ORIGINAL",
        "PRIMARY",
        "P",
        "MB",
        "ND",
        "MOSAIC"
],
      "ImagedNucleus": "1H",
      "ImagingFrequency": 123.258877,
      "InPlanePhaseEncodingDirection": "COL",
      "LargestImagePixelValue": 4095,
      "MRAcquisitionType": "2D",
      "MagneticFieldStrength": 3.0,
      "Manufacturer": "SIEMENS",
      "ManufacturerModelName": "Prisma_fit",
      "Modality": "MR",
      "NumberOfAverages": 1.0,
      "NumberOfPhaseEncodingSteps": 104,
      "PercentPhaseFieldOfView": 100.0,
      "PercentSampling": 100.0,
      "PerformedProcedureStepStartTime": "151002.367000",
      "PhotometricInterpretation": "MONOCHROME2",
      "PixelBandwidth": 2290.0,
      "PixelRepresentation": 0,
      "PixelSpacing": [2.0, 2.0],
      "ProtocolName": "func_task-mario_run-02",
      "RepetitionTime": 1490.0,
      "RescaleIntercept": -4096.0,
      "RescaleSlope": 2.0,
      "RescaleType": "US",
      "Rows": 832,
      "SAR": 0.04530451043177,
      "SamplesPerPixel": 1,
      "ScanOptions": "FS",
      "ScanningSequence": "EP",
      "SequenceName": "epfid2d1_104",
      "SequenceVariant": [
        "SK",
        "SS"
],
      "SeriesDescription": "func_task-mario_run-02",
      "SeriesNumber": 14,
      "SeriesTime": "160624.816000",
      "SliceLocation": -37.356000285448,
      "SliceThickness": 2.0,
      "SmallestImagePixelValue": 0,
      "SoftwareVersions": "syngo MR E11",
      "SpacingBetweenSlices": 2.000000034014,
      "SpecificCharacterSet": "ISO_IR 100",
      "StudyID": "1",
      "StudyTime": "151002.312000",
      "TransmitCoilName": "Body",
      "VariableFlipAngleFlag": "N",
      "WindowCenterWidthExplanation": "Algo1",
      "dBdt": 0.0},
    "slices": {}
  },
  "time": {
    "samples": {
      "AcquisitionNumber": [1, 2, 3, 4, 5, 6, 7, 8, 9, 10, 11, 12, 13, 14, 15, 16, 17, 18, 19, 20, 21, 22, 23, 24, 25, 26, 27, 28, 29, 30, 31, 32, 33, 34, 35, 36, 37, 38, 39, 40, 41, 42, 43, 44, 45, 46, 47, 48, 49, 50, 51, 52, 53, 54, 55, 56, 57, 58, 59, 60, 61, 62, 63, 64, 65, 66, 67, 68, 69, 70, 71, 72, 73, 74, 75, 76, 77, 78, 79, 80, 81, 82, 83, 84, 85, 86, 87, 88, 89, 90, 91, 92, 93, 94, 95, 96, 97, 98, 99, 100, 101, 102, 103, 104, 105, 106, 107, 108, 109, 110, 111, 112, 113, 114, 115, 116, 117, 118, 119, 120, 121, 122, 123, 124, 125, 126, 127, 128, 129, 130, 131, 132, 133, 134, 135, 136, 137, 138, 139, 140, 141, 142, 143, 144, 145, 146, 147, 148, 149, 150, 151, 152, 153, 154, 155, 156, 157, 158, 159, 160, 161, 162, 163, 164, 165, 166, 167, 168, 169, 170, 171, 172, 173, 174, 175, 176, 177, 178, 179, 180, 181, 182, 183, 184, 185, 186, 187, 188, 189, 190, 191, 192, 193, 194, 195, 196, 197, 198, 199, 200, 201, 202, 203, 204, 205, 206, 207, 208, 209, 210, 211, 212, 213, 214, 215, 216, 217, 218, 219, 220, 221, 222, 223, 224, 225, 226, 227, 228, 229, 230, 231, 232, 233, 234, 235, 236, 237, 238, 239, 240, 241, 242, 243, 244, 245, 246, 247, 248, 249, 250, 251, 252, 253, 254, 255, 256, 257, 258, 259, 260, 261, 262, 263, 264, 265, 266, 267, 268, 269, 270, 271, 272, 273, 274, 275, 276, 277, 278, 279, 280, 281, 282, 283, 284, 285, 286, 287, 288, 289, 290, 291, 292, 293, 294, 295, 296, 297, 298, 299, 300, 301, 302, 303, 304, 305, 306, 307, 308, 309, 310, 311, 312, 313, 314, 315, 316, 317, 318, 319, 320, 321, 322, 323, 324, 325, 326, 327, 328, 329, 330, 331, 332, 333, 334, 335, 336, 337, 338, 339, 340, 341, 342, 343, 344, 345, 346, 347, 348, 349, 350, 351, 352, 353, 354, 355, 356, 357, 358, 359, 360, 361, 362, 363, 364, 365, 366, 367, 368, 369, 370, 371, 372, 373, 374, 375, 376, 377, 378, 379, 380, 381, 382, 383, 384, 385, 386, 387, 388, 389, 390, 391, 392, 393, 394, 395, 396, 397, 398, 399, 400, 401, 402, 403, 404, 405, 406, 407, 408, 409, 410, 411, 412, 413, 414, 415, 416, 417, 418, 419, 420],
      "AcquisitionTime": ["160515.357500", "160516.847500", "160518.337500", "160519.827500", "160521.317500", "160522.807500", "160524.297500", "160525.787500", "160527.277500", "160528.767500", "160530.257500", "160531.747500", "160533.237500", "160534.727500", "160536.217500", "160537.707500", "160539.197500", "160540.687500", "160542.177500", "160543.667500", "160545.157500", "160546.647500", "160548.137500", "160549.627500", "160551.117500", "160552.607500", "160554.097500", "160555.587500", "160557.077500", "160558.567500", "160600.057500", "160601.547500", "160603.037500", "160604.527500", "160606.017500", "160607.507500", "160608.997500", "160610.487500", "160611.977500", "160613.467500", "160614.957500", "160616.447500", "160617.937500", "160619.427500", "160620.917500", "160622.407500", "160623.897500", "160625.387500", "160626.877500", "160628.367500", "160629.857500", "160631.347500", "160632.837500", "160634.327500", "160635.817500", "160637.307500", "160638.797500", "160640.287500", "160641.777500", "160643.267500", "160644.757500", "160646.247500", "160647.737500", "160649.227500", "160650.717500", "160652.207500", "160653.697500", "160655.187500", "160656.677500", "160658.167500", "160659.657500", "160701.147500", "160702.637500", "160704.127500", "160705.617500", "160707.107500", "160708.597500", "160710.087500", "160711.577500", "160713.067500", "160714.557500", "160716.047500", "160717.537500", "160719.027500", "160720.517500", "160722.007500", "160723.497500", "160724.987500", "160726.477500", "160727.967500", "160729.457500", "160730.947500", "160732.437500", "160733.927500", "160735.417500", "160736.907500", "160738.397500", "160739.887500", "160741.377500", "160742.867500", "160744.357500", "160745.847500", "160747.337500", "160748.827500", "160750.317500", "160751.807500", "160753.297500", "160754.787500", "160756.277500", "160757.767500", "160759.257500", "160800.747500", "160802.237500", "160803.727500", "160805.217500", "160806.707500", "160808.197500", "160809.687500", "160811.177500", "160812.667500", "160814.157500", "160815.647500", "160817.137500", "160818.627500", "160820.117500", "160821.607500", "160823.097500", "160824.587500", "160826.077500", "160827.567500", "160829.057500", "160830.547500", "160832.037500", "160833.527500", "160835.017500", "160836.507500", "160837.997500", "160839.487500", "160840.977500", "160842.467500", "160843.957500", "160845.447500", "160846.937500", "160848.427500", "160849.917500", "160851.407500", "160852.897500", "160854.387500", "160855.877500", "160857.367500", "160858.857500", "160900.347500", "160901.837500", "160903.327500", "160904.817500", "160906.307500", "160907.797500", "160909.287500", "160910.777500", "160912.267500", "160913.757500", "160915.247500", "160916.737500", "160918.227500", "160919.717500", "160921.207500", "160922.697500", "160924.187500", "160925.677500", "160927.167500", "160928.657500", "160930.147500", "160931.637500", "160933.127500", "160934.617500", "160936.107500", "160937.597500", "160939.087500", "160940.577500", "160942.067500", "160943.557500", "160945.047500", "160946.537500", "160948.027500", "160949.517500", "160951.007500", "160952.497500", "160953.987500", "160955.477500", "160956.967500", "160958.457500", "160959.947500", "161001.437500", "161002.927500", "161004.417500", "161005.907500", "161007.397500", "161008.887500", "161010.377500", "161011.867500", "161013.357500", "161014.847500", "161016.337500", "161017.827500", "161019.317500", "161020.807500", "161022.297500", "161023.787500", "161025.277500", "161026.767500", "161028.257500", "161029.747500", "161031.237500", "161032.727500", "161034.217500", "161035.707500", "161037.197500", "161038.687500", "161040.177500", "161041.667500", "161043.157500", "161044.647500", "161046.137500", "161047.627500", "161049.117500", "161050.607500", "161052.097500", "161053.587500", "161055.077500", "161056.567500", "161058.057500", "161059.547500", "161101.037500", "161102.527500", "161104.017500", "161105.507500", "161106.997500", "161108.487500", "161109.977500", "161111.467500", "161112.957500", "161114.447500", "161115.937500", "161117.427500", "161118.917500", "161120.407500", "161121.897500", "161123.387500", "161124.877500", "161126.367500", "161127.857500", "161129.347500", "161130.837500", "161132.327500", "161133.817500", "161135.307500", "161136.797500", "161138.287500", "161139.777500", "161141.267500", "161142.757500", "161144.247500", "161145.737500", "161147.227500", "161148.717500", "161150.207500", "161151.697500", "161153.187500", "161154.677500", "161156.167500", "161157.657500", "161159.147500", "161200.637500", "161202.127500", "161203.617500", "161205.107500", "161206.597500", "161208.087500", "161209.577500", "161211.067500", "161212.557500", "161214.047500", "161215.537500", "161217.027500", "161218.517500", "161220.007500", "161221.497500", "161222.987500", "161224.477500", "161225.967500", "161227.457500", "161228.947500", "161230.437500", "161231.927500", "161233.417500", "161234.907500", "161236.397500", "161237.887500", "161239.377500", "161240.867500", "161242.357500", "161243.847500", "161245.337500", "161246.827500", "161248.317500", "161249.807500", "161251.297500", "161252.787500", "161254.277500", "161255.767500", "161257.257500", "161258.747500", "161300.237500", "161301.727500", "161303.217500", "161304.707500", "161306.197500", "161307.687500", "161309.177500", "161310.667500", "161312.157500", "161313.647500", "161315.137500", "161316.627500", "161318.117500", "161319.607500", "161321.097500", "161322.587500", "161324.077500", "161325.567500", "161327.057500", "161328.547500", "161330.037500", "161331.527500", "161333.017500", "161334.507500", "161335.997500", "161337.487500", "161338.977500", "161340.467500", "161341.957500", "161343.447500", "161344.937500", "161346.427500", "161347.917500", "161349.407500", "161350.897500", "161352.387500", "161353.877500", "161355.367500", "161356.857500", "161358.347500", "161359.837500", "161401.327500", "161402.817500", "161404.307500", "161405.797500", "161407.287500", "161408.777500", "161410.267500", "161411.757500", "161413.247500", "161414.737500", "161416.227500", "161417.717500", "161419.207500", "161420.697500", "161422.187500", "161423.677500", "161425.167500", "161426.657500", "161428.147500", "161429.637500", "161431.127500", "161432.617500", "161434.107500", "161435.597500", "161437.087500", "161438.577500", "161440.067500", "161441.557500", "161443.047500", "161444.537500", "161446.027500", "161447.517500", "161449.007500", "161450.497500", "161451.987500", "161453.477500", "161454.967500", "161456.457500", "161457.947500", "161459.437500", "161500.927500", "161502.417500", "161503.907500", "161505.397500", "161506.887500", "161508.377500", "161509.867500", "161511.357500", "161512.847500", "161514.337500", "161515.827500", "161517.317500", "161518.807500", "161520.297500", "161521.787500", "161523.277500", "161524.767500", "161526.257500", "161527.747500", "161529.237500", "161530.727500", "161532.217500", "161533.707500", "161535.197500", "161536.687500", "161538.177500", "161539.667500"],
      "ContentTime": ["160624.818000", "160624.821000", "160624.824000", "160624.826000", "160624.829000", "160624.839000", "160624.841000", "160624.844000", "160624.846000", "160624.849000", "160624.851000", "160624.854000", "160624.856000", "160624.859000", "160624.861000", "160624.864000", "160644.799000", "160644.801000", "160644.804000", "160644.806000", "160644.809000", "160644.812000", "160644.814000", "160644.817000", "160644.819000", "160644.822000", "160644.824000", "160644.827000", "160644.829000", "160644.832000", "160644.834000", "160644.837000", "160644.839000", "160644.842000", "160644.844000", "160644.847000", "160704.792000", "160704.795000", "160704.797000", "160704.800000", "160704.802000", "160704.805000", "160704.807000", "160704.810000", "160704.812000", "160704.815000", "160704.819000", "160704.822000", "160704.824000", "160704.827000", "160704.829000", "160704.832000", "160704.834000", "160704.837000", "160704.839000", "160704.842000", "160724.803000", "160724.806000", "160724.809000", "160724.811000", "160724.814000", "160724.816000", "160724.819000", "160724.822000", "160724.824000", "160724.827000", "160724.829000", "160724.832000", "160724.834000", "160724.837000", "160724.839000", "160724.842000", "160724.844000", "160724.847000", "160724.849000", "160724.852000", "160744.808000", "160744.811000", "160744.813000", "160744.816000", "160744.818000", "160744.821000", "160744.823000", "160744.826000", "160744.828000", "160744.831000", "160744.833000", "160744.836000", "160744.839000", "160744.841000", "160744.844000", "160744.846000", "160744.849000", "160744.851000", "160744.854000", "160744.857000", "160744.859000", "160824.833000", "160824.836000", "160824.838000", "160824.841000", "160824.843000", "160824.846000", "160824.855000", "160824.857000", "160824.860000", "160824.862000", "160824.865000", "160824.867000", "160824.870000", "160824.872000", "160824.875000", "160824.877000", "160824.880000", "160824.883000", "160824.885000", "160824.888000", "160824.890000", "160824.893000", "160824.897000", "160824.899000", "160824.902000", "160824.905000", "160824.907000", "160824.910000", "160824.912000", "160904.817000", "160904.820000", "160904.823000", "160904.825000", "160904.828000", "160904.830000", "160904.833000", "160904.836000", "160904.838000", "160904.841000", "160904.843000", "160904.846000", "160904.848000", "160904.851000", "160904.853000", "160904.856000", "160904.858000", "160904.861000", "160904.863000", "160904.866000", "160904.869000", "160904.871000", "160904.874000", "160904.876000", "160904.879000", "160904.881000", "160904.884000", "160945.299000", "160945.302000", "160945.305000", "160945.307000", "160945.310000", "160945.312000", "160945.315000", "160945.318000", "160945.320000", "160945.323000", "160945.325000", "160945.328000", "160945.330000", "160945.333000", "160945.335000", "160945.338000", "160945.341000", "160945.343000", "160945.346000", "160945.348000", "160945.351000", "160945.353000", "160945.357000", "160945.360000", "160945.362000", "160945.365000", "160945.368000", "161024.850000", "161024.853000", "161024.856000", "161024.858000", "161024.861000", "161024.864000", "161024.866000", "161024.869000", "161024.871000", "161024.874000", "161024.877000", "161024.879000", "161024.882000", "161024.884000", "161024.887000", "161024.889000", "161024.892000", "161024.895000", "161024.897000", "161024.900000", "161024.902000", "161024.905000", "161024.907000", "161024.910000", "161024.912000", "161024.915000", "161024.918000", "161104.824000", "161104.827000", "161104.829000", "161104.832000", "161104.834000", "161104.837000", "161104.839000", "161104.842000", "161104.845000", "161104.847000", "161104.850000", "161104.852000", "161104.855000", "161104.857000", "161104.860000", "161104.862000", "161104.865000", "161104.868000", "161104.870000", "161104.873000", "161104.875000", "161104.878000", "161104.880000", "161104.883000", "161104.885000", "161104.888000", "161104.890000", "161144.820000", "161144.823000", "161144.825000", "161144.828000", "161144.831000", "161144.833000", "161144.836000", "161144.838000", "161144.841000", "161144.843000", "161144.846000", "161144.848000", "161144.851000", "161144.854000", "161144.856000", "161144.859000", "161144.861000", "161144.864000", "161144.866000", "161144.869000", "161144.884000", "161144.887000", "161144.890000", "161144.892000", "161144.895000", "161144.897000", "161224.839000", "161224.842000", "161224.844000", "161224.847000", "161224.850000", "161224.852000", "161224.855000", "161224.857000", "161224.860000", "161224.862000", "161224.865000", "161224.867000", "161224.870000", "161224.872000", "161224.875000", "161224.878000", "161224.880000", "161224.883000", "161224.885000", "161224.888000", "161224.890000", "161224.893000", "161224.895000", "161224.898000", "161224.900000", "161224.903000", "161224.906000", "161304.829000", "161304.832000", "161304.835000", "161304.837000", "161304.840000", "161304.843000", "161304.845000", "161304.848000", "161304.850000", "161304.853000", "161304.855000", "161304.858000", "161304.860000", "161304.863000", "161304.866000", "161304.868000", "161304.871000", "161304.874000", "161304.876000", "161304.879000", "161304.881000", "161304.884000", "161304.887000", "161304.889000", "161304.892000", "161304.894000", "161304.897000", "161344.838000", "161344.840000", "161344.843000", "161344.846000", "161344.848000", "161344.851000", "161344.853000", "161344.856000", "161344.858000", "161344.861000", "161344.863000", "161344.866000", "161344.868000", "161344.871000", "161344.874000", "161344.876000", "161344.879000", "161344.881000", "161344.884000", "161344.886000", "161344.889000", "161344.891000", "161344.894000", "161344.896000", "161344.899000", "161344.902000", "161344.904000", "161424.835000", "161424.838000", "161424.840000", "161424.843000", "161424.845000", "161424.848000", "161424.851000", "161424.853000", "161424.856000", "161424.858000", "161424.861000", "161424.863000", "161424.866000", "161424.869000", "161424.871000", "161424.874000", "161424.876000", "161424.879000", "161424.881000", "161424.884000", "161424.887000", "161424.889000", "161424.892000", "161424.894000", "161424.897000", "161424.899000", "161424.902000", "161504.831000", "161504.834000", "161504.837000", "161504.839000", "161504.842000", "161504.845000", "161504.847000", "161504.850000", "161504.852000", "161504.855000", "161504.857000", "161504.860000", "161504.862000", "161504.865000", "161504.867000", "161504.870000", "161504.873000", "161504.875000", "161504.878000", "161504.880000", "161504.883000", "161504.885000", "161504.888000", "161504.891000", "161504.893000", "161504.896000", "161504.898000", "161542.934000", "161542.937000", "161542.940000", "161542.942000", "161542.945000", "161542.948000", "161542.950000", "161542.953000", "161542.955000", "161542.958000", "161542.960000", "161542.963000", "161542.966000", "161542.968000", "161542.971000", "161542.973000", "161542.976000", "161542.978000", "161542.981000", "161542.984000", "161542.986000", "161542.989000", "161542.991000", "161542.994000", "161542.996000"],
      "InstanceCreationTime": ["160624.818000", "160624.821000", "160624.824000", "160624.826000", "160624.829000", "160624.839000", "160624.841000", "160624.844000", "160624.846000", "160624.849000", "160624.851000", "160624.854000", "160624.856000", "160624.859000", "160624.861000", "160624.864000", "160644.799000", "160644.801000", "160644.804000", "160644.806000", "160644.809000", "160644.812000", "160644.814000", "160644.817000", "160644.819000", "160644.822000", "160644.824000", "160644.827000", "160644.829000", "160644.832000", "160644.834000", "160644.837000", "160644.839000", "160644.842000", "160644.844000", "160644.847000", "160704.792000", "160704.795000", "160704.797000", "160704.800000", "160704.802000", "160704.805000", "160704.807000", "160704.810000", "160704.812000", "160704.815000", "160704.819000", "160704.822000", "160704.824000", "160704.827000", "160704.829000", "160704.832000", "160704.834000", "160704.837000", "160704.839000", "160704.842000", "160724.803000", "160724.806000", "160724.809000", "160724.811000", "160724.814000", "160724.816000", "160724.819000", "160724.822000", "160724.824000", "160724.827000", "160724.829000", "160724.832000", "160724.834000", "160724.837000", "160724.839000", "160724.842000", "160724.844000", "160724.847000", "160724.849000", "160724.852000", "160744.808000", "160744.811000", "160744.813000", "160744.816000", "160744.818000", "160744.821000", "160744.823000", "160744.826000", "160744.828000", "160744.831000", "160744.833000", "160744.836000", "160744.839000", "160744.841000", "160744.844000", "160744.846000", "160744.849000", "160744.851000", "160744.854000", "160744.857000", "160744.859000", "160824.833000", "160824.836000", "160824.838000", "160824.841000", "160824.843000", "160824.846000", "160824.855000", "160824.857000", "160824.860000", "160824.862000", "160824.865000", "160824.867000", "160824.870000", "160824.872000", "160824.875000", "160824.877000", "160824.880000", "160824.883000", "160824.885000", "160824.888000", "160824.890000", "160824.893000", "160824.897000", "160824.899000", "160824.902000", "160824.905000", "160824.907000", "160824.910000", "160824.912000", "160904.817000", "160904.820000", "160904.823000", "160904.825000", "160904.828000", "160904.830000", "160904.833000", "160904.836000", "160904.838000", "160904.841000", "160904.843000", "160904.846000", "160904.848000", "160904.851000", "160904.853000", "160904.856000", "160904.858000", "160904.861000", "160904.863000", "160904.866000", "160904.869000", "160904.871000", "160904.874000", "160904.876000", "160904.879000", "160904.881000", "160904.884000", "160945.299000", "160945.302000", "160945.305000", "160945.307000", "160945.310000", "160945.312000", "160945.315000", "160945.318000", "160945.320000", "160945.323000", "160945.325000", "160945.328000", "160945.330000", "160945.333000", "160945.335000", "160945.338000", "160945.341000", "160945.343000", "160945.346000", "160945.348000", "160945.351000", "160945.353000", "160945.357000", "160945.360000", "160945.362000", "160945.365000", "160945.368000", "161024.850000", "161024.853000", "161024.856000", "161024.858000", "161024.861000", "161024.864000", "161024.866000", "161024.869000", "161024.871000", "161024.874000", "161024.877000", "161024.879000", "161024.882000", "161024.884000", "161024.887000", "161024.889000", "161024.892000", "161024.895000", "161024.897000", "161024.900000", "161024.902000", "161024.905000", "161024.907000", "161024.910000", "161024.912000", "161024.915000", "161024.918000", "161104.824000", "161104.827000", "161104.829000", "161104.832000", "161104.834000", "161104.837000", "161104.839000", "161104.842000", "161104.845000", "161104.847000", "161104.850000", "161104.852000", "161104.855000", "161104.857000", "161104.860000", "161104.862000", "161104.865000", "161104.868000", "161104.870000", "161104.873000", "161104.875000", "161104.878000", "161104.880000", "161104.883000", "161104.885000", "161104.888000", "161104.890000", "161144.820000", "161144.823000", "161144.825000", "161144.828000", "161144.831000", "161144.833000", "161144.836000", "161144.838000", "161144.841000", "161144.843000", "161144.846000", "161144.848000", "161144.851000", "161144.854000", "161144.856000", "161144.859000", "161144.861000", "161144.864000", "161144.866000", "161144.869000", "161144.884000", "161144.887000", "161144.890000", "161144.892000", "161144.895000", "161144.897000", "161224.839000", "161224.842000", "161224.844000", "161224.847000", "161224.850000", "161224.852000", "161224.855000", "161224.857000", "161224.860000", "161224.862000", "161224.865000", "161224.867000", "161224.870000", "161224.872000", "161224.875000", "161224.878000", "161224.880000", "161224.883000", "161224.885000", "161224.888000", "161224.890000", "161224.893000", "161224.895000", "161224.898000", "161224.900000", "161224.903000", "161224.906000", "161304.829000", "161304.832000", "161304.835000", "161304.837000", "161304.840000", "161304.843000", "161304.845000", "161304.848000", "161304.850000", "161304.853000", "161304.855000", "161304.858000", "161304.860000", "161304.863000", "161304.866000", "161304.868000", "161304.871000", "161304.874000", "161304.876000", "161304.879000", "161304.881000", "161304.884000", "161304.887000", "161304.889000", "161304.892000", "161304.894000", "161304.897000", "161344.838000", "161344.840000", "161344.843000", "161344.846000", "161344.848000", "161344.851000", "161344.853000", "161344.856000", "161344.858000", "161344.861000", "161344.863000", "161344.866000", "161344.868000", "161344.871000", "161344.874000", "161344.876000", "161344.879000", "161344.881000", "161344.884000", "161344.886000", "161344.889000", "161344.891000", "161344.894000", "161344.896000", "161344.899000", "161344.902000", "161344.904000", "161424.835000", "161424.838000", "161424.840000", "161424.843000", "161424.845000", "161424.848000", "161424.851000", "161424.853000", "161424.856000", "161424.858000", "161424.861000", "161424.863000", "161424.866000", "161424.869000", "161424.871000", "161424.874000", "161424.876000", "161424.879000", "161424.881000", "161424.884000", "161424.887000", "161424.889000", "161424.892000", "161424.894000", "161424.897000", "161424.899000", "161424.902000", "161504.831000", "161504.834000", "161504.837000", "161504.839000", "161504.842000", "161504.845000", "161504.847000", "161504.850000", "161504.852000", "161504.855000", "161504.857000", "161504.860000", "161504.862000", "161504.865000", "161504.867000", "161504.870000", "161504.873000", "161504.875000", "161504.878000", "161504.880000", "161504.883000", "161504.885000", "161504.888000", "161504.891000", "161504.893000", "161504.896000", "161504.898000", "161542.934000", "161542.937000", "161542.940000", "161542.942000", "161542.945000", "161542.948000", "161542.950000", "161542.953000", "161542.955000", "161542.958000", "161542.960000", "161542.963000", "161542.966000", "161542.968000", "161542.971000", "161542.973000", "161542.976000", "161542.978000", "161542.981000", "161542.984000", "161542.986000", "161542.989000", "161542.991000", "161542.994000", "161542.996000"],
