{
  "AcquisitionMatrixPE": 104,
  "AcquisitionNumber": 1,
  "AcquisitionTime": "16:17:15.835000",
  "BandwidthPerPixelPhaseEncode": 17.17,
  "BaseResolution": 104,
  "BodyPartExamined": "BRAIN",
  "CoilString": "HC1-7;NC1_2",
  "ConsistencyInfo": "N4_VE11C_LATEST_20160120",
  "ConversionSoftware": "dcm2niix",
  "ConversionSoftwareVersion": "v1.0.20190902",
  "DerivedVendorReportedEchoSpacing": 0.000560011,
  "DeviceSerialNumber": "167006",
  "DwellTime": 2.1e-06,
  "EchoTime": 0.037,
  "EchoTrainLength": 104,
  "EffectiveEchoSpacing": 0.000560011,
  "FlipAngle": 52,
  "HeudiconvVersion": "0.10.0",
  "ImageComments": "Unaliased_MB4_PE3_LB",
  "ImageOrientationPatientDICOM": [0.999754, -0.0216468, 0.00482315, 0.0219893, 0.939255, -0.342516],
  "ImageType": [
    "ORIGINAL",
    "PRIMARY",
    "M",
    "MB",
    "ND",
    "MOSAIC"
],
  "ImagingFrequency": 123.259,
  "InPlanePhaseEncodingDirectionDICOM": "COL",
  "InstitutionAddress": "Chemin_Queen-Mary_4565_Montreal_District_CA_H3W_1W5",
  "InstitutionName": "IUGM",
  "InstitutionalDepartmentName": "Department",
  "MRAcquisitionType": "2D",
  "MagneticFieldStrength": 3,
  "Manufacturer": "Siemens",
  "ManufacturersModelName": "Prisma_fit",
  "Modality": "MR",
  "MultibandAccelerationFactor": 4,
  "PartialFourier": 1,
  "PatientPosition": "HFS",
  "PercentPhaseFOV": 100,
  "PhaseEncodingDirection": "j",
  "PhaseEncodingSteps": 104,
  "PhaseResolution": 1,
  "PixelBandwidth": 2290,
  "ProcedureStepDescription": "games_mario",
  "ProtocolName": "func_task-mario_run-03",
  "PulseSequenceDetails": "%CustomerSeq%_cmrr_mbep2d_bold",
  "ReceiveCoilActiveElements": "HC1-7;NC1,2",
  "ReceiveCoilName": "HeadNeck_64",
  "ReconMatrixPE": 104,
  "RepetitionTime": 1.49,
  "SAR": 0.0453045,
  "ScanOptions": "FS",
  "ScanningSequence": "EP",
  "SequenceName": "epfid2d1_104",
  "SequenceVariant": "SK_SS",
  "SeriesDescription": "func_task-mario_run-03",
  "SeriesNumber": 16,
  "ShimSetting": [627, -7253, -8824, 580, 17, -196, -75, -12],
  "SliceThickness": 2,
  "SliceTiming": [0, 0.7825, 0.0975, 0.88, 0.195, 0.98, 0.2925, 1.0775, 0.39, 1.175, 0.49, 1.2725, 0.5875, 1.37, 0.685, 0, 0.7825, 0.0975, 0.88, 0.195, 0.98, 0.2925, 1.0775, 0.39, 1.175, 0.49, 1.2725, 0.5875, 1.37, 0.685, 0, 0.7825, 0.0975, 0.88, 0.195, 0.98, 0.2925, 1.0775, 0.39, 1.175, 0.49, 1.2725, 0.5875, 1.37, 0.685, 0, 0.7825, 0.0975, 0.88, 0.195, 0.98, 0.2925, 1.0775, 0.39, 1.175, 0.49, 1.2725, 0.5875, 1.37, 0.685],
  "SoftwareVersions": "syngo_MR_E11",
  "SpacingBetweenSlices": 2,
  "StationName": "MRC35049",
  "TaskName": "mario",
  "TotalReadoutTime": 0.0576811,
  "TxRefAmp": 242.856,
  "WipMemBlock": "122cab15-766f-4e5a-9f1e-12520cdf7025||Sequence: R016 ve11c/master r/e634e98; Dec 19 2017 11:00:25 by eja",
  "dcmmeta_affine": [
    [-1.9995081424713135, 0.04397851601243019, -0.005768405739217997, 104.25056457519531],
    [0.04329356923699379, 1.8785094022750854, -0.6850754022598267, -66.92291259765625],
    [0.009646297432482243, 0.6850317716598511, 1.8789993524551392, -63.841365814208984],
    [0.0, 0.0, 0.0, 1.0]
],
  "dcmmeta_reorient_transform": [
    [0.0, -1.0, 0.0, 103.0],
    [1.0, 0.0, 0.0, 0.0],
    [0.0, 0.0, 1.0, 0.0],
    [0.0, 0.0, 0.0, 1.0]
],
  "dcmmeta_shape": [104, 104, 60, 448],
  "dcmmeta_slice_dim": 2,
  "dcmmeta_version": 0.6,
  "global": {
    "const": {
      "AcquisitionMatrix": [104, 0, 0, 104],
      "AngioFlag": "N",
      "BitsAllocated": 16,
      "BitsStored": 16,
      "BodyPartExamined": "BRAIN",
      "Columns": 832,
      "EchoNumbers": 1,
      "EchoTime": 37.0,
      "EchoTrainLength": 104,
      "FlipAngle": 52.0,
      "HighBit": 15,
      "ImageOrientationPatient": [0.99975404671812, -0.0216467851854, 0.0048231485444, 0.02198925749045, 0.93925467598691, -0.3425158772842],
      "ImagePositionPatient": [-852.60947707707, -794.58209699502, 252.55721310444],
      "ImageType": [
        "ORIGINAL",
        "PRIMARY",
        "M",
        "MB",
        "ND",
        "MOSAIC"
],
      "ImagedNucleus": "1H",
      "ImagingFrequency": 123.258881,
      "InPlanePhaseEncodingDirection": "COL",
      "MRAcquisitionType": "2D",
      "MagneticFieldStrength": 3.0,
      "Manufacturer": "SIEMENS",
      "ManufacturerModelName": "Prisma_fit",
      "Modality": "MR",
      "NumberOfAverages": 1.0,
      "NumberOfPhaseEncodingSteps": 104,
      "PercentPhaseFieldOfView": 100.0,
      "PercentSampling": 100.0,
      "PerformedProcedureStepStartTime": "151002.367000",
      "PhotometricInterpretation": "MONOCHROME2",
      "PixelBandwidth": 2290.0,
      "PixelRepresentation": 0,
      "PixelSpacing": [2.0, 2.0],
      "ProtocolName": "func_task-mario_run-03",
      "RepetitionTime": 1490.0,
      "Rows": 832,
      "SAR": 0.04530451043177,
      "SamplesPerPixel": 1,
      "ScanOptions": "FS",
      "ScanningSequence": "EP",
      "SequenceName": "epfid2d1_104",
      "SequenceVariant": [
        "SK",
        "SS"
],
      "SeriesDescription": "func_task-mario_run-03",
      "SeriesNumber": 16,
      "SeriesTime": "161838.656000",
      "SliceLocation": -37.356000285448,
      "SliceThickness": 2.0,
      "SmallestImagePixelValue": 0,
      "SoftwareVersions": "syngo MR E11",
      "SpacingBetweenSlices": 2.000000034014,
      "SpecificCharacterSet": "ISO_IR 100",
      "StudyID": "1",
      "StudyTime": "151002.312000",
      "TransmitCoilName": "Body",
      "VariableFlipAngleFlag": "N",
      "WindowCenterWidthExplanation": "Algo1",
      "dBdt": 0.0},
    "slices": {}
  },
  "time": {
    "samples": {
      "AcquisitionNumber": [1, 2, 3, 4, 5, 6, 7, 8, 9, 10, 11, 12, 13, 14, 15, 16, 17, 18, 19, 20, 21, 22, 23, 24, 25, 26, 27, 28, 29, 30, 31, 32, 33, 34, 35, 36, 37, 38, 39, 40, 41, 42, 43, 44, 45, 46, 47, 48, 49, 50, 51, 52, 53, 54, 55, 56, 57, 58, 59, 60, 61, 62, 63, 64, 65, 66, 67, 68, 69, 70, 71, 72, 73, 74, 75, 76, 77, 78, 79, 80, 81, 82, 83, 84, 85, 86, 87, 88, 89, 90, 91, 92, 93, 94, 95, 96, 97, 98, 99, 100, 101, 102, 103, 104, 105, 106, 107, 108, 109, 110, 111, 112, 113, 114, 115, 116, 117, 118, 119, 120, 121, 122, 123, 124, 125, 126, 127, 128, 129, 130, 131, 132, 133, 134, 135, 136, 137, 138, 139, 140, 141, 142, 143, 144, 145, 146, 147, 148, 149, 150, 151, 152, 153, 154, 155, 156, 157, 158, 159, 160, 161, 162, 163, 164, 165, 166, 167, 168, 169, 170, 171, 172, 173, 174, 175, 176, 177, 178, 179, 180, 181, 182, 183, 184, 185, 186, 187, 188, 189, 190, 191, 192, 193, 194, 195, 196, 197, 198, 199, 200, 201, 202, 203, 204, 205, 206, 207, 208, 209, 210, 211, 212, 213, 214, 215, 216, 217, 218, 219, 220, 221, 222, 223, 224, 225, 226, 227, 228, 229, 230, 231, 232, 233, 234, 235, 236, 237, 238, 239, 240, 241, 242, 243, 244, 245, 246, 247, 248, 249, 250, 251, 252, 253, 254, 255, 256, 257, 258, 259, 260, 261, 262, 263, 264, 265, 266, 267, 268, 269, 270, 271, 272, 273, 274, 275, 276, 277, 278, 279, 280, 281, 282, 283, 284, 285, 286, 287, 288, 289, 290, 291, 292, 293, 294, 295, 296, 297, 298, 299, 300, 301, 302, 303, 304, 305, 306, 307, 308, 309, 310, 311, 312, 313, 314, 315, 316, 317, 318, 319, 320, 321, 322, 323, 324, 325, 326, 327, 328, 329, 330, 331, 332, 333, 334, 335, 336, 337, 338, 339, 340, 341, 342, 343, 344, 345, 346, 347, 348, 349, 350, 351, 352, 353, 354, 355, 356, 357, 358, 359, 360, 361, 362, 363, 364, 365, 366, 367, 368, 369, 370, 371, 372, 373, 374, 375, 376, 377, 378, 379, 380, 381, 382, 383, 384, 385, 386, 387, 388, 389, 390, 391, 392, 393, 394, 395, 396, 397, 398, 399, 400, 401, 402, 403, 404, 405, 406, 407, 408, 409, 410, 411, 412, 413, 414, 415, 416, 417, 418, 419, 420, 421, 422, 423, 424, 425, 426, 427, 428, 429, 430, 431, 432, 433, 434, 435, 436, 437, 438, 439, 440, 441, 442, 443, 444, 445, 446, 447, 448],
      "AcquisitionTime": ["161715.835000", "161717.325000", "161718.815000", "161720.305000", "161721.795000", "161723.285000", "161724.775000", "161726.265000", "161727.755000", "161729.245000", "161730.735000", "161732.225000", "161733.715000", "161735.205000", "161736.695000", "161738.185000", "161739.675000", "161741.165000", "161742.655000", "161744.145000", "161745.635000", "161747.125000", "161748.615000", "161750.105000", "161751.595000", "161753.085000", "161754.575000", "161756.065000", "161757.555000", "161759.045000", "161800.535000", "161802.025000", "161803.515000", "161805.005000", "161806.495000", "161807.985000", "161809.475000", "161810.965000", "161812.455000", "161813.945000", "161815.435000", "161816.925000", "161818.415000", "161819.905000", "161821.395000", "161822.885000", "161824.375000", "161825.865000", "161827.355000", "161828.845000", "161830.335000", "161831.825000", "161833.315000", "161834.805000", "161836.295000", "161837.785000", "161839.275000", "161840.765000", "161842.255000", "161843.745000", "161845.235000", "161846.725000", "161848.215000", "161849.705000", "161851.195000", "161852.685000", "161854.175000", "161855.665000", "161857.155000", "161858.645000", "161900.135000", "161901.625000", "161903.115000", "161904.605000", "161906.095000", "161907.585000", "161909.075000", "161910.565000", "161912.055000", "161913.545000", "161915.035000", "161916.525000", "161918.015000", "161919.505000", "161920.995000", "161922.485000", "161923.975000", "161925.465000", "161926.955000", "161928.445000", "161929.935000", "161931.425000", "161932.915000", "161934.405000", "161935.895000", "161937.385000", "161938.875000", "161940.365000", "161941.855000", "161943.345000", "161944.835000", "161946.325000", "161947.815000", "161949.305000", "161950.795000", "161952.285000", "161953.775000", "161955.265000", "161956.755000", "161958.245000", "161959.735000", "162001.225000", "162002.715000", "162004.205000", "162005.695000", "162007.185000", "162008.675000", "162010.165000", "162011.655000", "162013.145000", "162014.635000", "162016.125000", "162017.615000", "162019.105000", "162020.595000", "162022.085000", "162023.575000", "162025.065000", "162026.555000", "162028.045000", "162029.535000", "162031.025000", "162032.515000", "162034.005000", "162035.495000", "162036.985000", "162038.475000", "162039.965000", "162041.455000", "162042.945000", "162044.435000", "162045.925000", "162047.415000", "162048.905000", "162050.395000", "162051.885000", "162053.375000", "162054.865000", "162056.355000", "162057.845000", "162059.335000", "162100.825000", "162102.315000", "162103.805000", "162105.295000", "162106.785000", "162108.275000", "162109.765000", "162111.255000", "162112.745000", "162114.235000", "162115.725000", "162117.215000", "162118.705000", "162120.195000", "162121.685000", "162123.175000", "162124.665000", "162126.155000", "162127.645000", "162129.135000", "162130.625000", "162132.115000", "162133.605000", "162135.095000", "162136.585000", "162138.075000", "162139.565000", "162141.055000", "162142.545000", "162144.035000", "162145.525000", "162147.015000", "162148.505000", "162149.995000", "162151.485000", "162152.975000", "162154.465000", "162155.955000", "162157.445000", "162158.935000", "162200.425000", "162201.915000", "162203.405000", "162204.895000", "162206.385000", "162207.875000", "162209.365000", "162210.855000", "162212.345000", "162213.835000", "162215.325000", "162216.815000", "162218.305000", "162219.795000", "162221.285000", "162222.775000", "162224.265000", "162225.755000", "162227.245000", "162228.735000", "162230.225000", "162231.715000", "162233.205000", "162234.695000", "162236.185000", "162237.675000", "162239.165000", "162240.655000", "162242.145000", "162243.635000", "162245.125000", "162246.615000", "162248.105000", "162249.595000", "162251.085000", "162252.575000", "162254.065000", "162255.555000", "162257.045000", "162258.535000", "162300.025000", "162301.515000", "162303.005000", "162304.495000", "162305.985000", "162307.475000", "162308.965000", "162310.455000", "162311.945000", "162313.435000", "162314.925000", "162316.415000", "162317.905000", "162319.395000", "162320.885000", "162322.375000", "162323.865000", "162325.355000", "162326.845000", "162328.335000", "162329.825000", "162331.315000", "162332.805000", "162334.295000", "162335.785000", "162337.275000", "162338.765000", "162340.255000", "162341.745000", "162343.235000", "162344.725000", "162346.215000", "162347.705000", "162349.195000", "162350.685000", "162352.175000", "162353.665000", "162355.155000", "162356.645000", "162358.135000", "162359.625000", "162401.115000", "162402.605000", "162404.095000", "162405.585000", "162407.075000", "162408.565000", "162410.055000", "162411.545000", "162413.035000", "162414.525000", "162416.015000", "162417.505000", "162418.995000", "162420.485000", "162421.975000", "162423.465000", "162424.955000", "162426.445000", "162427.935000", "162429.425000", "162430.915000", "162432.405000", "162433.895000", "162435.385000", "162436.875000", "162438.365000", "162439.855000", "162441.345000", "162442.835000", "162444.325000", "162445.815000", "162447.305000", "162448.795000", "162450.285000", "162451.775000", "162453.265000", "162454.755000", "162456.245000", "162457.735000", "162459.225000", "162500.715000", "162502.205000", "162503.695000", "162505.185000", "162506.675000", "162508.165000", "162509.655000", "162511.145000", "162512.635000", "162514.125000", "162515.615000", "162517.105000", "162518.595000", "162520.085000", "162521.575000", "162523.065000", "162524.555000", "162526.045000", "162527.535000", "162529.025000", "162530.515000", "162532.005000", "162533.495000", "162534.985000", "162536.475000", "162537.965000", "162539.455000", "162540.945000", "162542.435000", "162543.925000", "162545.415000", "162546.905000", "162548.395000", "162549.885000", "162551.375000", "162552.865000", "162554.355000", "162555.845000", "162557.335000", "162558.825000", "162600.315000", "162601.805000", "162603.295000", "162604.785000", "162606.275000", "162607.765000", "162609.255000", "162610.745000", "162612.235000", "162613.725000", "162615.215000", "162616.705000", "162618.195000", "162619.685000", "162621.175000", "162622.665000", "162624.155000", "162625.645000", "162627.135000", "162628.625000", "162630.115000", "162631.605000", "162633.095000", "162634.585000", "162636.075000", "162637.565000", "162639.055000", "162640.545000", "162642.035000", "162643.525000", "162645.015000", "162646.505000", "162647.995000", "162649.485000", "162650.975000", "162652.465000", "162653.955000", "162655.445000", "162656.935000", "162658.425000", "162659.915000", "162701.405000", "162702.895000", "162704.385000", "162705.875000", "162707.365000", "162708.855000", "162710.345000", "162711.835000", "162713.325000", "162714.815000", "162716.305000", "162717.795000", "162719.285000", "162720.775000", "162722.265000", "162723.755000", "162725.245000", "162726.735000", "162728.225000", "162729.715000", "162731.205000", "162732.695000", "162734.185000", "162735.675000", "162737.165000", "162738.655000", "162740.145000", "162741.635000", "162743.125000", "162744.615000", "162746.105000", "162747.595000", "162749.085000", "162750.575000", "162752.065000", "162753.555000", "162755.045000", "162756.535000", "162758.025000", "162759.515000", "162801.005000", "162802.495000", "162803.985000", "162805.475000", "162806.965000", "162808.455000", "162809.945000", "162811.435000", "162812.925000", "162814.415000", "162815.905000", "162817.395000", "162818.885000", "162820.375000", "162821.865000"],
      "ContentTime": ["161838.660000", "161838.663000", "161838.667000", "161838.670000", "161838.674000", "161838.677000", "161838.681000", "161838.684000", "161838.687000", "161838.691000", "161838.694000", "161838.697000", "161838.701000", "161838.721000", "161838.724000", "161838.728000", "161838.731000", "161838.750000", "161838.753000", "161838.757000", "161838.760000", "161838.764000", "161838.767000", "161838.771000", "161838.774000", "161838.777000", "161838.781000", "161858.623000", "161858.627000", "161858.630000", "161858.634000", "161858.637000", "161858.640000", "161858.644000", "161858.647000", "161858.651000", "161858.654000", "161858.658000", "161858.661000", "161858.664000", "161858.668000", "161858.671000", "161858.675000", "161858.678000", "161858.681000", "161858.685000", "161858.688000", "161918.623000", "161918.627000", "161918.630000", "161918.634000", "161918.637000", "161918.641000", "161918.644000", "161918.647000", "161918.651000", "161918.655000", "161918.658000", "161918.662000", "161918.665000", "161918.669000", "161918.673000", "161918.677000", "161918.680000", "161918.683000", "161918.687000", "161918.691000", "161938.624000", "161938.628000", "161938.631000", "161938.635000", "161938.638000", "161938.642000", "161938.645000", "161938.649000", "161938.652000", "161938.656000", "161938.659000", "161938.662000", "161938.666000", "161938.669000", "161938.673000", "161938.676000", "161938.679000", "161938.683000", "161938.686000", "161938.690000", "161938.693000", "161958.624000", "161958.628000", "161958.631000", "161958.635000", "161958.638000", "161958.642000", "161958.645000", "161958.648000", "161958.652000", "161958.655000", "161958.659000", "161958.662000", "161958.666000", "161958.669000", "161958.673000", "161958.676000", "161958.683000", "161958.686000", "161958.690000", "161958.693000", "162038.624000", "162038.628000", "162038.631000", "162038.635000", "162038.638000", "162038.642000", "162038.645000", "162038.655000", "162038.658000", "162038.662000", "162038.665000", "162038.668000", "162038.685000", "162038.689000", "162038.692000", "162038.696000", "162038.699000", "162038.703000", "162038.706000", "162038.709000", "162038.713000", "162038.717000", "162038.720000", "162038.724000", "162038.727000", "162038.730000", "162038.734000", "162118.623000", "162118.627000", "162118.631000", "162118.634000", "162118.637000", "162118.641000", "162118.644000", "162118.648000", "162118.651000", "162118.655000", "162118.658000", "162118.661000", "162118.665000", "162118.668000", "162118.672000", "162118.675000", "162118.679000", "162118.682000", "162118.685000", "162118.689000", "162118.692000", "162118.696000", "162118.699000", "162118.702000", "162118.706000", "162118.709000", "162118.713000", "162158.624000", "162158.628000", "162158.632000", "162158.635000", "162158.639000", "162158.642000", "162158.645000", "162158.649000", "162158.652000", "162158.656000", "162158.659000", "162158.663000", "162158.666000", "162158.670000", "162158.673000", "162158.677000", "162158.680000", "162158.683000", "162158.687000", "162158.690000", "162158.694000", "162158.697000", "162158.701000", "162158.704000", "162158.708000", "162158.711000", "162158.714000", "162238.624000", "162238.628000", "162238.631000", "162238.635000", "162238.638000", "162238.642000", "162238.645000", "162238.649000", "162238.652000", "162238.655000", "162238.659000", "162238.662000", "162238.666000", "162238.669000", "162238.673000", "162238.676000", "162238.680000", "162238.683000", "162238.686000", "162238.690000", "162238.694000", "162238.697000", "162238.700000", "162238.704000", "162238.707000", "162238.711000", "162238.714000", "162318.623000", "162318.627000", "162318.631000", "162318.635000", "162318.638000", "162318.641000", "162318.645000", "162318.648000", "162318.652000", "162318.655000", "162318.658000", "162318.662000", "162318.665000", "162318.669000", "162318.672000", "162318.676000", "162318.679000", "162318.683000", "162318.686000", "162318.690000", "162318.693000", "162318.697000", "162318.700000", "162318.704000", "162318.708000", "162318.711000", "162358.623000", "162358.627000", "162358.631000", "162358.634000", "162358.638000", "162358.641000", "162358.644000", "162358.648000", "162358.651000", "162358.655000", "162358.659000", "162358.662000", "162358.666000", "162358.669000", "162358.673000", "162358.676000", "162358.680000", "162358.683000", "162358.686000", "162358.690000", "162358.693000", "162358.697000", "162358.700000", "162358.704000", "162358.707000", "162358.711000", "162358.714000", "162438.625000", "162438.628000", "162438.632000", "162438.635000", "162438.639000", "162438.642000", "162438.646000", "162438.649000", "162438.652000", "162438.656000", "162438.659000", "162438.663000", "162438.666000", "162438.670000", "162438.673000", "162438.676000", "162438.680000", "162438.683000", "162438.687000", "162438.690000", "162438.694000", "162438.697000", "162438.701000", "162438.704000", "162438.708000", "162438.711000", "162438.714000", "162518.624000", "162518.628000", "162518.632000", "162518.635000", "162518.639000", "162518.642000", "162518.645000", "162518.649000", "162518.652000", "162518.656000", "162518.659000", "162518.663000", "162518.666000", "162518.670000", "162518.673000", "162518.677000", "162518.680000", "162518.683000", "162518.687000", "162518.700000", "162518.703000", "162518.707000", "162518.710000", "162518.713000", "162518.717000", "162518.720000", "162518.724000", "162558.624000", "162558.627000", "162558.631000", "162558.634000", "162558.638000", "162558.641000", "162558.645000", "162558.648000", "162558.651000", "162558.655000", "162558.658000", "162558.662000", "162558.665000", "162558.669000", "162558.672000", "162558.676000", "162558.679000", "162558.682000", "162558.686000", "162558.689000", "162558.693000", "162558.696000", "162558.700000", "162558.704000", "162558.708000", "162558.711000", "162558.715000", "162638.624000", "162638.628000", "162638.632000", "162638.635000", "162638.639000", "162638.642000", "162638.646000", "162638.649000", "162638.653000", "162638.656000", "162638.659000", "162638.663000", "162638.666000", "162638.670000", "162638.673000", "162638.677000", "162638.680000", "162638.684000", "162638.687000", "162638.691000", "162638.694000", "162638.697000", "162638.701000", "162638.704000", "162638.708000", "162638.711000", "162638.715000", "162718.624000", "162718.628000", "162718.632000", "162718.635000", "162718.639000", "162718.642000", "162718.645000", "162718.649000", "162718.652000", "162718.656000", "162718.659000", "162718.663000", "162718.666000", "162718.670000", "162718.673000", "162718.676000", "162718.680000", "162718.683000", "162718.687000", "162718.690000", "162718.694000", "162718.697000", "162718.700000", "162718.704000", "162718.707000", "162718.711000", "162718.714000", "162758.623000", "162758.627000", "162758.631000", "162758.634000", "162758.638000", "162758.641000", "162758.645000", "162758.648000", "162758.652000", "162758.655000", "162758.659000", "162758.662000", "162758.665000", "162758.669000", "162758.672000", "162758.676000", "162758.679000", "162758.683000", "162758.686000", "162758.691000", "162758.694000", "162758.698000", "162758.701000", "162758.705000", "162758.708000", "162758.712000", "162825.161000", "162825.171000", "162825.175000", "162825.179000", "162825.182000", "162825.186000", "162825.194000", "162825.197000", "162825.201000", "162825.204000", "162825.208000", "162825.211000", "162825.215000", "162825.218000", "162825.221000", "162825.225000", "162825.228000", "162825.232000"],
