{
  "AcquisitionMatrixPE": 104,
  "AcquisitionNumber": 1,
  "AcquisitionTime": "16:42:24.680000",
  "BandwidthPerPixelPhaseEncode": 17.17,
  "BaseResolution": 104,
  "BodyPartExamined": "BRAIN",
  "CoilString": "HC1-7;NC1_2",
  "ConsistencyInfo": "N4_VE11C_LATEST_20160120",
  "ConversionSoftware": "dcm2niix",
  "ConversionSoftwareVersion": "v1.0.20190902",
  "DerivedVendorReportedEchoSpacing": 0.000560011,
  "DeviceSerialNumber": "167006",
  "DwellTime": 2.1e-06,
  "EchoTime": 0.037,
  "EchoTrainLength": 104,
  "EffectiveEchoSpacing": 0.000560011,
  "FlipAngle": 52,
  "HeudiconvVersion": "0.10.0",
  "ImageComments": "Unaliased_MB4_PE3_LB",
  "ImageOrientationPatientDICOM": [0.999754, -0.0216468, 0.00482315, 0.0219893, 0.939255, -0.342516],
  "ImageType": [
    "ORIGINAL",
    "PRIMARY",
    "M",
    "MB",
    "ND",
    "MOSAIC"
],
  "ImagingFrequency": 123.259,
  "InPlanePhaseEncodingDirectionDICOM": "COL",
  "InstitutionAddress": "Chemin_Queen-Mary_4565_Montreal_District_CA_H3W_1W5",
  "InstitutionName": "IUGM",
  "InstitutionalDepartmentName": "Department",
  "MRAcquisitionType": "2D",
  "MagneticFieldStrength": 3,
  "Manufacturer": "Siemens",
  "ManufacturersModelName": "Prisma_fit",
  "Modality": "MR",
  "MultibandAccelerationFactor": 4,
  "PartialFourier": 1,
  "PatientPosition": "HFS",
  "PercentPhaseFOV": 100,
  "PhaseEncodingDirection": "j",
  "PhaseEncodingSteps": 104,
  "PhaseResolution": 1,
  "PixelBandwidth": 2290,
  "ProcedureStepDescription": "games_mario",
  "ProtocolName": "func_task-mario_run-05",
  "PulseSequenceDetails": "%CustomerSeq%_cmrr_mbep2d_bold",
  "ReceiveCoilActiveElements": "HC1-7;NC1,2",
  "ReceiveCoilName": "HeadNeck_64",
  "ReconMatrixPE": 104,
  "RepetitionTime": 1.49,
  "SAR": 0.0453045,
  "ScanOptions": "FS",
  "ScanningSequence": "EP",
  "SequenceName": "epfid2d1_104",
  "SequenceVariant": "SK_SS",
  "SeriesDescription": "func_task-mario_run-05",
  "SeriesNumber": 22,
  "ShimSetting": [627, -7253, -8824, 580, 17, -196, -75, -12],
  "SliceThickness": 2,
  "SliceTiming": [0, 0.785, 0.0975, 0.8825, 0.195, 0.98, 0.295, 1.0775, 0.3925, 1.175, 0.49, 1.275, 0.5875, 1.3725, 0.685, 0, 0.785, 0.0975, 0.8825, 0.195, 0.98, 0.295, 1.0775, 0.3925, 1.175, 0.49, 1.275, 0.5875, 1.3725, 0.685, 0, 0.785, 0.0975, 0.8825, 0.195, 0.98, 0.295, 1.0775, 0.3925, 1.175, 0.49, 1.275, 0.5875, 1.3725, 0.685, 0, 0.785, 0.0975, 0.8825, 0.195, 0.98, 0.295, 1.0775, 0.3925, 1.175, 0.49, 1.275, 0.5875, 1.3725, 0.685],
  "SoftwareVersions": "syngo_MR_E11",
  "SpacingBetweenSlices": 2,
  "StationName": "MRC35049",
  "TaskName": "mario",
  "TotalReadoutTime": 0.0576811,
  "TxRefAmp": 242.856,
  "WipMemBlock": "2d77e76c-e2ca-4e78-8abd-0759c9a11c71||Sequence: R016 ve11c/master r/e634e98; Dec 19 2017 11:00:25 by eja",
  "dcmmeta_affine": [
    [-1.9995081424713135, 0.04397851601243019, -0.005768405739217997, 104.25056457519531],
    [0.04329356923699379, 1.8785094022750854, -0.6850754022598267, -66.92291259765625],
    [0.009646297432482243, 0.6850317716598511, 1.8789993524551392, -63.841365814208984],
    [0.0, 0.0, 0.0, 1.0]
],
  "dcmmeta_reorient_transform": [
    [0.0, -1.0, 0.0, 103.0],
    [1.0, 0.0, 0.0, 0.0],
    [0.0, 0.0, 1.0, 0.0],
    [0.0, 0.0, 0.0, 1.0]
],
  "dcmmeta_shape": [104, 104, 60, 467],
  "dcmmeta_slice_dim": 2,
  "dcmmeta_version": 0.6,
  "global": {
    "const": {
      "AcquisitionMatrix": [104, 0, 0, 104],
      "AngioFlag": "N",
      "BitsAllocated": 16,
      "BitsStored": 16,
      "BodyPartExamined": "BRAIN",
      "Columns": 832,
      "EchoNumbers": 1,
      "EchoTime": 37.0,
      "EchoTrainLength": 104,
      "FlipAngle": 52.0,
      "HighBit": 15,
      "ImageOrientationPatient": [0.99975404671812, -0.0216467851854, 0.0048231485444, 0.02198925749045, 0.93925467598691, -0.3425158772842],
      "ImagePositionPatient": [-852.60947707707, -794.58209699502, 252.55721310444],
      "ImageType": [
        "ORIGINAL",
        "PRIMARY",
        "M",
        "MB",
        "ND",
        "MOSAIC"
],
      "ImagedNucleus": "1H",
      "ImagingFrequency": 123.25889,
      "InPlanePhaseEncodingDirection": "COL",
      "MRAcquisitionType": "2D",
      "MagneticFieldStrength": 3.0,
      "Manufacturer": "SIEMENS",
      "ManufacturerModelName": "Prisma_fit",
      "Modality": "MR",
      "NumberOfAverages": 1.0,
      "NumberOfPhaseEncodingSteps": 104,
      "PercentPhaseFieldOfView": 100.0,
      "PercentSampling": 100.0,
      "PerformedProcedureStepStartTime": "151002.367000",
      "PhotometricInterpretation": "MONOCHROME2",
      "PixelBandwidth": 2290.0,
      "PixelRepresentation": 0,
      "PixelSpacing": [2.0, 2.0],
      "ProtocolName": "func_task-mario_run-05",
      "RepetitionTime": 1490.0,
      "Rows": 832,
      "SAR": 0.04530451043177,
      "SamplesPerPixel": 1,
      "ScanOptions": "FS",
      "ScanningSequence": "EP",
      "SequenceName": "epfid2d1_104",
      "SequenceVariant": [
        "SK",
        "SS"
],
      "SeriesDescription": "func_task-mario_run-05",
      "SeriesNumber": 22,
      "SeriesTime": "164344.732000",
      "SliceLocation": -37.356000285448,
      "SliceThickness": 2.0,
      "SmallestImagePixelValue": 0,
      "SoftwareVersions": "syngo MR E11",
      "SpacingBetweenSlices": 2.000000034014,
      "SpecificCharacterSet": "ISO_IR 100",
      "StudyID": "1",
      "StudyTime": "151002.312000",
      "TransmitCoilName": "Body",
      "VariableFlipAngleFlag": "N",
      "WindowCenterWidthExplanation": "Algo1",
      "dBdt": 0.0},
    "slices": {}
  },
  "time": {
    "samples": {
      "AcquisitionNumber": [1, 2, 3, 4, 5, 6, 7, 8, 9, 10, 11, 12, 13, 14, 15, 16, 17, 18, 19, 20, 21, 22, 23, 24, 25, 26, 27, 28, 29, 30, 31, 32, 33, 34, 35, 36, 37, 38, 39, 40, 41, 42, 43, 44, 45, 46, 47, 48, 49, 50, 51, 52, 53, 54, 55, 56, 57, 58, 59, 60, 61, 62, 63, 64, 65, 66, 67, 68, 69, 70, 71, 72, 73, 74, 75, 76, 77, 78, 79, 80, 81, 82, 83, 84, 85, 86, 87, 88, 89, 90, 91, 92, 93, 94, 95, 96, 97, 98, 99, 100, 101, 102, 103, 104, 105, 106, 107, 108, 109, 110, 111, 112, 113, 114, 115, 116, 117, 118, 119, 120, 121, 122, 123, 124, 125, 126, 127, 128, 129, 130, 131, 132, 133, 134, 135, 136, 137, 138, 139, 140, 141, 142, 143, 144, 145, 146, 147, 148, 149, 150, 151, 152, 153, 154, 155, 156, 157, 158, 159, 160, 161, 162, 163, 164, 165, 166, 167, 168, 169, 170, 171, 172, 173, 174, 175, 176, 177, 178, 179, 180, 181, 182, 183, 184, 185, 186, 187, 188, 189, 190, 191, 192, 193, 194, 195, 196, 197, 198, 199, 200, 201, 202, 203, 204, 205, 206, 207, 208, 209, 210, 211, 212, 213, 214, 215, 216, 217, 218, 219, 220, 221, 222, 223, 224, 225, 226, 227, 228, 229, 230, 231, 232, 233, 234, 235, 236, 237, 238, 239, 240, 241, 242, 243, 244, 245, 246, 247, 248, 249, 250, 251, 252, 253, 254, 255, 256, 257, 258, 259, 260, 261, 262, 263, 264, 265, 266, 267, 268, 269, 270, 271, 272, 273, 274, 275, 276, 277, 278, 279, 280, 281, 282, 283, 284, 285, 286, 287, 288, 289, 290, 291, 292, 293, 294, 295, 296, 297, 298, 299, 300, 301, 302, 303, 304, 305, 306, 307, 308, 309, 310, 311, 312, 313, 314, 315, 316, 317, 318, 319, 320, 321, 322, 323, 324, 325, 326, 327, 328, 329, 330, 331, 332, 333, 334, 335, 336, 337, 338, 339, 340, 341, 342, 343, 344, 345, 346, 347, 348, 349, 350, 351, 352, 353, 354, 355, 356, 357, 358, 359, 360, 361, 362, 363, 364, 365, 366, 367, 368, 369, 370, 371, 372, 373, 374, 375, 376, 377, 378, 379, 380, 381, 382, 383, 384, 385, 386, 387, 388, 389, 390, 391, 392, 393, 394, 395, 396, 397, 398, 399, 400, 401, 402, 403, 404, 405, 406, 407, 408, 409, 410, 411, 412, 413, 414, 415, 416, 417, 418, 419, 420, 421, 422, 423, 424, 425, 426, 427, 428, 429, 430, 431, 432, 433, 434, 435, 436, 437, 438, 439, 440, 441, 442, 443, 444, 445, 446, 447, 448, 449, 450, 451, 452, 453, 454, 455, 456, 457, 458, 459, 460, 461, 462, 463, 464, 465, 466, 467],
      "AcquisitionTime": ["164224.680000", "164226.170000", "164227.660000", "164229.150000", "164230.640000", "164232.130000", "164233.620000", "164235.110000", "164236.600000", "164238.090000", "164239.580000", "164241.070000", "164242.560000", "164244.050000", "164245.540000", "164247.030000", "164248.520000", "164250.010000", "164251.500000", "164252.990000", "164254.480000", "164255.970000", "164257.460000", "164258.950000", "164300.440000", "164301.930000", "164303.420000", "164304.910000", "164306.400000", "164307.890000", "164309.380000", "164310.870000", "164312.360000", "164313.850000", "164315.340000", "164316.830000", "164318.320000", "164319.810000", "164321.300000", "164322.790000", "164324.280000", "164325.770000", "164327.260000", "164328.750000", "164330.240000", "164331.730000", "164333.220000", "164334.710000", "164336.200000", "164337.690000", "164339.180000", "164340.670000", "164342.160000", "164343.650000", "164345.140000", "164346.630000", "164348.120000", "164349.610000", "164351.100000", "164352.590000", "164354.080000", "164355.570000", "164357.060000", "164358.550000", "164400.040000", "164401.530000", "164403.020000", "164404.510000", "164406.000000", "164407.490000", "164408.980000", "164410.470000", "164411.960000", "164413.450000", "164414.940000", "164416.430000", "164417.920000", "164419.410000", "164420.900000", "164422.390000", "164423.880000", "164425.370000", "164426.860000", "164428.350000", "164429.840000", "164431.330000", "164432.820000", "164434.310000", "164435.800000", "164437.290000", "164438.780000", "164440.270000", "164441.760000", "164443.250000", "164444.740000", "164446.230000", "164447.720000", "164449.210000", "164450.700000", "164452.190000", "164453.680000", "164455.170000", "164456.660000", "164458.150000", "164459.640000", "164501.130000", "164502.620000", "164504.110000", "164505.600000", "164507.090000", "164508.580000", "164510.070000", "164511.560000", "164513.050000", "164514.540000", "164516.030000", "164517.520000", "164519.010000", "164520.500000", "164521.990000", "164523.480000", "164524.970000", "164526.460000", "164527.950000", "164529.440000", "164530.930000", "164532.420000", "164533.910000", "164535.400000", "164536.890000", "164538.380000", "164539.870000", "164541.360000", "164542.850000", "164544.340000", "164545.830000", "164547.320000", "164548.810000", "164550.300000", "164551.790000", "164553.280000", "164554.770000", "164556.260000", "164557.750000", "164559.240000", "164600.730000", "164602.220000", "164603.710000", "164605.200000", "164606.690000", "164608.180000", "164609.670000", "164611.160000", "164612.650000", "164614.140000", "164615.630000", "164617.120000", "164618.610000", "164620.100000", "164621.590000", "164623.080000", "164624.570000", "164626.060000", "164627.550000", "164629.040000", "164630.530000", "164632.020000", "164633.510000", "164635.000000", "164636.490000", "164637.980000", "164639.470000", "164640.960000", "164642.450000", "164643.940000", "164645.430000", "164646.920000", "164648.410000", "164649.900000", "164651.390000", "164652.880000", "164654.370000", "164655.860000", "164657.350000", "164658.840000", "164700.330000", "164701.820000", "164703.310000", "164704.800000", "164706.290000", "164707.780000", "164709.270000", "164710.760000", "164712.250000", "164713.740000", "164715.230000", "164716.720000", "164718.210000", "164719.700000", "164721.190000", "164722.680000", "164724.170000", "164725.660000", "164727.150000", "164728.640000", "164730.130000", "164731.620000", "164733.110000", "164734.600000", "164736.090000", "164737.580000", "164739.070000", "164740.560000", "164742.050000", "164743.540000", "164745.030000", "164746.520000", "164748.010000", "164749.500000", "164750.990000", "164752.480000", "164753.970000", "164755.460000", "164756.950000", "164758.440000", "164759.930000", "164801.420000", "164802.910000", "164804.400000", "164805.890000", "164807.380000", "164808.870000", "164810.360000", "164811.850000", "164813.340000", "164814.830000", "164816.320000", "164817.810000", "164819.300000", "164820.790000", "164822.280000", "164823.770000", "164825.260000", "164826.750000", "164828.240000", "164829.730000", "164831.220000", "164832.710000", "164834.200000", "164835.690000", "164837.180000", "164838.670000", "164840.160000", "164841.650000", "164843.140000", "164844.630000", "164846.120000", "164847.610000", "164849.100000", "164850.590000", "164852.080000", "164853.570000", "164855.060000", "164856.550000", "164858.040000", "164859.530000", "164901.020000", "164902.510000", "164904.000000", "164905.490000", "164906.980000", "164908.470000", "164909.960000", "164911.450000", "164912.940000", "164914.430000", "164915.920000", "164917.410000", "164918.900000", "164920.390000", "164921.880000", "164923.370000", "164924.860000", "164926.350000", "164927.840000", "164929.330000", "164930.820000", "164932.310000", "164933.800000", "164935.290000", "164936.780000", "164938.270000", "164939.760000", "164941.250000", "164942.740000", "164944.230000", "164945.720000", "164947.210000", "164948.700000", "164950.190000", "164951.680000", "164953.170000", "164954.660000", "164956.150000", "164957.640000", "164959.130000", "165000.620000", "165002.110000", "165003.600000", "165005.090000", "165006.580000", "165008.070000", "165009.560000", "165011.050000", "165012.540000", "165014.030000", "165015.520000", "165017.010000", "165018.500000", "165019.990000", "165021.480000", "165022.970000", "165024.460000", "165025.950000", "165027.440000", "165028.930000", "165030.420000", "165031.910000", "165033.400000", "165034.890000", "165036.380000", "165037.870000", "165039.360000", "165040.850000", "165042.340000", "165043.830000", "165045.320000", "165046.810000", "165048.300000", "165049.790000", "165051.280000", "165052.770000", "165054.260000", "165055.750000", "165057.240000", "165058.730000", "165100.220000", "165101.710000", "165103.200000", "165104.690000", "165106.180000", "165107.670000", "165109.160000", "165110.650000", "165112.140000", "165113.630000", "165115.120000", "165116.610000", "165118.100000", "165119.590000", "165121.080000", "165122.570000", "165124.060000", "165125.550000", "165127.040000", "165128.530000", "165130.020000", "165131.510000", "165133.000000", "165134.490000", "165135.980000", "165137.470000", "165138.960000", "165140.450000", "165141.940000", "165143.430000", "165144.920000", "165146.410000", "165147.900000", "165149.390000", "165150.880000", "165152.370000", "165153.860000", "165155.350000", "165156.840000", "165158.330000", "165159.820000", "165201.310000", "165202.800000", "165204.290000", "165205.780000", "165207.270000", "165208.760000", "165210.250000", "165211.740000", "165213.230000", "165214.720000", "165216.210000", "165217.700000", "165219.190000", "165220.680000", "165222.170000", "165223.660000", "165225.150000", "165226.640000", "165228.130000", "165229.620000", "165231.110000", "165232.600000", "165234.090000", "165235.580000", "165237.070000", "165238.560000", "165240.050000", "165241.540000", "165243.030000", "165244.520000", "165246.010000", "165247.500000", "165248.990000", "165250.480000", "165251.970000", "165253.460000", "165254.950000", "165256.440000", "165257.930000", "165259.420000", "165300.910000", "165302.400000", "165303.890000", "165305.380000", "165306.870000", "165308.360000", "165309.850000", "165311.340000", "165312.830000", "165314.320000", "165315.810000", "165317.300000", "165318.790000", "165320.280000", "165321.770000", "165323.260000", "165324.750000", "165326.240000", "165327.730000", "165329.220000", "165330.710000", "165332.200000", "165333.690000", "165335.180000", "165336.670000", "165338.160000", "165339.650000", "165341.140000", "165342.630000", "165344.120000", "165345.610000", "165347.100000", "165348.590000", "165350.080000", "165351.570000", "165353.060000", "165354.550000", "165356.040000", "165357.530000", "165359.020000"],
      "ContentTime": ["164344.735000", "164344.739000", "164344.742000", "164344.746000", "164344.749000", "164344.753000", "164344.756000", "164344.759000", "164344.763000", "164344.766000", "164344.770000", "164344.773000", "164344.776000", "164344.780000", "164344.783000", "164344.787000", "164344.790000", "164344.794000", "164344.797000", "164344.800000", "164344.804000", "164344.807000", "164344.811000", "164344.814000", "164344.817000", "164344.821000", "164404.683000", "164404.687000", "164404.690000", "164404.694000", "164404.697000", "164404.700000", "164404.704000", "164404.707000", "164404.711000", "164404.714000", "164404.718000", "164404.721000", "164404.724000", "164404.728000", "164404.731000", "164404.734000", "164404.738000", "164404.741000", "164404.745000", "164404.748000", "164424.684000", "164424.688000", "164424.692000", "164424.695000", "164424.699000", "164424.702000", "164424.705000", "164424.709000", "164424.712000", "164424.716000", "164424.719000", "164424.722000", "164424.726000", "164424.735000", "164424.751000", "164424.754000", "164424.758000", "164424.761000", "164424.765000", "164424.768000", "164444.684000", "164444.688000", "164444.691000", "164444.695000", "164444.698000", "164444.702000", "164444.705000", "164444.709000", "164444.712000", "164444.715000", "164444.719000", "164444.722000", "164444.725000", "164444.729000", "164444.732000", "164444.736000", "164444.739000", "164444.742000", "164444.746000", "164444.749000", "164504.683000", "164504.687000", "164504.690000", "164504.694000", "164504.697000", "164504.701000", "164504.704000", "164504.707000", "164504.711000", "164504.714000", "164504.718000", "164504.721000", "164504.724000", "164504.728000", "164504.731000", "164504.735000", "164504.738000", "164504.741000", "164504.745000", "164504.748000", "164504.751000", "164544.683000", "164544.688000", "164544.691000", "164544.695000", "164544.698000", "164544.702000", "164544.705000", "164544.709000", "164544.712000", "164544.715000", "164544.719000", "164544.722000", "164544.726000", "164544.729000", "164544.732000", "164544.736000", "164544.739000", "164544.743000", "164544.746000", "164544.750000", "164544.753000", "164544.757000", "164544.760000", "164544.763000", "164544.767000", "164544.770000", "164624.683000", "164624.687000", "164624.691000", "164624.694000", "164624.697000", "164624.701000", "164624.704000", "164624.708000", "164624.711000", "164624.714000", "164624.718000", "164624.721000", "164624.725000", "164624.728000", "164624.732000", "164624.735000", "164624.738000", "164624.742000", "164624.745000", "164624.749000", "164624.752000", "164624.755000", "164624.759000", "164624.762000", "164624.766000", "164624.769000", "164624.772000", "164704.684000", "164704.688000", "164704.692000", "164704.695000", "164704.698000", "164704.702000", "164704.720000", "164704.724000", "164704.727000", "164704.730000", "164704.734000", "164704.737000", "164704.741000", "164704.744000", "164704.748000", "164704.751000", "164704.755000", "164704.758000", "164704.762000", "164704.765000", "164704.769000", "164704.772000", "164704.775000", "164704.779000", "164704.782000", "164704.786000", "164704.789000", "164744.683000", "164744.687000", "164744.691000", "164744.694000", "164744.697000", "164744.701000", "164744.704000", "164744.708000", "164744.711000", "164744.715000", "164744.718000", "164744.721000", "164744.725000", "164744.728000", "164744.732000", "164744.735000", "164744.739000", "164744.742000", "164744.746000", "164744.749000", "164744.753000", "164744.756000", "164744.759000", "164744.763000", "164744.766000", "164744.770000", "164744.773000", "164824.683000", "164824.687000", "164824.690000", "164824.694000", "164824.697000", "164824.701000", "164824.704000", "164824.708000", "164824.711000", "164824.715000", "164824.718000", "164824.721000", "164824.725000", "164824.728000", "164824.732000", "164824.735000", "164824.739000", "164824.742000", "164824.746000", "164824.749000", "164824.752000", "164824.756000", "164824.759000", "164824.763000", "164824.766000", "164824.770000", "164824.773000", "164904.684000", "164904.688000", "164904.692000", "164904.695000", "164904.698000", "164904.702000", "164904.705000", "164904.709000", "164904.712000", "164904.716000", "164904.719000", "164904.723000", "164904.726000", "164904.730000", "164904.733000", "164904.737000", "164904.740000", "164904.743000", "164904.747000", "164904.750000", "164904.777000", "164904.781000", "164904.784000", "164904.788000", "164904.791000", "164904.795000", "164904.798000", "164944.684000", "164944.687000", "164944.691000", "164944.695000", "164944.698000", "164944.702000", "164944.705000", "164944.709000", "164944.712000", "164944.716000", "164944.719000", "164944.723000", "164944.726000", "164944.730000", "164944.733000", "164944.736000", "164944.740000", "164944.743000", "164944.747000", "164944.750000", "164944.754000", "164944.757000", "164944.761000", "164944.764000", "164944.767000", "164944.771000", "165024.683000", "165024.687000", "165024.691000", "165024.694000", "165024.698000", "165024.701000", "165024.704000", "165024.708000", "165024.711000", "165024.715000", "165024.718000", "165024.722000", "165024.725000", "165024.728000", "165024.732000", "165024.735000", "165024.739000", "165024.742000", "165024.746000", "165024.749000", "165024.753000", "165024.756000", "165024.759000", "165024.763000", "165024.766000", "165024.770000", "165024.773000", "165104.683000", "165104.687000", "165104.691000", "165104.694000", "165104.698000", "165104.701000", "165104.704000", "165104.708000", "165104.711000", "165104.715000", "165104.718000", "165104.722000", "165104.725000", "165104.728000", "165104.732000", "165104.735000", "165104.739000", "165104.742000", "165104.746000", "165104.749000", "165104.753000", "165104.756000", "165104.760000", "165104.763000", "165104.773000", "165104.777000", "165104.780000", "165144.685000", "165144.688000", "165144.692000", "165144.695000", "165144.699000", "165144.723000", "165144.727000", "165144.730000", "165144.734000", "165144.737000", "165144.740000", "165144.744000", "165144.747000", "165144.751000", "165144.754000", "165144.759000", "165144.763000", "165144.766000", "165144.770000", "165144.773000", "165144.777000", "165144.780000", "165144.784000", "165144.787000", "165144.791000", "165144.794000", "165144.798000", "165224.683000", "165224.687000", "165224.691000", "165224.694000", "165224.697000", "165224.701000", "165224.705000", "165224.708000", "165224.711000", "165224.715000", "165224.718000", "165224.722000", "165224.725000", "165224.729000", "165224.732000", "165224.735000", "165224.739000", "165224.742000", "165224.746000", "165224.749000", "165224.753000", "165224.756000", "165224.760000", "165224.763000", "165224.766000", "165224.770000", "165224.773000", "165304.683000", "165304.687000", "165304.691000", "165304.694000", "165304.698000", "165304.701000", "165304.704000", "165304.708000", "165304.711000", "165304.715000", "165304.718000", "165304.722000", "165304.725000", "165304.729000", "165304.732000", "165304.735000", "165304.739000", "165304.742000", "165304.746000", "165304.749000", "165304.753000", "165304.756000", "165304.759000", "165304.763000", "165304.766000", "165304.770000", "165304.773000", "165344.684000", "165344.697000", "165344.701000", "165344.704000", "165344.708000", "165344.711000", "165344.714000", "165344.718000", "165344.721000", "165344.725000", "165344.728000", "165344.731000", "165344.735000", "165344.738000", "165344.742000", "165344.745000", "165344.749000", "165344.752000", "165344.755000", "165344.771000", "165344.775000", "165344.778000", "165344.782000", "165344.785000", "165344.789000", "165344.792000", "165344.796000", "165401.056000", "165401.060000", "165401.063000", "165401.067000", "165401.070000", "165401.074000", "165401.077000", "165401.081000", "165401.084000", "165401.088000", "165401.091000"],
