{
  "AcquisitionMatrixPE": 104,
  "AcquisitionNumber": 1,
  "AcquisitionTime": "16:05:15.357500",
  "BandwidthPerPixelPhaseEncode": 17.17,
  "BaseResolution": 104,
  "BodyPartExamined": "BRAIN",
  "CoilString": "HC1-7;NC1_2",
  "ConsistencyInfo": "N4_VE11C_LATEST_20160120",
  "ConversionSoftware": "dcm2niix",
  "ConversionSoftwareVersion": "v1.0.20190902",
  "DerivedVendorReportedEchoSpacing": 0.000560011,
  "DeviceSerialNumber": "167006",
  "DwellTime": 2.1e-06,
  "EchoTime": 0.037,
  "EchoTrainLength": 104,
  "EffectiveEchoSpacing": 0.000560011,
  "FlipAngle": 52,
  "HeudiconvVersion": "0.10.0",
  "ImageComments": "Unaliased_MB4_PE3_LB",
  "ImageOrientationPatientDICOM": [0.999754, -0.0216468, 0.00482315, 0.0219893, 0.939255, -0.342516],
  "ImageType": [
    "ORIGINAL",
    "PRIMARY",
    "M",
    "MB",
    "ND",
    "MOSAIC"
],
  "ImagingFrequency": 123.259,
  "InPlanePhaseEncodingDirectionDICOM": "COL",
  "InstitutionAddress": "Chemin_Queen-Mary_4565_Montreal_District_CA_H3W_1W5",
  "InstitutionName": "IUGM",
  "InstitutionalDepartmentName": "Department",
  "MRAcquisitionType": "2D",
  "MagneticFieldStrength": 3,
  "Manufacturer": "Siemens",
  "ManufacturersModelName": "Prisma_fit",
  "Modality": "MR",
  "MultibandAccelerationFactor": 4,
  "PartialFourier": 1,
  "PatientPosition": "HFS",
  "PercentPhaseFOV": 100,
  "PhaseEncodingDirection": "j",
  "PhaseEncodingSteps": 104,
  "PhaseResolution": 1,
  "PixelBandwidth": 2290,
  "ProcedureStepDescription": "games_mario",
  "ProtocolName": "func_task-mario_run-02",
  "PulseSequenceDetails": "%CustomerSeq%_cmrr_mbep2d_bold",
  "ReceiveCoilActiveElements": "HC1-7;NC1,2",
  "ReceiveCoilName": "HeadNeck_64",
  "ReconMatrixPE": 104,
  "RepetitionTime": 1.49,
  "SAR": 0.0453045,
  "ScanOptions": "FS",
  "ScanningSequence": "EP",
  "SequenceName": "epfid2d1_104",
  "SequenceVariant": "SK_SS",
  "SeriesDescription": "func_task-mario_run-02",
  "SeriesNumber": 13,
  "ShimSetting": [627, -7253, -8824, 580, 17, -196, -75, -12],
  "SliceThickness": 2,
  "SliceTiming": [0, 0.785, 0.0975, 0.8825, 0.1975, 0.98, 0.295, 1.0775, 0.3925, 1.175, 0.49, 1.275, 0.5875, 1.3725, 0.6875, 0, 0.785, 0.0975, 0.8825, 0.1975, 0.98, 0.295, 1.0775, 0.3925, 1.175, 0.49, 1.275, 0.5875, 1.3725, 0.6875, 0, 0.785, 0.0975, 0.8825, 0.1975, 0.98, 0.295, 1.0775, 0.3925, 1.175, 0.49, 1.275, 0.5875, 1.3725, 0.6875, 0, 0.785, 0.0975, 0.8825, 0.1975, 0.98, 0.295, 1.0775, 0.3925, 1.175, 0.49, 1.275, 0.5875, 1.3725, 0.6875],
  "SoftwareVersions": "syngo_MR_E11",
  "SpacingBetweenSlices": 2,
  "StationName": "MRC35049",
  "TaskName": "mario",
  "TotalReadoutTime": 0.0576811,
  "TxRefAmp": 242.856,
  "WipMemBlock": "3c563691-4811-488e-82a8-296ac99ec5dc||Sequence: R016 ve11c/master r/e634e98; Dec 19 2017 11:00:25 by eja",
  "dcmmeta_affine": [
    [-1.9995081424713135, 0.04397851601243019, -0.005768405739217997, 104.25056457519531],
    [0.04329356923699379, 1.8785094022750854, -0.6850754022598267, -66.92291259765625],
    [0.009646297432482243, 0.6850317716598511, 1.8789993524551392, -63.841365814208984],
    [0.0, 0.0, 0.0, 1.0]
],
  "dcmmeta_reorient_transform": [
    [0.0, -1.0, 0.0, 103.0],
    [1.0, 0.0, 0.0, 0.0],
    [0.0, 0.0, 1.0, 0.0],
    [0.0, 0.0, 0.0, 1.0]
],
  "dcmmeta_shape": [104, 104, 60, 420],
  "dcmmeta_slice_dim": 2,
  "dcmmeta_version": 0.6,
  "global": {
    "const": {
      "AcquisitionMatrix": [104, 0, 0, 104],
      "AngioFlag": "N",
      "BitsAllocated": 16,
      "BitsStored": 16,
      "BodyPartExamined": "BRAIN",
      "Columns": 832,
      "EchoNumbers": 1,
      "EchoTime": 37.0,
      "EchoTrainLength": 104,
      "FlipAngle": 52.0,
      "HighBit": 15,
      "ImageOrientationPatient": [0.99975404671812, -0.0216467851854, 0.0048231485444, 0.02198925749045, 0.93925467598691, -0.3425158772842],
      "ImagePositionPatient": [-852.60947707707, -794.58209699502, 252.55721310444],
      "ImageType": [
        "ORIGINAL",
        "PRIMARY",
        "M",
        "MB",
        "ND",
        "MOSAIC"
],
      "ImagedNucleus": "1H",
      "ImagingFrequency": 123.258877,
      "InPlanePhaseEncodingDirection": "COL",
      "MRAcquisitionType": "2D",
      "MagneticFieldStrength": 3.0,
      "Manufacturer": "SIEMENS",
      "ManufacturerModelName": "Prisma_fit",
      "Modality": "MR",
      "NumberOfAverages": 1.0,
      "NumberOfPhaseEncodingSteps": 104,
      "PercentPhaseFieldOfView": 100.0,
      "PercentSampling": 100.0,
      "PerformedProcedureStepStartTime": "151002.367000",
      "PhotometricInterpretation": "MONOCHROME2",
      "PixelBandwidth": 2290.0,
      "PixelRepresentation": 0,
      "PixelSpacing": [2.0, 2.0],
      "ProtocolName": "func_task-mario_run-02",
      "RepetitionTime": 1490.0,
      "Rows": 832,
      "SAR": 0.04530451043177,
      "SamplesPerPixel": 1,
      "ScanOptions": "FS",
      "ScanningSequence": "EP",
      "SequenceName": "epfid2d1_104",
      "SequenceVariant": [
        "SK",
        "SS"
],
      "SeriesDescription": "func_task-mario_run-02",
      "SeriesNumber": 13,
      "SeriesTime": "160624.718000",
      "SliceLocation": -37.356000285448,
      "SliceThickness": 2.0,
      "SmallestImagePixelValue": 0,
      "SoftwareVersions": "syngo MR E11",
      "SpacingBetweenSlices": 2.000000034014,
      "SpecificCharacterSet": "ISO_IR 100",
      "StudyID": "1",
      "StudyTime": "151002.312000",
      "TransmitCoilName": "Body",
      "VariableFlipAngleFlag": "N",
      "WindowCenterWidthExplanation": "Algo1",
      "dBdt": 0.0},
    "slices": {}
  },
  "time": {
    "samples": {
      "AcquisitionNumber": [1, 2, 3, 4, 5, 6, 7, 8, 9, 10, 11, 12, 13, 14, 15, 16, 17, 18, 19, 20, 21, 22, 23, 24, 25, 26, 27, 28, 29, 30, 31, 32, 33, 34, 35, 36, 37, 38, 39, 40, 41, 42, 43, 44, 45, 46, 47, 48, 49, 50, 51, 52, 53, 54, 55, 56, 57, 58, 59, 60, 61, 62, 63, 64, 65, 66, 67, 68, 69, 70, 71, 72, 73, 74, 75, 76, 77, 78, 79, 80, 81, 82, 83, 84, 85, 86, 87, 88, 89, 90, 91, 92, 93, 94, 95, 96, 97, 98, 99, 100, 101, 102, 103, 104, 105, 106, 107, 108, 109, 110, 111, 112, 113, 114, 115, 116, 117, 118, 119, 120, 121, 122, 123, 124, 125, 126, 127, 128, 129, 130, 131, 132, 133, 134, 135, 136, 137, 138, 139, 140, 141, 142, 143, 144, 145, 146, 147, 148, 149, 150, 151, 152, 153, 154, 155, 156, 157, 158, 159, 160, 161, 162, 163, 164, 165, 166, 167, 168, 169, 170, 171, 172, 173, 174, 175, 176, 177, 178, 179, 180, 181, 182, 183, 184, 185, 186, 187, 188, 189, 190, 191, 192, 193, 194, 195, 196, 197, 198, 199, 200, 201, 202, 203, 204, 205, 206, 207, 208, 209, 210, 211, 212, 213, 214, 215, 216, 217, 218, 219, 220, 221, 222, 223, 224, 225, 226, 227, 228, 229, 230, 231, 232, 233, 234, 235, 236, 237, 238, 239, 240, 241, 242, 243, 244, 245, 246, 247, 248, 249, 250, 251, 252, 253, 254, 255, 256, 257, 258, 259, 260, 261, 262, 263, 264, 265, 266, 267, 268, 269, 270, 271, 272, 273, 274, 275, 276, 277, 278, 279, 280, 281, 282, 283, 284, 285, 286, 287, 288, 289, 290, 291, 292, 293, 294, 295, 296, 297, 298, 299, 300, 301, 302, 303, 304, 305, 306, 307, 308, 309, 310, 311, 312, 313, 314, 315, 316, 317, 318, 319, 320, 321, 322, 323, 324, 325, 326, 327, 328, 329, 330, 331, 332, 333, 334, 335, 336, 337, 338, 339, 340, 341, 342, 343, 344, 345, 346, 347, 348, 349, 350, 351, 352, 353, 354, 355, 356, 357, 358, 359, 360, 361, 362, 363, 364, 365, 366, 367, 368, 369, 370, 371, 372, 373, 374, 375, 376, 377, 378, 379, 380, 381, 382, 383, 384, 385, 386, 387, 388, 389, 390, 391, 392, 393, 394, 395, 396, 397, 398, 399, 400, 401, 402, 403, 404, 405, 406, 407, 408, 409, 410, 411, 412, 413, 414, 415, 416, 417, 418, 419, 420],
      "AcquisitionTime": ["160515.357500", "160516.847500", "160518.337500", "160519.827500", "160521.317500", "160522.807500", "160524.297500", "160525.787500", "160527.277500", "160528.767500", "160530.257500", "160531.747500", "160533.237500", "160534.727500", "160536.217500", "160537.707500", "160539.197500", "160540.687500", "160542.177500", "160543.667500", "160545.157500", "160546.647500", "160548.137500", "160549.627500", "160551.117500", "160552.607500", "160554.097500", "160555.587500", "160557.077500", "160558.567500", "160600.057500", "160601.547500", "160603.037500", "160604.527500", "160606.017500", "160607.507500", "160608.997500", "160610.487500", "160611.977500", "160613.467500", "160614.957500", "160616.447500", "160617.937500", "160619.427500", "160620.917500", "160622.407500", "160623.897500", "160625.387500", "160626.877500", "160628.367500", "160629.857500", "160631.347500", "160632.837500", "160634.327500", "160635.817500", "160637.307500", "160638.797500", "160640.287500", "160641.777500", "160643.267500", "160644.757500", "160646.247500", "160647.737500", "160649.227500", "160650.717500", "160652.207500", "160653.697500", "160655.187500", "160656.677500", "160658.167500", "160659.657500", "160701.147500", "160702.637500", "160704.127500", "160705.617500", "160707.107500", "160708.597500", "160710.087500", "160711.577500", "160713.067500", "160714.557500", "160716.047500", "160717.537500", "160719.027500", "160720.517500", "160722.007500", "160723.497500", "160724.987500", "160726.477500", "160727.967500", "160729.457500", "160730.947500", "160732.437500", "160733.927500", "160735.417500", "160736.907500", "160738.397500", "160739.887500", "160741.377500", "160742.867500", "160744.357500", "160745.847500", "160747.337500", "160748.827500", "160750.317500", "160751.807500", "160753.297500", "160754.787500", "160756.277500", "160757.767500", "160759.257500", "160800.747500", "160802.237500", "160803.727500", "160805.217500", "160806.707500", "160808.197500", "160809.687500", "160811.177500", "160812.667500", "160814.157500", "160815.647500", "160817.137500", "160818.627500", "160820.117500", "160821.607500", "160823.097500", "160824.587500", "160826.077500", "160827.567500", "160829.057500", "160830.547500", "160832.037500", "160833.527500", "160835.017500", "160836.507500", "160837.997500", "160839.487500", "160840.977500", "160842.467500", "160843.957500", "160845.447500", "160846.937500", "160848.427500", "160849.917500", "160851.407500", "160852.897500", "160854.387500", "160855.877500", "160857.367500", "160858.857500", "160900.347500", "160901.837500", "160903.327500", "160904.817500", "160906.307500", "160907.797500", "160909.287500", "160910.777500", "160912.267500", "160913.757500", "160915.247500", "160916.737500", "160918.227500", "160919.717500", "160921.207500", "160922.697500", "160924.187500", "160925.677500", "160927.167500", "160928.657500", "160930.147500", "160931.637500", "160933.127500", "160934.617500", "160936.107500", "160937.597500", "160939.087500", "160940.577500", "160942.067500", "160943.557500", "160945.047500", "160946.537500", "160948.027500", "160949.517500", "160951.007500", "160952.497500", "160953.987500", "160955.477500", "160956.967500", "160958.457500", "160959.947500", "161001.437500", "161002.927500", "161004.417500", "161005.907500", "161007.397500", "161008.887500", "161010.377500", "161011.867500", "161013.357500", "161014.847500", "161016.337500", "161017.827500", "161019.317500", "161020.807500", "161022.297500", "161023.787500", "161025.277500", "161026.767500", "161028.257500", "161029.747500", "161031.237500", "161032.727500", "161034.217500", "161035.707500", "161037.197500", "161038.687500", "161040.177500", "161041.667500", "161043.157500", "161044.647500", "161046.137500", "161047.627500", "161049.117500", "161050.607500", "161052.097500", "161053.587500", "161055.077500", "161056.567500", "161058.057500", "161059.547500", "161101.037500", "161102.527500", "161104.017500", "161105.507500", "161106.997500", "161108.487500", "161109.977500", "161111.467500", "161112.957500", "161114.447500", "161115.937500", "161117.427500", "161118.917500", "161120.407500", "161121.897500", "161123.387500", "161124.877500", "161126.367500", "161127.857500", "161129.347500", "161130.837500", "161132.327500", "161133.817500", "161135.307500", "161136.797500", "161138.287500", "161139.777500", "161141.267500", "161142.757500", "161144.247500", "161145.737500", "161147.227500", "161148.717500", "161150.207500", "161151.697500", "161153.187500", "161154.677500", "161156.167500", "161157.657500", "161159.147500", "161200.637500", "161202.127500", "161203.617500", "161205.107500", "161206.597500", "161208.087500", "161209.577500", "161211.067500", "161212.557500", "161214.047500", "161215.537500", "161217.027500", "161218.517500", "161220.007500", "161221.497500", "161222.987500", "161224.477500", "161225.967500", "161227.457500", "161228.947500", "161230.437500", "161231.927500", "161233.417500", "161234.907500", "161236.397500", "161237.887500", "161239.377500", "161240.867500", "161242.357500", "161243.847500", "161245.337500", "161246.827500", "161248.317500", "161249.807500", "161251.297500", "161252.787500", "161254.277500", "161255.767500", "161257.257500", "161258.747500", "161300.237500", "161301.727500", "161303.217500", "161304.707500", "161306.197500", "161307.687500", "161309.177500", "161310.667500", "161312.157500", "161313.647500", "161315.137500", "161316.627500", "161318.117500", "161319.607500", "161321.097500", "161322.587500", "161324.077500", "161325.567500", "161327.057500", "161328.547500", "161330.037500", "161331.527500", "161333.017500", "161334.507500", "161335.997500", "161337.487500", "161338.977500", "161340.467500", "161341.957500", "161343.447500", "161344.937500", "161346.427500", "161347.917500", "161349.407500", "161350.897500", "161352.387500", "161353.877500", "161355.367500", "161356.857500", "161358.347500", "161359.837500", "161401.327500", "161402.817500", "161404.307500", "161405.797500", "161407.287500", "161408.777500", "161410.267500", "161411.757500", "161413.247500", "161414.737500", "161416.227500", "161417.717500", "161419.207500", "161420.697500", "161422.187500", "161423.677500", "161425.167500", "161426.657500", "161428.147500", "161429.637500", "161431.127500", "161432.617500", "161434.107500", "161435.597500", "161437.087500", "161438.577500", "161440.067500", "161441.557500", "161443.047500", "161444.537500", "161446.027500", "161447.517500", "161449.007500", "161450.497500", "161451.987500", "161453.477500", "161454.967500", "161456.457500", "161457.947500", "161459.437500", "161500.927500", "161502.417500", "161503.907500", "161505.397500", "161506.887500", "161508.377500", "161509.867500", "161511.357500", "161512.847500", "161514.337500", "161515.827500", "161517.317500", "161518.807500", "161520.297500", "161521.787500", "161523.277500", "161524.767500", "161526.257500", "161527.747500", "161529.237500", "161530.727500", "161532.217500", "161533.707500", "161535.197500", "161536.687500", "161538.177500", "161539.667500"],
      "ContentTime": ["160624.721000", "160624.725000", "160624.728000", "160624.732000", "160624.735000", "160624.738000", "160624.742000", "160624.745000", "160624.749000", "160624.758000", "160624.761000", "160624.765000", "160624.768000", "160624.771000", "160624.775000", "160624.778000", "160644.683000", "160644.687000", "160644.691000", "160644.694000", "160644.697000", "160644.701000", "160644.712000", "160644.715000", "160644.719000", "160644.722000", "160644.726000", "160644.729000", "160644.732000", "160644.736000", "160644.739000", "160644.743000", "160644.746000", "160644.749000", "160644.753000", "160644.756000", "160704.683000", "160704.687000", "160704.690000", "160704.694000", "160704.697000", "160704.701000", "160704.704000", "160704.708000", "160704.711000", "160704.714000", "160704.718000", "160704.721000", "160704.725000", "160704.728000", "160704.732000", "160704.735000", "160704.738000", "160704.742000", "160704.745000", "160704.749000", "160724.684000", "160724.688000", "160724.691000", "160724.695000", "160724.698000", "160724.702000", "160724.705000", "160724.708000", "160724.712000", "160724.715000", "160724.728000", "160724.732000", "160724.735000", "160724.739000", "160724.742000", "160724.746000", "160724.749000", "160724.753000", "160724.756000", "160724.759000", "160724.763000", "160744.684000", "160744.688000", "160744.692000", "160744.695000", "160744.698000", "160744.702000", "160744.705000", "160744.709000", "160744.712000", "160744.715000", "160744.719000", "160744.722000", "160744.726000", "160744.729000", "160744.733000", "160744.736000", "160744.740000", "160744.743000", "160744.747000", "160744.750000", "160824.683000", "160824.687000", "160824.691000", "160824.694000", "160824.697000", "160824.701000", "160824.704000", "160824.708000", "160824.711000", "160824.715000", "160824.718000", "160824.721000", "160824.725000", "160824.728000", "160824.731000", "160824.735000", "160824.738000", "160824.742000", "160824.745000", "160824.749000", "160824.752000", "160824.756000", "160824.759000", "160824.763000", "160824.766000", "160824.769000", "160824.773000", "160824.776000", "160824.780000", "160904.683000", "160904.687000", "160904.692000", "160904.695000", "160904.699000", "160904.702000", "160904.706000", "160904.709000", "160904.713000", "160904.716000", "160904.720000", "160904.723000", "160904.727000", "160904.730000", "160904.734000", "160904.737000", "160904.740000", "160904.744000", "160904.747000", "160904.751000", "160904.754000", "160904.758000", "160904.761000", "160904.765000", "160904.768000", "160904.771000", "160904.775000", "160944.685000", "160944.688000", "160944.692000", "160944.695000", "160944.699000", "160944.702000", "160944.706000", "160944.709000", "160944.713000", "160944.716000", "160944.719000", "160944.723000", "160944.726000", "160944.730000", "160944.750000", "160944.754000", "160944.757000", "160944.760000", "160944.764000", "160944.767000", "160944.771000", "160944.774000", "160944.778000", "160944.781000", "160944.784000", "160944.788000", "160944.791000", "161024.683000", "161024.687000", "161024.691000", "161024.694000", "161024.697000", "161024.709000", "161024.712000", "161024.716000", "161024.719000", "161024.722000", "161024.726000", "161024.729000", "161024.733000", "161024.736000", "161024.740000", "161024.743000", "161024.746000", "161024.750000", "161024.753000", "161024.757000", "161024.760000", "161024.764000", "161024.767000", "161024.771000", "161024.774000", "161024.778000", "161024.781000", "161104.683000", "161104.687000", "161104.691000", "161104.694000", "161104.698000", "161104.701000", "161104.704000", "161104.708000", "161104.711000", "161104.715000", "161104.718000", "161104.722000", "161104.725000", "161104.729000", "161104.732000", "161104.736000", "161104.739000", "161104.742000", "161104.746000", "161104.749000", "161104.753000", "161104.756000", "161104.760000", "161104.763000", "161104.767000", "161104.770000", "161104.774000", "161144.684000", "161144.688000", "161144.691000", "161144.695000", "161144.698000", "161144.702000", "161144.705000", "161144.709000", "161144.712000", "161144.716000", "161144.719000", "161144.723000", "161144.726000", "161144.730000", "161144.733000", "161144.737000", "161144.740000", "161144.743000", "161144.747000", "161144.750000", "161144.754000", "161144.757000", "161144.761000", "161144.764000", "161144.768000", "161144.771000", "161224.684000", "161224.688000", "161224.692000", "161224.695000", "161224.699000", "161224.702000", "161224.706000", "161224.709000", "161224.712000", "161224.716000", "161224.719000", "161224.723000", "161224.726000", "161224.729000", "161224.733000", "161224.736000", "161224.740000", "161224.743000", "161224.747000", "161224.750000", "161224.754000", "161224.757000", "161224.761000", "161224.764000", "161224.768000", "161224.771000", "161224.774000", "161304.683000", "161304.687000", "161304.691000", "161304.694000", "161304.698000", "161304.701000", "161304.705000", "161304.708000", "161304.712000", "161304.715000", "161304.718000", "161304.722000", "161304.725000", "161304.729000", "161304.732000", "161304.736000", "161304.739000", "161304.742000", "161304.746000", "161304.749000", "161304.753000", "161304.756000", "161304.760000", "161304.763000", "161304.767000", "161304.770000", "161304.774000", "161344.683000", "161344.687000", "161344.691000", "161344.694000", "161344.698000", "161344.701000", "161344.705000", "161344.708000", "161344.712000", "161344.715000", "161344.718000", "161344.722000", "161344.725000", "161344.729000", "161344.732000", "161344.736000", "161344.739000", "161344.743000", "161344.746000", "161344.750000", "161344.753000", "161344.756000", "161344.760000", "161344.763000", "161344.767000", "161344.770000", "161344.774000", "161424.685000", "161424.688000", "161424.692000", "161424.695000", "161424.699000", "161424.702000", "161424.706000", "161424.709000", "161424.713000", "161424.716000", "161424.719000", "161424.723000", "161424.726000", "161424.748000", "161424.751000", "161424.754000", "161424.758000", "161424.761000", "161424.765000", "161424.768000", "161424.772000", "161424.775000", "161424.779000", "161424.782000", "161424.786000", "161424.789000", "161424.792000", "161504.683000", "161504.687000", "161504.691000", "161504.694000", "161504.698000", "161504.701000", "161504.705000", "161504.708000", "161504.712000", "161504.715000", "161504.720000", "161504.723000", "161504.727000", "161504.730000", "161504.734000", "161504.737000", "161504.741000", "161504.744000", "161504.748000", "161504.751000", "161504.755000", "161504.758000", "161504.761000", "161504.765000", "161504.768000", "161504.772000", "161504.775000", "161542.794000", "161542.798000", "161542.801000", "161542.805000", "161542.808000", "161542.812000", "161542.815000", "161542.819000", "161542.822000", "161542.826000", "161542.829000", "161542.832000", "161542.836000", "161542.839000", "161542.843000", "161542.846000", "161542.850000", "161542.853000", "161542.856000", "161542.860000", "161542.863000", "161542.867000", "161542.870000", "161542.874000", "161542.877000"],
      "InstanceCreationTime": ["160624.721000", "160624.725000", "160624.728000", "160624.732000", "160624.735000", "160624.738000", "160624.742000", "160624.745000", "160624.749000", "160624.758000", "160624.761000", "160624.765000", "160624.768000", "160624.771000", "160624.775000", "160624.778000", "160644.683000", "160644.687000", "160644.691000", "160644.694000", "160644.697000", "160644.701000", "160644.712000", "160644.715000", "160644.719000", "160644.722000", "160644.726000", "160644.729000", "160644.732000", "160644.736000", "160644.739000", "160644.743000", "160644.746000", "160644.749000", "160644.753000", "160644.756000", "160704.683000", "160704.687000", "160704.690000", "160704.694000", "160704.697000", "160704.701000", "160704.704000", "160704.708000", "160704.711000", "160704.714000", "160704.718000", "160704.721000", "160704.725000", "160704.728000", "160704.732000", "160704.735000", "160704.738000", "160704.742000", "160704.745000", "160704.749000", "160724.684000", "160724.688000", "160724.691000", "160724.695000", "160724.698000", "160724.702000", "160724.705000", "160724.708000", "160724.712000", "160724.715000", "160724.728000", "160724.732000", "160724.735000", "160724.739000", "160724.742000", "160724.746000", "160724.749000", "160724.753000", "160724.756000", "160724.759000", "160724.763000", "160744.684000", "160744.688000", "160744.692000", "160744.695000", "160744.698000", "160744.702000", "160744.705000", "160744.709000", "160744.712000", "160744.715000", "160744.719000", "160744.722000", "160744.726000", "160744.729000", "160744.733000", "160744.736000", "160744.740000", "160744.743000", "160744.747000", "160744.750000", "160824.683000", "160824.687000", "160824.691000", "160824.694000", "160824.697000", "160824.701000", "160824.704000", "160824.708000", "160824.711000", "160824.715000", "160824.718000", "160824.721000", "160824.725000", "160824.728000", "160824.731000", "160824.735000", "160824.738000", "160824.742000", "160824.745000", "160824.749000", "160824.752000", "160824.756000", "160824.759000", "160824.763000", "160824.766000", "160824.769000", "160824.773000", "160824.776000", "160824.780000", "160904.683000", "160904.687000", "160904.692000", "160904.695000", "160904.699000", "160904.702000", "160904.706000", "160904.709000", "160904.713000", "160904.716000", "160904.720000", "160904.723000", "160904.727000", "160904.730000", "160904.734000", "160904.737000", "160904.740000", "160904.744000", "160904.747000", "160904.751000", "160904.754000", "160904.758000", "160904.761000", "160904.765000", "160904.768000", "160904.771000", "160904.775000", "160944.685000", "160944.688000", "160944.692000", "160944.695000", "160944.699000", "160944.702000", "160944.706000", "160944.709000", "160944.713000", "160944.716000", "160944.719000", "160944.723000", "160944.726000", "160944.730000", "160944.750000", "160944.754000", "160944.757000", "160944.760000", "160944.764000", "160944.767000", "160944.771000", "160944.774000", "160944.778000", "160944.781000", "160944.784000", "160944.788000", "160944.791000", "161024.683000", "161024.687000", "161024.691000", "161024.694000", "161024.697000", "161024.709000", "161024.712000", "161024.716000", "161024.719000", "161024.722000", "161024.726000", "161024.729000", "161024.733000", "161024.736000", "161024.740000", "161024.743000", "161024.746000", "161024.750000", "161024.753000", "161024.757000", "161024.760000", "161024.764000", "161024.767000", "161024.771000", "161024.774000", "161024.778000", "161024.781000", "161104.683000", "161104.687000", "161104.691000", "161104.694000", "161104.698000", "161104.701000", "161104.704000", "161104.708000", "161104.711000", "161104.715000", "161104.718000", "161104.722000", "161104.725000", "161104.729000", "161104.732000", "161104.736000", "161104.739000", "161104.742000", "161104.746000", "161104.749000", "161104.753000", "161104.756000", "161104.760000", "161104.763000", "161104.767000", "161104.770000", "161104.774000", "161144.684000", "161144.688000", "161144.691000", "161144.695000", "161144.698000", "161144.702000", "161144.705000", "161144.709000", "161144.712000", "161144.716000", "161144.719000", "161144.723000", "161144.726000", "161144.730000", "161144.733000", "161144.737000", "161144.740000", "161144.743000", "161144.747000", "161144.750000", "161144.754000", "161144.757000", "161144.761000", "161144.764000", "161144.768000", "161144.771000", "161224.684000", "161224.688000", "161224.692000", "161224.695000", "161224.699000", "161224.702000", "161224.706000", "161224.709000", "161224.712000", "161224.716000", "161224.719000", "161224.723000", "161224.726000", "161224.729000", "161224.733000", "161224.736000", "161224.740000", "161224.743000", "161224.747000", "161224.750000", "161224.754000", "161224.757000", "161224.761000", "161224.764000", "161224.768000", "161224.771000", "161224.774000", "161304.683000", "161304.687000", "161304.691000", "161304.694000", "161304.698000", "161304.701000", "161304.705000", "161304.708000", "161304.712000", "161304.715000", "161304.718000", "161304.722000", "161304.725000", "161304.729000", "161304.732000", "161304.736000", "161304.739000", "161304.742000", "161304.746000", "161304.749000", "161304.753000", "161304.756000", "161304.760000", "161304.763000", "161304.767000", "161304.770000", "161304.774000", "161344.683000", "161344.687000", "161344.691000", "161344.694000", "161344.698000", "161344.701000", "161344.705000", "161344.708000", "161344.712000", "161344.715000", "161344.718000", "161344.722000", "161344.725000", "161344.729000", "161344.732000", "161344.736000", "161344.739000", "161344.743000", "161344.746000", "161344.750000", "161344.753000", "161344.756000", "161344.760000", "161344.763000", "161344.767000", "161344.770000", "161344.774000", "161424.685000", "161424.688000", "161424.692000", "161424.695000", "161424.699000", "161424.702000", "161424.706000", "161424.709000", "161424.713000", "161424.716000", "161424.719000", "161424.723000", "161424.726000", "161424.748000", "161424.751000", "161424.754000", "161424.758000", "161424.761000", "161424.765000", "161424.768000", "161424.772000", "161424.775000", "161424.779000", "161424.782000", "161424.786000", "161424.789000", "161424.792000", "161504.683000", "161504.687000", "161504.691000", "161504.694000", "161504.698000", "161504.701000", "161504.705000", "161504.708000", "161504.712000", "161504.715000", "161504.720000", "161504.723000", "161504.727000", "161504.730000", "161504.734000", "161504.737000", "161504.741000", "161504.744000", "161504.748000", "161504.751000", "161504.755000", "161504.758000", "161504.761000", "161504.765000", "161504.768000", "161504.772000", "161504.775000", "161542.794000", "161542.798000", "161542.801000", "161542.805000", "161542.808000", "161542.812000", "161542.815000", "161542.819000", "161542.822000", "161542.826000", "161542.829000", "161542.832000", "161542.836000", "161542.839000", "161542.843000", "161542.846000", "161542.850000", "161542.853000", "161542.856000", "161542.860000", "161542.863000", "161542.867000", "161542.870000", "161542.874000", "161542.877000"],
