{
  "AcquisitionMatrixPE": 104,
  "AcquisitionNumber": 1,
  "AcquisitionTime": "16:17:15.835000",
  "BandwidthPerPixelPhaseEncode": 17.17,
  "BaseResolution": 104,
  "BodyPartExamined": "BRAIN",
  "CoilString": "HC1-7;NC1_2",
  "ConsistencyInfo": "N4_VE11C_LATEST_20160120",
  "ConversionSoftware": "dcm2niix",
  "ConversionSoftwareVersion": "v1.0.20190902",
  "DerivedVendorReportedEchoSpacing": 0.000560011,
  "DeviceSerialNumber": "167006",
  "DwellTime": 2.1e-06,
  "EchoTime": 0.037,
  "EchoTrainLength": 104,
  "EffectiveEchoSpacing": 0.000560011,
  "FlipAngle": 52,
  "HeudiconvVersion": "0.10.0",
  "ImageComments": "Unaliased_MB4_PE3_LB",
  "ImageOrientationPatientDICOM": [0.999754, -0.0216468, 0.00482315, 0.0219893, 0.939255, -0.342516],
  "ImageType": [
    "ORIGINAL",
    "PRIMARY",
    "P",
    "MB",
    "ND",
    "MOSAIC"
],
  "ImagingFrequency": 123.259,
  "InPlanePhaseEncodingDirectionDICOM": "COL",
  "InstitutionAddress": "Chemin_Queen-Mary_4565_Montreal_District_CA_H3W_1W5",
  "InstitutionName": "IUGM",
  "InstitutionalDepartmentName": "Department",
  "MRAcquisitionType": "2D",
  "MagneticFieldStrength": 3,
  "Manufacturer": "Siemens",
  "ManufacturersModelName": "Prisma_fit",
  "Modality": "MR",
  "MultibandAccelerationFactor": 4,
  "PartialFourier": 1,
  "PatientPosition": "HFS",
  "PercentPhaseFOV": 100,
  "PhaseEncodingDirection": "j",
  "PhaseEncodingSteps": 104,
  "PhaseResolution": 1,
  "PixelBandwidth": 2290,
  "ProcedureStepDescription": "games_mario",
  "ProtocolName": "func_task-mario_run-03",
  "PulseSequenceDetails": "%CustomerSeq%_cmrr_mbep2d_bold",
  "ReceiveCoilActiveElements": "HC1-7;NC1,2",
  "ReceiveCoilName": "HeadNeck_64",
  "ReconMatrixPE": 104,
  "RepetitionTime": 1.49,
  "SAR": 0.0453045,
  "ScanOptions": "FS",
  "ScanningSequence": "EP",
  "SequenceName": "epfid2d1_104",
  "SequenceVariant": "SK_SS",
  "SeriesDescription": "func_task-mario_run-03",
  "SeriesNumber": 17,
  "ShimSetting": [627, -7253, -8824, 580, 17, -196, -75, -12],
  "SliceThickness": 2,
  "SliceTiming": [0, 0.7825, 0.0975, 0.88, 0.195, 0.98, 0.2925, 1.0775, 0.39, 1.175, 0.49, 1.2725, 0.5875, 1.37, 0.685, 0, 0.7825, 0.0975, 0.88, 0.195, 0.98, 0.2925, 1.0775, 0.39, 1.175, 0.49, 1.2725, 0.5875, 1.37, 0.685, 0, 0.7825, 0.0975, 0.88, 0.195, 0.98, 0.2925, 1.0775, 0.39, 1.175, 0.49, 1.2725, 0.5875, 1.37, 0.685, 0, 0.7825, 0.0975, 0.88, 0.195, 0.98, 0.2925, 1.0775, 0.39, 1.175, 0.49, 1.2725, 0.5875, 1.37, 0.685],
  "SoftwareVersions": "syngo_MR_E11",
  "SpacingBetweenSlices": 2,
  "StationName": "MRC35049",
  "TaskName": "mario",
  "TotalReadoutTime": 0.0576811,
  "TxRefAmp": 242.856,
  "WipMemBlock": "122cab15-766f-4e5a-9f1e-12520cdf7025||Sequence: R016 ve11c/master r/e634e98; Dec 19 2017 11:00:25 by eja",
  "dcmmeta_affine": [
    [-1.9995081424713135, 0.04397851601243019, -0.005768405739217997, 104.25056457519531],
    [0.04329356923699379, 1.8785094022750854, -0.6850754022598267, -66.92291259765625],
    [0.009646297432482243, 0.6850317716598511, 1.8789993524551392, -63.841365814208984],
    [0.0, 0.0, 0.0, 1.0]
],
  "dcmmeta_reorient_transform": [
    [0.0, -1.0, 0.0, 103.0],
    [1.0, 0.0, 0.0, 0.0],
    [0.0, 0.0, 1.0, 0.0],
    [0.0, 0.0, 0.0, 1.0]
],
  "dcmmeta_shape": [104, 104, 60, 448],
  "dcmmeta_slice_dim": 2,
  "dcmmeta_version": 0.6,
  "global": {
    "const": {
      "AcquisitionMatrix": [104, 0, 0, 104],
      "AngioFlag": "N",
      "BitsAllocated": 16,
      "BitsStored": 16,
      "BodyPartExamined": "BRAIN",
      "Columns": 832,
      "EchoNumbers": 1,
      "EchoTime": 37.0,
      "EchoTrainLength": 104,
      "FlipAngle": 52.0,
      "HighBit": 15,
      "ImageOrientationPatient": [0.99975404671812, -0.0216467851854, 0.0048231485444, 0.02198925749045, 0.93925467598691, -0.3425158772842],
      "ImagePositionPatient": [-852.60947707707, -794.58209699502, 252.55721310444],
      "ImageType": [
        "ORIGINAL",
        "PRIMARY",
        "P",
        "MB",
        "ND",
        "MOSAIC"
],
      "ImagedNucleus": "1H",
      "ImagingFrequency": 123.258881,
      "InPlanePhaseEncodingDirection": "COL",
      "LargestImagePixelValue": 4095,
      "MRAcquisitionType": "2D",
      "MagneticFieldStrength": 3.0,
      "Manufacturer": "SIEMENS",
      "ManufacturerModelName": "Prisma_fit",
      "Modality": "MR",
      "NumberOfAverages": 1.0,
      "NumberOfPhaseEncodingSteps": 104,
      "PercentPhaseFieldOfView": 100.0,
      "PercentSampling": 100.0,
      "PerformedProcedureStepStartTime": "151002.367000",
      "PhotometricInterpretation": "MONOCHROME2",
      "PixelBandwidth": 2290.0,
      "PixelRepresentation": 0,
      "PixelSpacing": [2.0, 2.0],
      "ProtocolName": "func_task-mario_run-03",
      "RepetitionTime": 1490.0,
      "RescaleIntercept": -4096.0,
      "RescaleSlope": 2.0,
      "RescaleType": "US",
      "Rows": 832,
      "SAR": 0.04530451043177,
      "SamplesPerPixel": 1,
      "ScanOptions": "FS",
      "ScanningSequence": "EP",
      "SequenceName": "epfid2d1_104",
      "SequenceVariant": [
        "SK",
        "SS"
],
      "SeriesDescription": "func_task-mario_run-03",
      "SeriesNumber": 17,
      "SeriesTime": "161838.825000",
      "SliceLocation": -37.356000285448,
      "SliceThickness": 2.0,
      "SmallestImagePixelValue": 0,
      "SoftwareVersions": "syngo MR E11",
      "SpacingBetweenSlices": 2.000000034014,
      "SpecificCharacterSet": "ISO_IR 100",
      "StudyID": "1",
      "StudyTime": "151002.312000",
      "TransmitCoilName": "Body",
      "VariableFlipAngleFlag": "N",
      "WindowCenterWidthExplanation": "Algo1",
      "dBdt": 0.0},
    "slices": {}
  },
  "time": {
    "samples": {
      "AcquisitionNumber": [1, 2, 3, 4, 5, 6, 7, 8, 9, 10, 11, 12, 13, 14, 15, 16, 17, 18, 19, 20, 21, 22, 23, 24, 25, 26, 27, 28, 29, 30, 31, 32, 33, 34, 35, 36, 37, 38, 39, 40, 41, 42, 43, 44, 45, 46, 47, 48, 49, 50, 51, 52, 53, 54, 55, 56, 57, 58, 59, 60, 61, 62, 63, 64, 65, 66, 67, 68, 69, 70, 71, 72, 73, 74, 75, 76, 77, 78, 79, 80, 81, 82, 83, 84, 85, 86, 87, 88, 89, 90, 91, 92, 93, 94, 95, 96, 97, 98, 99, 100, 101, 102, 103, 104, 105, 106, 107, 108, 109, 110, 111, 112, 113, 114, 115, 116, 117, 118, 119, 120, 121, 122, 123, 124, 125, 126, 127, 128, 129, 130, 131, 132, 133, 134, 135, 136, 137, 138, 139, 140, 141, 142, 143, 144, 145, 146, 147, 148, 149, 150, 151, 152, 153, 154, 155, 156, 157, 158, 159, 160, 161, 162, 163, 164, 165, 166, 167, 168, 169, 170, 171, 172, 173, 174, 175, 176, 177, 178, 179, 180, 181, 182, 183, 184, 185, 186, 187, 188, 189, 190, 191, 192, 193, 194, 195, 196, 197, 198, 199, 200, 201, 202, 203, 204, 205, 206, 207, 208, 209, 210, 211, 212, 213, 214, 215, 216, 217, 218, 219, 220, 221, 222, 223, 224, 225, 226, 227, 228, 229, 230, 231, 232, 233, 234, 235, 236, 237, 238, 239, 240, 241, 242, 243, 244, 245, 246, 247, 248, 249, 250, 251, 252, 253, 254, 255, 256, 257, 258, 259, 260, 261, 262, 263, 264, 265, 266, 267, 268, 269, 270, 271, 272, 273, 274, 275, 276, 277, 278, 279, 280, 281, 282, 283, 284, 285, 286, 287, 288, 289, 290, 291, 292, 293, 294, 295, 296, 297, 298, 299, 300, 301, 302, 303, 304, 305, 306, 307, 308, 309, 310, 311, 312, 313, 314, 315, 316, 317, 318, 319, 320, 321, 322, 323, 324, 325, 326, 327, 328, 329, 330, 331, 332, 333, 334, 335, 336, 337, 338, 339, 340, 341, 342, 343, 344, 345, 346, 347, 348, 349, 350, 351, 352, 353, 354, 355, 356, 357, 358, 359, 360, 361, 362, 363, 364, 365, 366, 367, 368, 369, 370, 371, 372, 373, 374, 375, 376, 377, 378, 379, 380, 381, 382, 383, 384, 385, 386, 387, 388, 389, 390, 391, 392, 393, 394, 395, 396, 397, 398, 399, 400, 401, 402, 403, 404, 405, 406, 407, 408, 409, 410, 411, 412, 413, 414, 415, 416, 417, 418, 419, 420, 421, 422, 423, 424, 425, 426, 427, 428, 429, 430, 431, 432, 433, 434, 435, 436, 437, 438, 439, 440, 441, 442, 443, 444, 445, 446, 447, 448],
      "AcquisitionTime": ["161715.835000", "161717.325000", "161718.815000", "161720.305000", "161721.795000", "161723.285000", "161724.775000", "161726.265000", "161727.755000", "161729.245000", "161730.735000", "161732.225000", "161733.715000", "161735.205000", "161736.695000", "161738.185000", "161739.675000", "161741.165000", "161742.655000", "161744.145000", "161745.635000", "161747.125000", "161748.615000", "161750.105000", "161751.595000", "161753.085000", "161754.575000", "161756.065000", "161757.555000", "161759.045000", "161800.535000", "161802.025000", "161803.515000", "161805.005000", "161806.495000", "161807.985000", "161809.475000", "161810.965000", "161812.455000", "161813.945000", "161815.435000", "161816.925000", "161818.415000", "161819.905000", "161821.395000", "161822.885000", "161824.375000", "161825.865000", "161827.355000", "161828.845000", "161830.335000", "161831.825000", "161833.315000", "161834.805000", "161836.295000", "161837.785000", "161839.275000", "161840.765000", "161842.255000", "161843.745000", "161845.235000", "161846.725000", "161848.215000", "161849.705000", "161851.195000", "161852.685000", "161854.175000", "161855.665000", "161857.155000", "161858.645000", "161900.135000", "161901.625000", "161903.115000", "161904.605000", "161906.095000", "161907.585000", "161909.075000", "161910.565000", "161912.055000", "161913.545000", "161915.035000", "161916.525000", "161918.015000", "161919.505000", "161920.995000", "161922.485000", "161923.975000", "161925.465000", "161926.955000", "161928.445000", "161929.935000", "161931.425000", "161932.915000", "161934.405000", "161935.895000", "161937.385000", "161938.875000", "161940.365000", "161941.855000", "161943.345000", "161944.835000", "161946.325000", "161947.815000", "161949.305000", "161950.795000", "161952.285000", "161953.775000", "161955.265000", "161956.755000", "161958.245000", "161959.735000", "162001.225000", "162002.715000", "162004.205000", "162005.695000", "162007.185000", "162008.675000", "162010.165000", "162011.655000", "162013.145000", "162014.635000", "162016.125000", "162017.615000", "162019.105000", "162020.595000", "162022.085000", "162023.575000", "162025.065000", "162026.555000", "162028.045000", "162029.535000", "162031.025000", "162032.515000", "162034.005000", "162035.495000", "162036.985000", "162038.475000", "162039.965000", "162041.455000", "162042.945000", "162044.435000", "162045.925000", "162047.415000", "162048.905000", "162050.395000", "162051.885000", "162053.375000", "162054.865000", "162056.355000", "162057.845000", "162059.335000", "162100.825000", "162102.315000", "162103.805000", "162105.295000", "162106.785000", "162108.275000", "162109.765000", "162111.255000", "162112.745000", "162114.235000", "162115.725000", "162117.215000", "162118.705000", "162120.195000", "162121.685000", "162123.175000", "162124.665000", "162126.155000", "162127.645000", "162129.135000", "162130.625000", "162132.115000", "162133.605000", "162135.095000", "162136.585000", "162138.075000", "162139.565000", "162141.055000", "162142.545000", "162144.035000", "162145.525000", "162147.015000", "162148.505000", "162149.995000", "162151.485000", "162152.975000", "162154.465000", "162155.955000", "162157.445000", "162158.935000", "162200.425000", "162201.915000", "162203.405000", "162204.895000", "162206.385000", "162207.875000", "162209.365000", "162210.855000", "162212.345000", "162213.835000", "162215.325000", "162216.815000", "162218.305000", "162219.795000", "162221.285000", "162222.775000", "162224.265000", "162225.755000", "162227.245000", "162228.735000", "162230.225000", "162231.715000", "162233.205000", "162234.695000", "162236.185000", "162237.675000", "162239.165000", "162240.655000", "162242.145000", "162243.635000", "162245.125000", "162246.615000", "162248.105000", "162249.595000", "162251.085000", "162252.575000", "162254.065000", "162255.555000", "162257.045000", "162258.535000", "162300.025000", "162301.515000", "162303.005000", "162304.495000", "162305.985000", "162307.475000", "162308.965000", "162310.455000", "162311.945000", "162313.435000", "162314.925000", "162316.415000", "162317.905000", "162319.395000", "162320.885000", "162322.375000", "162323.865000", "162325.355000", "162326.845000", "162328.335000", "162329.825000", "162331.315000", "162332.805000", "162334.295000", "162335.785000", "162337.275000", "162338.765000", "162340.255000", "162341.745000", "162343.235000", "162344.725000", "162346.215000", "162347.705000", "162349.195000", "162350.685000", "162352.175000", "162353.665000", "162355.155000", "162356.645000", "162358.135000", "162359.625000", "162401.115000", "162402.605000", "162404.095000", "162405.585000", "162407.075000", "162408.565000", "162410.055000", "162411.545000", "162413.035000", "162414.525000", "162416.015000", "162417.505000", "162418.995000", "162420.485000", "162421.975000", "162423.465000", "162424.955000", "162426.445000", "162427.935000", "162429.425000", "162430.915000", "162432.405000", "162433.895000", "162435.385000", "162436.875000", "162438.365000", "162439.855000", "162441.345000", "162442.835000", "162444.325000", "162445.815000", "162447.305000", "162448.795000", "162450.285000", "162451.775000", "162453.265000", "162454.755000", "162456.245000", "162457.735000", "162459.225000", "162500.715000", "162502.205000", "162503.695000", "162505.185000", "162506.675000", "162508.165000", "162509.655000", "162511.145000", "162512.635000", "162514.125000", "162515.615000", "162517.105000", "162518.595000", "162520.085000", "162521.575000", "162523.065000", "162524.555000", "162526.045000", "162527.535000", "162529.025000", "162530.515000", "162532.005000", "162533.495000", "162534.985000", "162536.475000", "162537.965000", "162539.455000", "162540.945000", "162542.435000", "162543.925000", "162545.415000", "162546.905000", "162548.395000", "162549.885000", "162551.375000", "162552.865000", "162554.355000", "162555.845000", "162557.335000", "162558.825000", "162600.315000", "162601.805000", "162603.295000", "162604.785000", "162606.275000", "162607.765000", "162609.255000", "162610.745000", "162612.235000", "162613.725000", "162615.215000", "162616.705000", "162618.195000", "162619.685000", "162621.175000", "162622.665000", "162624.155000", "162625.645000", "162627.135000", "162628.625000", "162630.115000", "162631.605000", "162633.095000", "162634.585000", "162636.075000", "162637.565000", "162639.055000", "162640.545000", "162642.035000", "162643.525000", "162645.015000", "162646.505000", "162647.995000", "162649.485000", "162650.975000", "162652.465000", "162653.955000", "162655.445000", "162656.935000", "162658.425000", "162659.915000", "162701.405000", "162702.895000", "162704.385000", "162705.875000", "162707.365000", "162708.855000", "162710.345000", "162711.835000", "162713.325000", "162714.815000", "162716.305000", "162717.795000", "162719.285000", "162720.775000", "162722.265000", "162723.755000", "162725.245000", "162726.735000", "162728.225000", "162729.715000", "162731.205000", "162732.695000", "162734.185000", "162735.675000", "162737.165000", "162738.655000", "162740.145000", "162741.635000", "162743.125000", "162744.615000", "162746.105000", "162747.595000", "162749.085000", "162750.575000", "162752.065000", "162753.555000", "162755.045000", "162756.535000", "162758.025000", "162759.515000", "162801.005000", "162802.495000", "162803.985000", "162805.475000", "162806.965000", "162808.455000", "162809.945000", "162811.435000", "162812.925000", "162814.415000", "162815.905000", "162817.395000", "162818.885000", "162820.375000", "162821.865000"],
      "ContentTime": ["161838.827000", "161838.830000", "161838.832000", "161838.835000", "161838.837000", "161838.840000", "161838.843000", "161838.845000", "161838.848000", "161838.850000", "161838.853000", "161838.855000", "161838.858000", "161838.860000", "161838.863000", "161838.865000", "161838.868000", "161838.871000", "161838.873000", "161838.876000", "161838.878000", "161838.881000", "161838.883000", "161838.886000", "161838.888000", "161838.891000", "161838.893000", "161858.727000", "161858.730000", "161858.732000", "161858.735000", "161858.737000", "161858.740000", "161858.742000", "161858.745000", "161858.747000", "161858.750000", "161858.753000", "161858.757000", "161858.759000", "161858.762000", "161858.764000", "161858.767000", "161858.769000", "161858.772000", "161858.775000", "161858.777000", "161918.749000", "161918.752000", "161918.754000", "161918.757000", "161918.759000", "161918.762000", "161918.773000", "161918.775000", "161918.778000", "161918.780000", "161918.783000", "161918.785000", "161918.788000", "161918.790000", "161918.793000", "161918.795000", "161918.798000", "161918.801000", "161918.803000", "161918.806000", "161938.749000", "161938.752000", "161938.754000", "161938.757000", "161938.760000", "161938.762000", "161938.765000", "161938.767000", "161938.770000", "161938.772000", "161938.775000", "161938.778000", "161938.780000", "161938.783000", "161938.790000", "161938.793000", "161938.795000", "161938.798000", "161938.800000", "161938.803000", "161938.805000", "161958.725000", "161958.728000", "161958.730000", "161958.733000", "161958.735000", "161958.738000", "161958.740000", "161958.743000", "161958.745000", "161958.748000", "161958.751000", "161958.753000", "161958.756000", "161958.758000", "161958.761000", "161958.763000", "161958.766000", "161958.768000", "161958.771000", "161958.773000", "162038.784000", "162038.787000", "162038.789000", "162038.792000", "162038.794000", "162038.797000", "162038.800000", "162038.802000", "162038.805000", "162038.807000", "162038.810000", "162038.812000", "162038.815000", "162038.817000", "162038.820000", "162038.822000", "162038.825000", "162038.828000", "162038.830000", "162038.833000", "162038.835000", "162038.838000", "162038.840000", "162038.843000", "162038.845000", "162038.848000", "162038.851000", "162118.768000", "162118.771000", "162118.774000", "162118.776000", "162118.779000", "162118.782000", "162118.784000", "162118.787000", "162118.789000", "162118.792000", "162118.794000", "162118.797000", "162118.799000", "162118.802000", "162118.805000", "162118.807000", "162118.810000", "162118.812000", "162118.815000", "162118.817000", "162118.820000", "162118.822000", "162118.825000", "162118.827000", "162118.830000", "162118.832000", "162118.835000", "162159.210000", "162159.213000", "162159.216000", "162159.218000", "162159.221000", "162159.223000", "162159.226000", "162159.229000", "162159.231000", "162159.234000", "162159.236000", "162159.239000", "162159.241000", "162159.244000", "162159.247000", "162159.249000", "162159.252000", "162159.254000", "162159.257000", "162159.259000", "162159.262000", "162159.264000", "162159.267000", "162159.270000", "162159.272000", "162159.275000", "162159.277000", "162238.756000", "162238.759000", "162238.761000", "162238.764000", "162238.766000", "162238.769000", "162238.771000", "162238.774000", "162238.777000", "162238.779000", "162238.782000", "162238.784000", "162238.787000", "162238.789000", "162238.792000", "162238.795000", "162238.797000", "162238.800000", "162238.802000", "162238.805000", "162238.807000", "162238.810000", "162238.812000", "162238.815000", "162238.817000", "162238.820000", "162238.823000", "162318.786000", "162318.789000", "162318.792000", "162318.794000", "162318.797000", "162318.799000", "162318.802000", "162318.805000", "162318.807000", "162318.810000", "162318.812000", "162318.815000", "162318.817000", "162318.820000", "162318.822000", "162318.825000", "162318.827000", "162318.830000", "162318.833000", "162318.835000", "162318.838000", "162318.840000", "162318.843000", "162318.845000", "162318.848000", "162318.850000", "162358.765000", "162358.768000", "162358.771000", "162358.773000", "162358.776000", "162358.779000", "162358.781000", "162358.784000", "162358.786000", "162358.789000", "162358.791000", "162358.794000", "162358.796000", "162358.799000", "162358.803000", "162358.805000", "162358.808000", "162358.811000", "162358.813000", "162358.816000", "162358.818000", "162358.821000", "162358.823000", "162358.826000", "162358.829000", "162358.831000", "162358.834000", "162438.780000", "162438.783000", "162438.785000", "162438.788000", "162438.790000", "162438.793000", "162438.796000", "162438.798000", "162438.801000", "162438.803000", "162438.806000", "162438.808000", "162438.811000", "162438.813000", "162438.816000", "162438.818000", "162438.821000", "162438.824000", "162438.826000", "162438.829000", "162438.831000", "162438.834000", "162438.836000", "162438.839000", "162438.842000", "162438.844000", "162438.847000", "162518.775000", "162518.778000", "162518.780000", "162518.783000", "162518.785000", "162518.788000", "162518.791000", "162518.793000", "162518.796000", "162518.798000", "162518.801000", "162518.803000", "162518.806000", "162518.808000", "162518.811000", "162518.814000", "162518.816000", "162518.819000", "162518.821000", "162518.824000", "162518.826000", "162518.829000", "162518.832000", "162518.835000", "162518.837000", "162518.840000", "162518.842000", "162558.777000", "162558.780000", "162558.783000", "162558.785000", "162558.788000", "162558.791000", "162558.793000", "162558.796000", "162558.798000", "162558.801000", "162558.803000", "162558.806000", "162558.809000", "162558.811000", "162558.814000", "162558.816000", "162558.819000", "162558.821000", "162558.824000", "162558.826000", "162558.829000", "162558.831000", "162558.834000", "162558.837000", "162558.839000", "162558.842000", "162558.844000", "162638.769000", "162638.772000", "162638.775000", "162638.777000", "162638.780000", "162638.782000", "162638.785000", "162638.787000", "162638.790000", "162638.793000", "162638.795000", "162638.798000", "162638.800000", "162638.803000", "162638.805000", "162638.808000", "162638.810000", "162638.813000", "162638.815000", "162638.818000", "162638.820000", "162638.823000", "162638.826000", "162638.828000", "162638.831000", "162638.842000", "162638.845000", "162718.771000", "162718.774000", "162718.777000", "162718.780000", "162718.782000", "162718.785000", "162718.787000", "162718.790000", "162718.792000", "162718.795000", "162718.797000", "162718.800000", "162718.802000", "162718.805000", "162718.808000", "162718.810000", "162718.813000", "162718.815000", "162718.818000", "162718.820000", "162718.823000", "162718.825000", "162718.828000", "162718.830000", "162718.833000", "162718.836000", "162718.838000", "162758.757000", "162758.760000", "162758.762000", "162758.765000", "162758.768000", "162758.770000", "162758.773000", "162758.775000", "162758.778000", "162758.780000", "162758.783000", "162758.785000", "162758.788000", "162758.791000", "162758.793000", "162758.796000", "162758.798000", "162758.801000", "162758.803000", "162758.806000", "162758.809000", "162758.812000", "162758.814000", "162758.818000", "162758.821000", "162758.824000", "162825.287000", "162825.290000", "162825.293000", "162825.295000", "162825.298000", "162825.301000", "162825.303000", "162825.306000", "162825.308000", "162825.311000", "162825.313000", "162825.316000", "162825.319000", "162825.321000", "162825.324000", "162825.326000", "162825.329000", "162825.331000"],
