{
  "AcquisitionMatrixPE": 104,
  "AcquisitionNumber": 1,
  "AcquisitionTime": "16:29:52.837500",
  "BandwidthPerPixelPhaseEncode": 17.17,
  "BaseResolution": 104,
  "BodyPartExamined": "BRAIN",
  "CoilString": "HC1-7;NC1_2",
  "ConsistencyInfo": "N4_VE11C_LATEST_20160120",
  "ConversionSoftware": "dcm2niix",
  "ConversionSoftwareVersion": "v1.0.20190902",
  "DerivedVendorReportedEchoSpacing": 0.000560011,
  "DeviceSerialNumber": "167006",
  "DwellTime": 2.1e-06,
  "EchoTime": 0.037,
  "EchoTrainLength": 104,
  "EffectiveEchoSpacing": 0.000560011,
  "FlipAngle": 52,
  "HeudiconvVersion": "0.10.0",
  "ImageComments": "Unaliased_MB4_PE3_LB",
  "ImageOrientationPatientDICOM": [0.999754, -0.0216468, 0.00482315, 0.0219893, 0.939255, -0.342516],
  "ImageType": [
    "ORIGINAL",
    "PRIMARY",
    "M",
    "MB",
    "ND",
    "MOSAIC"
],
  "ImagingFrequency": 123.259,
  "InPlanePhaseEncodingDirectionDICOM": "COL",
  "InstitutionAddress": "Chemin_Queen-Mary_4565_Montreal_District_CA_H3W_1W5",
  "InstitutionName": "IUGM",
  "InstitutionalDepartmentName": "Department",
  "MRAcquisitionType": "2D",
  "MagneticFieldStrength": 3,
  "Manufacturer": "Siemens",
  "ManufacturersModelName": "Prisma_fit",
  "Modality": "MR",
  "MultibandAccelerationFactor": 4,
  "PartialFourier": 1,
  "PatientPosition": "HFS",
  "PercentPhaseFOV": 100,
  "PhaseEncodingDirection": "j",
  "PhaseEncodingSteps": 104,
  "PhaseResolution": 1,
  "PixelBandwidth": 2290,
  "ProcedureStepDescription": "games_mario",
  "ProtocolName": "func_task-mario_run-04",
  "PulseSequenceDetails": "%CustomerSeq%_cmrr_mbep2d_bold",
  "ReceiveCoilActiveElements": "HC1-7;NC1,2",
  "ReceiveCoilName": "HeadNeck_64",
  "ReconMatrixPE": 104,
  "RepetitionTime": 1.49,
  "SAR": 0.0453045,
  "ScanOptions": "FS",
  "ScanningSequence": "EP",
  "SequenceName": "epfid2d1_104",
  "SequenceVariant": "SK_SS",
  "SeriesDescription": "func_task-mario_run-04",
  "SeriesNumber": 19,
  "ShimSetting": [627, -7253, -8824, 580, 17, -196, -75, -12],
  "SliceThickness": 2,
  "SliceTiming": [0, 0.785, 0.1, 0.8825, 0.1975, 0.98, 0.295, 1.08, 0.3925, 1.1775, 0.49, 1.275, 0.59, 1.3725, 0.6875, 0, 0.785, 0.1, 0.8825, 0.1975, 0.98, 0.295, 1.08, 0.3925, 1.1775, 0.49, 1.275, 0.59, 1.3725, 0.6875, 0, 0.785, 0.1, 0.8825, 0.1975, 0.98, 0.295, 1.08, 0.3925, 1.1775, 0.49, 1.275, 0.59, 1.3725, 0.6875, 0, 0.785, 0.1, 0.8825, 0.1975, 0.98, 0.295, 1.08, 0.3925, 1.1775, 0.49, 1.275, 0.59, 1.3725, 0.6875],
  "SoftwareVersions": "syngo_MR_E11",
  "SpacingBetweenSlices": 2,
  "StationName": "MRC35049",
  "TaskName": "mario",
  "TotalReadoutTime": 0.0576811,
  "TxRefAmp": 242.856,
  "WipMemBlock": "ded56863-dd8e-4188-bd1c-f200e0685b5f||Sequence: R016 ve11c/master r/e634e98; Dec 19 2017 11:00:25 by eja",
  "dcmmeta_affine": [
    [-1.9995081424713135, 0.04397851601243019, -0.005768405739217997, 104.25056457519531],
    [0.04329356923699379, 1.8785094022750854, -0.6850754022598267, -66.92291259765625],
    [0.009646297432482243, 0.6850317716598511, 1.8789993524551392, -63.841365814208984],
    [0.0, 0.0, 0.0, 1.0]
],
  "dcmmeta_reorient_transform": [
    [0.0, -1.0, 0.0, 103.0],
    [1.0, 0.0, 0.0, 0.0],
    [0.0, 0.0, 1.0, 0.0],
    [0.0, 0.0, 0.0, 1.0]
],
  "dcmmeta_shape": [104, 104, 60, 437],
  "dcmmeta_slice_dim": 2,
  "dcmmeta_version": 0.6,
  "global": {
    "const": {
      "AcquisitionMatrix": [104, 0, 0, 104],
      "AngioFlag": "N",
      "BitsAllocated": 16,
      "BitsStored": 16,
      "BodyPartExamined": "BRAIN",
      "Columns": 832,
      "EchoNumbers": 1,
      "EchoTime": 37.0,
      "EchoTrainLength": 104,
      "FlipAngle": 52.0,
      "HighBit": 15,
      "ImageOrientationPatient": [0.99975404671812, -0.0216467851854, 0.0048231485444, 0.02198925749045, 0.93925467598691, -0.3425158772842],
      "ImagePositionPatient": [-852.60947707707, -794.58209699502, 252.55721310444],
      "ImageType": [
        "ORIGINAL",
        "PRIMARY",
        "M",
        "MB",
        "ND",
        "MOSAIC"
],
      "ImagedNucleus": "1H",
      "ImagingFrequency": 123.258885,
      "InPlanePhaseEncodingDirection": "COL",
      "MRAcquisitionType": "2D",
      "MagneticFieldStrength": 3.0,
      "Manufacturer": "SIEMENS",
      "ManufacturerModelName": "Prisma_fit",
      "Modality": "MR",
      "NumberOfAverages": 1.0,
      "NumberOfPhaseEncodingSteps": 104,
      "PercentPhaseFieldOfView": 100.0,
      "PercentSampling": 100.0,
      "PerformedProcedureStepStartTime": "151002.367000",
      "PhotometricInterpretation": "MONOCHROME2",
      "PixelBandwidth": 2290.0,
      "PixelRepresentation": 0,
      "PixelSpacing": [2.0, 2.0],
      "ProtocolName": "func_task-mario_run-04",
      "RepetitionTime": 1490.0,
      "Rows": 832,
      "SAR": 0.04530451043177,
      "SamplesPerPixel": 1,
      "ScanOptions": "FS",
      "ScanningSequence": "EP",
      "SequenceName": "epfid2d1_104",
      "SequenceVariant": [
        "SK",
        "SS"
],
      "SeriesDescription": "func_task-mario_run-04",
      "SeriesNumber": 19,
      "SeriesTime": "163124.636000",
      "SliceLocation": -37.356000285448,
      "SliceThickness": 2.0,
      "SmallestImagePixelValue": 0,
      "SoftwareVersions": "syngo MR E11",
      "SpacingBetweenSlices": 2.000000034014,
      "SpecificCharacterSet": "ISO_IR 100",
      "StudyID": "1",
      "StudyTime": "151002.312000",
      "TransmitCoilName": "Body",
      "VariableFlipAngleFlag": "N",
      "WindowCenterWidthExplanation": "Algo1",
      "dBdt": 0.0},
    "slices": {}
  },
  "time": {
    "samples": {
      "AcquisitionNumber": [1, 2, 3, 4, 5, 6, 7, 8, 9, 10, 11, 12, 13, 14, 15, 16, 17, 18, 19, 20, 21, 22, 23, 24, 25, 26, 27, 28, 29, 30, 31, 32, 33, 34, 35, 36, 37, 38, 39, 40, 41, 42, 43, 44, 45, 46, 47, 48, 49, 50, 51, 52, 53, 54, 55, 56, 57, 58, 59, 60, 61, 62, 63, 64, 65, 66, 67, 68, 69, 70, 71, 72, 73, 74, 75, 76, 77, 78, 79, 80, 81, 82, 83, 84, 85, 86, 87, 88, 89, 90, 91, 92, 93, 94, 95, 96, 97, 98, 99, 100, 101, 102, 103, 104, 105, 106, 107, 108, 109, 110, 111, 112, 113, 114, 115, 116, 117, 118, 119, 120, 121, 122, 123, 124, 125, 126, 127, 128, 129, 130, 131, 132, 133, 134, 135, 136, 137, 138, 139, 140, 141, 142, 143, 144, 145, 146, 147, 148, 149, 150, 151, 152, 153, 154, 155, 156, 157, 158, 159, 160, 161, 162, 163, 164, 165, 166, 167, 168, 169, 170, 171, 172, 173, 174, 175, 176, 177, 178, 179, 180, 181, 182, 183, 184, 185, 186, 187, 188, 189, 190, 191, 192, 193, 194, 195, 196, 197, 198, 199, 200, 201, 202, 203, 204, 205, 206, 207, 208, 209, 210, 211, 212, 213, 214, 215, 216, 217, 218, 219, 220, 221, 222, 223, 224, 225, 226, 227, 228, 229, 230, 231, 232, 233, 234, 235, 236, 237, 238, 239, 240, 241, 242, 243, 244, 245, 246, 247, 248, 249, 250, 251, 252, 253, 254, 255, 256, 257, 258, 259, 260, 261, 262, 263, 264, 265, 266, 267, 268, 269, 270, 271, 272, 273, 274, 275, 276, 277, 278, 279, 280, 281, 282, 283, 284, 285, 286, 287, 288, 289, 290, 291, 292, 293, 294, 295, 296, 297, 298, 299, 300, 301, 302, 303, 304, 305, 306, 307, 308, 309, 310, 311, 312, 313, 314, 315, 316, 317, 318, 319, 320, 321, 322, 323, 324, 325, 326, 327, 328, 329, 330, 331, 332, 333, 334, 335, 336, 337, 338, 339, 340, 341, 342, 343, 344, 345, 346, 347, 348, 349, 350, 351, 352, 353, 354, 355, 356, 357, 358, 359, 360, 361, 362, 363, 364, 365, 366, 367, 368, 369, 370, 371, 372, 373, 374, 375, 376, 377, 378, 379, 380, 381, 382, 383, 384, 385, 386, 387, 388, 389, 390, 391, 392, 393, 394, 395, 396, 397, 398, 399, 400, 401, 402, 403, 404, 405, 406, 407, 408, 409, 410, 411, 412, 413, 414, 415, 416, 417, 418, 419, 420, 421, 422, 423, 424, 425, 426, 427, 428, 429, 430, 431, 432, 433, 434, 435, 436, 437],
      "AcquisitionTime": ["162952.837500", "162954.327500", "162955.817500", "162957.307500", "162958.797500", "163000.287500", "163001.777500", "163003.267500", "163004.757500", "163006.247500", "163007.737500", "163009.227500", "163010.717500", "163012.207500", "163013.697500", "163015.187500", "163016.677500", "163018.167500", "163019.657500", "163021.147500", "163022.637500", "163024.127500", "163025.617500", "163027.107500", "163028.597500", "163030.087500", "163031.577500", "163033.067500", "163034.557500", "163036.047500", "163037.537500", "163039.027500", "163040.517500", "163042.007500", "163043.497500", "163044.987500", "163046.477500", "163047.967500", "163049.457500", "163050.947500", "163052.437500", "163053.927500", "163055.417500", "163056.907500", "163058.397500", "163059.887500", "163101.377500", "163102.867500", "163104.357500", "163105.847500", "163107.337500", "163108.827500", "163110.317500", "163111.807500", "163113.297500", "163114.787500", "163116.277500", "163117.767500", "163119.257500", "163120.747500", "163122.237500", "163123.727500", "163125.217500", "163126.707500", "163128.197500", "163129.687500", "163131.177500", "163132.667500", "163134.157500", "163135.647500", "163137.137500", "163138.627500", "163140.117500", "163141.607500", "163143.097500", "163144.587500", "163146.077500", "163147.567500", "163149.057500", "163150.547500", "163152.037500", "163153.527500", "163155.017500", "163156.507500", "163157.997500", "163159.487500", "163200.977500", "163202.467500", "163203.957500", "163205.447500", "163206.937500", "163208.427500", "163209.917500", "163211.407500", "163212.897500", "163214.387500", "163215.877500", "163217.367500", "163218.857500", "163220.347500", "163221.837500", "163223.327500", "163224.817500", "163226.307500", "163227.797500", "163229.287500", "163230.777500", "163232.267500", "163233.757500", "163235.247500", "163236.737500", "163238.227500", "163239.717500", "163241.207500", "163242.697500", "163244.187500", "163245.677500", "163247.167500", "163248.657500", "163250.147500", "163251.637500", "163253.127500", "163254.617500", "163256.107500", "163257.597500", "163259.087500", "163300.577500", "163302.067500", "163303.557500", "163305.047500", "163306.537500", "163308.027500", "163309.517500", "163311.007500", "163312.497500", "163313.987500", "163315.477500", "163316.967500", "163318.457500", "163319.947500", "163321.437500", "163322.927500", "163324.417500", "163325.907500", "163327.397500", "163328.887500", "163330.377500", "163331.867500", "163333.357500", "163334.847500", "163336.337500", "163337.827500", "163339.317500", "163340.807500", "163342.297500", "163343.787500", "163345.277500", "163346.767500", "163348.257500", "163349.747500", "163351.237500", "163352.727500", "163354.217500", "163355.707500", "163357.197500", "163358.687500", "163400.177500", "163401.667500", "163403.157500", "163404.647500", "163406.137500", "163407.627500", "163409.117500", "163410.607500", "163412.097500", "163413.587500", "163415.077500", "163416.567500", "163418.057500", "163419.547500", "163421.037500", "163422.527500", "163424.017500", "163425.507500", "163426.997500", "163428.487500", "163429.977500", "163431.467500", "163432.957500", "163434.447500", "163435.937500", "163437.427500", "163438.917500", "163440.407500", "163441.897500", "163443.387500", "163444.877500", "163446.367500", "163447.857500", "163449.347500", "163450.837500", "163452.327500", "163453.817500", "163455.307500", "163456.797500", "163458.287500", "163459.777500", "163501.267500", "163502.757500", "163504.247500", "163505.737500", "163507.227500", "163508.717500", "163510.207500", "163511.697500", "163513.187500", "163514.677500", "163516.167500", "163517.657500", "163519.147500", "163520.637500", "163522.127500", "163523.617500", "163525.107500", "163526.597500", "163528.087500", "163529.577500", "163531.067500", "163532.557500", "163534.047500", "163535.537500", "163537.027500", "163538.517500", "163540.007500", "163541.497500", "163542.987500", "163544.477500", "163545.967500", "163547.457500", "163548.947500", "163550.437500", "163551.927500", "163553.417500", "163554.907500", "163556.397500", "163557.887500", "163559.377500", "163600.867500", "163602.357500", "163603.847500", "163605.337500", "163606.827500", "163608.317500", "163609.807500", "163611.297500", "163612.787500", "163614.277500", "163615.767500", "163617.257500", "163618.747500", "163620.237500", "163621.727500", "163623.217500", "163624.707500", "163626.197500", "163627.687500", "163629.177500", "163630.667500", "163632.157500", "163633.647500", "163635.137500", "163636.627500", "163638.117500", "163639.607500", "163641.097500", "163642.587500", "163644.077500", "163645.567500", "163647.057500", "163648.547500", "163650.037500", "163651.527500", "163653.017500", "163654.507500", "163655.997500", "163657.487500", "163658.977500", "163700.467500", "163701.957500", "163703.447500", "163704.937500", "163706.427500", "163707.917500", "163709.407500", "163710.897500", "163712.387500", "163713.877500", "163715.367500", "163716.857500", "163718.347500", "163719.837500", "163721.327500", "163722.817500", "163724.307500", "163725.797500", "163727.287500", "163728.777500", "163730.267500", "163731.757500", "163733.247500", "163734.737500", "163736.227500", "163737.717500", "163739.207500", "163740.697500", "163742.187500", "163743.677500", "163745.167500", "163746.657500", "163748.147500", "163749.637500", "163751.127500", "163752.617500", "163754.107500", "163755.597500", "163757.087500", "163758.577500", "163800.067500", "163801.557500", "163803.047500", "163804.537500", "163806.027500", "163807.517500", "163809.007500", "163810.497500", "163811.987500", "163813.477500", "163814.967500", "163816.457500", "163817.947500", "163819.437500", "163820.927500", "163822.417500", "163823.907500", "163825.397500", "163826.887500", "163828.377500", "163829.867500", "163831.357500", "163832.847500", "163834.337500", "163835.827500", "163837.317500", "163838.807500", "163840.297500", "163841.787500", "163843.277500", "163844.767500", "163846.257500", "163847.747500", "163849.237500", "163850.727500", "163852.217500", "163853.707500", "163855.197500", "163856.687500", "163858.177500", "163859.667500", "163901.157500", "163902.647500", "163904.137500", "163905.627500", "163907.117500", "163908.607500", "163910.097500", "163911.587500", "163913.077500", "163914.567500", "163916.057500", "163917.547500", "163919.037500", "163920.527500", "163922.017500", "163923.507500", "163924.997500", "163926.487500", "163927.977500", "163929.467500", "163930.957500", "163932.447500", "163933.937500", "163935.427500", "163936.917500", "163938.407500", "163939.897500", "163941.387500", "163942.877500", "163944.367500", "163945.857500", "163947.347500", "163948.837500", "163950.327500", "163951.817500", "163953.307500", "163954.797500", "163956.287500", "163957.777500", "163959.267500", "164000.757500", "164002.247500", "164003.737500", "164005.227500", "164006.717500", "164008.207500", "164009.697500", "164011.187500", "164012.677500", "164014.167500", "164015.657500", "164017.147500", "164018.637500", "164020.127500", "164021.617500", "164023.107500", "164024.597500", "164026.087500", "164027.577500", "164029.067500", "164030.557500", "164032.047500", "164033.537500", "164035.027500", "164036.517500", "164038.007500", "164039.497500", "164040.987500", "164042.477500"],
      "ContentTime": ["163124.639000", "163124.643000", "163124.646000", "163124.650000", "163124.653000", "163124.657000", "163124.660000", "163124.664000", "163124.676000", "163124.680000", "163124.683000", "163124.686000", "163124.690000", "163124.693000", "163124.697000", "163124.700000", "163124.703000", "163124.707000", "163124.710000", "163124.714000", "163124.717000", "163124.721000", "163124.724000", "163124.727000", "163124.731000", "163124.734000", "163124.738000", "163124.741000", "163124.745000", "163124.748000", "163124.751000", "163124.755000", "163124.758000", "163124.762000", "163124.765000", "163124.769000", "163124.781000", "163124.785000", "163144.604000", "163144.608000", "163144.611000", "163144.615000", "163144.618000", "163144.622000", "163144.625000", "163144.628000", "163144.632000", "163144.635000", "163144.639000", "163144.642000", "163144.646000", "163144.649000", "163144.653000", "163144.656000", "163144.660000", "163144.669000", "163144.672000", "163144.676000", "163144.679000", "163204.604000", "163204.608000", "163204.611000", "163204.615000", "163204.618000", "163204.622000", "163204.625000", "163204.629000", "163204.632000", "163204.636000", "163204.639000", "163204.643000", "163204.646000", "163204.649000", "163204.653000", "163204.656000", "163204.660000", "163204.663000", "163204.666000", "163204.670000", "163224.604000", "163224.608000", "163224.611000", "163224.615000", "163224.618000", "163224.622000", "163224.625000", "163224.629000", "163224.632000", "163224.635000", "163224.639000", "163224.642000", "163224.646000", "163224.649000", "163224.652000", "163224.656000", "163224.659000", "163224.663000", "163224.666000", "163224.670000", "163304.605000", "163304.609000", "163304.613000", "163304.617000", "163304.620000", "163304.624000", "163304.627000", "163304.631000", "163304.634000", "163304.637000", "163304.641000", "163304.644000", "163304.648000", "163304.651000", "163304.654000", "163304.658000", "163304.661000", "163304.665000", "163304.668000", "163304.672000", "163304.675000", "163304.679000", "163304.682000", "163304.685000", "163304.689000", "163304.692000", "163304.696000", "163304.699000", "163304.702000", "163344.604000", "163344.608000", "163344.611000", "163344.616000", "163344.619000", "163344.623000", "163344.626000", "163344.630000", "163344.633000", "163344.637000", "163344.640000", "163344.644000", "163344.647000", "163344.650000", "163344.654000", "163344.657000", "163344.661000", "163344.664000", "163344.668000", "163344.671000", "163344.675000", "163344.678000", "163344.682000", "163344.685000", "163344.688000", "163344.692000", "163424.605000", "163424.608000", "163424.612000", "163424.615000", "163424.618000", "163424.622000", "163424.625000", "163424.629000", "163424.632000", "163424.636000", "163424.639000", "163424.643000", "163424.646000", "163424.650000", "163424.653000", "163424.656000", "163424.660000", "163424.663000", "163424.667000", "163424.670000", "163424.673000", "163424.677000", "163424.680000", "163424.684000", "163424.687000", "163424.690000", "163424.694000", "163504.604000", "163504.608000", "163504.612000", "163504.615000", "163504.619000", "163504.622000", "163504.626000", "163504.629000", "163504.633000", "163504.637000", "163504.641000", "163504.645000", "163504.648000", "163504.652000", "163504.655000", "163504.659000", "163504.662000", "163504.665000", "163504.669000", "163504.672000", "163504.676000", "163504.679000", "163504.683000", "163504.686000", "163504.689000", "163504.693000", "163504.696000", "163544.605000", "163544.609000", "163544.613000", "163544.616000", "163544.619000", "163544.623000", "163544.626000", "163544.630000", "163544.633000", "163544.637000", "163544.640000", "163544.643000", "163544.647000", "163544.650000", "163544.654000", "163544.657000", "163544.661000", "163544.664000", "163544.667000", "163544.671000", "163544.688000", "163544.691000", "163544.695000", "163544.698000", "163544.701000", "163544.705000", "163544.708000", "163624.604000", "163624.608000", "163624.612000", "163624.615000", "163624.619000", "163624.622000", "163624.625000", "163624.629000", "163624.632000", "163624.636000", "163624.639000", "163624.643000", "163624.646000", "163624.650000", "163624.653000", "163624.656000", "163624.660000", "163624.663000", "163624.667000", "163624.670000", "163624.674000", "163624.677000", "163624.680000", "163624.684000", "163624.687000", "163624.691000", "163624.694000", "163704.604000", "163704.608000", "163704.612000", "163704.615000", "163704.619000", "163704.622000", "163704.625000", "163704.629000", "163704.632000", "163704.636000", "163704.639000", "163704.643000", "163704.647000", "163704.650000", "163704.653000", "163704.657000", "163704.660000", "163704.664000", "163704.667000", "163704.671000", "163704.675000", "163704.679000", "163704.682000", "163704.686000", "163704.689000", "163704.692000", "163704.696000", "163744.605000", "163744.609000", "163744.613000", "163744.616000", "163744.620000", "163744.623000", "163744.627000", "163744.630000", "163744.634000", "163744.637000", "163744.641000", "163744.645000", "163744.648000", "163744.652000", "163744.655000", "163744.658000", "163744.662000", "163744.665000", "163744.669000", "163744.672000", "163744.676000", "163744.679000", "163744.683000", "163744.686000", "163744.690000", "163744.693000", "163824.604000", "163824.608000", "163824.611000", "163824.615000", "163824.618000", "163824.639000", "163824.642000", "163824.646000", "163824.649000", "163824.653000", "163824.656000", "163824.659000", "163824.663000", "163824.666000", "163824.670000", "163824.673000", "163824.677000", "163824.680000", "163824.683000", "163824.687000", "163824.690000", "163824.694000", "163824.697000", "163824.701000", "163824.704000", "163824.708000", "163824.711000", "163904.604000", "163904.608000", "163904.612000", "163904.615000", "163904.619000", "163904.622000", "163904.626000", "163904.629000", "163904.633000", "163904.636000", "163904.640000", "163904.643000", "163904.647000", "163904.650000", "163904.654000", "163904.657000", "163904.660000", "163904.664000", "163904.667000", "163904.671000", "163904.675000", "163904.679000", "163904.682000", "163904.685000", "163904.689000", "163904.692000", "163904.696000", "163944.605000", "163944.608000", "163944.612000", "163944.615000", "163944.618000", "163944.622000", "163944.625000", "163944.629000", "163944.632000", "163944.636000", "163944.639000", "163944.643000", "163944.646000", "163944.649000", "163944.654000", "163944.657000", "163944.661000", "163944.664000", "163944.667000", "163944.671000", "163944.674000", "163944.678000", "163944.681000", "163944.685000", "163944.688000", "163944.691000", "163944.695000", "164024.605000", "164024.609000", "164024.613000", "164024.616000", "164024.619000", "164024.623000", "164024.626000", "164024.630000", "164024.633000", "164024.637000", "164024.640000", "164024.644000", "164024.647000", "164024.651000", "164024.654000", "164024.657000", "164024.661000", "164024.664000", "164024.668000", "164024.686000", "164024.690000", "164024.693000", "164024.697000", "164024.700000", "164024.704000", "164024.707000", "164024.710000", "164046.230000", "164046.234000", "164046.238000", "164046.241000", "164046.245000", "164046.248000", "164046.252000", "164046.255000", "164046.258000", "164046.262000", "164046.265000", "164046.269000", "164046.272000", "164046.276000"],
      "InstanceCreationTime": ["163124.639000", "163124.643000", "163124.646000", "163124.650000", "163124.653000", "163124.657000", "163124.660000", "163124.664000", "163124.676000", "163124.680000", "163124.683000", "163124.686000", "163124.690000", "163124.693000", "163124.697000", "163124.700000", "163124.703000", "163124.707000", "163124.710000", "163124.714000", "163124.717000", "163124.721000", "163124.724000", "163124.727000", "163124.731000", "163124.734000", "163124.738000", "163124.741000", "163124.745000", "163124.748000", "163124.751000", "163124.755000", "163124.758000", "163124.762000", "163124.765000", "163124.769000", "163124.781000", "163124.785000", "163144.604000", "163144.608000", "163144.611000", "163144.615000", "163144.618000", "163144.622000", "163144.625000", "163144.628000", "163144.632000", "163144.635000", "163144.639000", "163144.642000", "163144.646000", "163144.649000", "163144.653000", "163144.656000", "163144.660000", "163144.669000", "163144.672000", "163144.676000", "163144.679000", "163204.604000", "163204.608000", "163204.611000", "163204.615000", "163204.618000", "163204.622000", "163204.625000", "163204.629000", "163204.632000", "163204.636000", "163204.639000", "163204.643000", "163204.646000", "163204.649000", "163204.653000", "163204.656000", "163204.660000", "163204.663000", "163204.666000", "163204.670000", "163224.604000", "163224.608000", "163224.611000", "163224.615000", "163224.618000", "163224.622000", "163224.625000", "163224.629000", "163224.632000", "163224.635000", "163224.639000", "163224.642000", "163224.646000", "163224.649000", "163224.652000", "163224.656000", "163224.659000", "163224.663000", "163224.666000", "163224.670000", "163304.605000", "163304.609000", "163304.613000", "163304.617000", "163304.620000", "163304.624000", "163304.627000", "163304.631000", "163304.634000", "163304.637000", "163304.641000", "163304.644000", "163304.648000", "163304.651000", "163304.654000", "163304.658000", "163304.661000", "163304.665000", "163304.668000", "163304.672000", "163304.675000", "163304.679000", "163304.682000", "163304.685000", "163304.689000", "163304.692000", "163304.696000", "163304.699000", "163304.702000", "163344.604000", "163344.608000", "163344.611000", "163344.616000", "163344.619000", "163344.623000", "163344.626000", "163344.630000", "163344.633000", "163344.637000", "163344.640000", "163344.644000", "163344.647000", "163344.650000", "163344.654000", "163344.657000", "163344.661000", "163344.664000", "163344.668000", "163344.671000", "163344.675000", "163344.678000", "163344.682000", "163344.685000", "163344.688000", "163344.692000", "163424.605000", "163424.608000", "163424.612000", "163424.615000", "163424.618000", "163424.622000", "163424.625000", "163424.629000", "163424.632000", "163424.636000", "163424.639000", "163424.643000", "163424.646000", "163424.650000", "163424.653000", "163424.656000", "163424.660000", "163424.663000", "163424.667000", "163424.670000", "163424.673000", "163424.677000", "163424.680000", "163424.684000", "163424.687000", "163424.690000", "163424.694000", "163504.604000", "163504.608000", "163504.612000", "163504.615000", "163504.619000", "163504.622000", "163504.626000", "163504.629000", "163504.633000", "163504.637000", "163504.641000", "163504.645000", "163504.648000", "163504.652000", "163504.655000", "163504.659000", "163504.662000", "163504.665000", "163504.669000", "163504.672000", "163504.676000", "163504.679000", "163504.683000", "163504.686000", "163504.689000", "163504.693000", "163504.696000", "163544.605000", "163544.609000", "163544.613000", "163544.616000", "163544.619000", "163544.623000", "163544.626000", "163544.630000", "163544.633000", "163544.637000", "163544.640000", "163544.643000", "163544.647000", "163544.650000", "163544.654000", "163544.657000", "163544.661000", "163544.664000", "163544.667000", "163544.671000", "163544.688000", "163544.691000", "163544.695000", "163544.698000", "163544.701000", "163544.705000", "163544.708000", "163624.604000", "163624.608000", "163624.612000", "163624.615000", "163624.619000", "163624.622000", "163624.625000", "163624.629000", "163624.632000", "163624.636000", "163624.639000", "163624.643000", "163624.646000", "163624.650000", "163624.653000", "163624.656000", "163624.660000", "163624.663000", "163624.667000", "163624.670000", "163624.674000", "163624.677000", "163624.680000", "163624.684000", "163624.687000", "163624.691000", "163624.694000", "163704.604000", "163704.608000", "163704.612000", "163704.615000", "163704.619000", "163704.622000", "163704.625000", "163704.629000", "163704.632000", "163704.636000", "163704.639000", "163704.643000", "163704.647000", "163704.650000", "163704.653000", "163704.657000", "163704.660000", "163704.664000", "163704.667000", "163704.671000", "163704.675000", "163704.679000", "163704.682000", "163704.686000", "163704.689000", "163704.692000", "163704.696000", "163744.605000", "163744.609000", "163744.613000", "163744.616000", "163744.620000", "163744.623000", "163744.627000", "163744.630000", "163744.634000", "163744.637000", "163744.641000", "163744.645000", "163744.648000", "163744.652000", "163744.655000", "163744.658000", "163744.662000", "163744.665000", "163744.669000", "163744.672000", "163744.676000", "163744.679000", "163744.683000", "163744.686000", "163744.690000", "163744.693000", "163824.604000", "163824.608000", "163824.611000", "163824.615000", "163824.618000", "163824.639000", "163824.642000", "163824.646000", "163824.649000", "163824.653000", "163824.656000", "163824.659000", "163824.663000", "163824.666000", "163824.670000", "163824.673000", "163824.677000", "163824.680000", "163824.683000", "163824.687000", "163824.690000", "163824.694000", "163824.697000", "163824.701000", "163824.704000", "163824.708000", "163824.711000", "163904.604000", "163904.608000", "163904.612000", "163904.615000", "163904.619000", "163904.622000", "163904.626000", "163904.629000", "163904.633000", "163904.636000", "163904.640000", "163904.643000", "163904.647000", "163904.650000", "163904.654000", "163904.657000", "163904.660000", "163904.664000", "163904.667000", "163904.671000", "163904.675000", "163904.679000", "163904.682000", "163904.685000", "163904.689000", "163904.692000", "163904.696000", "163944.605000", "163944.608000", "163944.612000", "163944.615000", "163944.618000", "163944.622000", "163944.625000", "163944.629000", "163944.632000", "163944.636000", "163944.639000", "163944.643000", "163944.646000", "163944.649000", "163944.654000", "163944.657000", "163944.661000", "163944.664000", "163944.667000", "163944.671000", "163944.674000", "163944.678000", "163944.681000", "163944.685000", "163944.688000", "163944.691000", "163944.695000", "164024.605000", "164024.609000", "164024.613000", "164024.616000", "164024.619000", "164024.623000", "164024.626000", "164024.630000", "164024.633000", "164024.637000", "164024.640000", "164024.644000", "164024.647000", "164024.651000", "164024.654000", "164024.657000", "164024.661000", "164024.664000", "164024.668000", "164024.686000", "164024.690000", "164024.693000", "164024.697000", "164024.700000", "164024.704000", "164024.707000", "164024.710000", "164046.230000", "164046.234000", "164046.238000", "164046.241000", "164046.245000", "164046.248000", "164046.252000", "164046.255000", "164046.258000", "164046.262000", "164046.265000", "164046.269000", "164046.272000", "164046.276000"],
