{
  "AcquisitionMatrixPE": 104,
  "AcquisitionNumber": 1,
  "AcquisitionTime": "16:42:24.680000",
  "BandwidthPerPixelPhaseEncode": 17.17,
  "BaseResolution": 104,
  "BodyPartExamined": "BRAIN",
  "CoilString": "HC1-7;NC1_2",
  "ConsistencyInfo": "N4_VE11C_LATEST_20160120",
  "ConversionSoftware": "dcm2niix",
  "ConversionSoftwareVersion": "v1.0.20190902",
  "DerivedVendorReportedEchoSpacing": 0.000560011,
  "DeviceSerialNumber": "167006",
  "DwellTime": 2.1e-06,
  "EchoTime": 0.037,
  "EchoTrainLength": 104,
  "EffectiveEchoSpacing": 0.000560011,
  "FlipAngle": 52,
  "HeudiconvVersion": "0.10.0",
  "ImageComments": "Unaliased_MB4_PE3_LB",
  "ImageOrientationPatientDICOM": [0.999754, -0.0216468, 0.00482315, 0.0219893, 0.939255, -0.342516],
  "ImageType": [
    "ORIGINAL",
    "PRIMARY",
    "P",
    "MB",
    "ND",
    "MOSAIC"
],
  "ImagingFrequency": 123.259,
  "InPlanePhaseEncodingDirectionDICOM": "COL",
  "InstitutionAddress": "Chemin_Queen-Mary_4565_Montreal_District_CA_H3W_1W5",
  "InstitutionName": "IUGM",
  "InstitutionalDepartmentName": "Department",
  "MRAcquisitionType": "2D",
  "MagneticFieldStrength": 3,
  "Manufacturer": "Siemens",
  "ManufacturersModelName": "Prisma_fit",
  "Modality": "MR",
  "MultibandAccelerationFactor": 4,
  "PartialFourier": 1,
  "PatientPosition": "HFS",
  "PercentPhaseFOV": 100,
  "PhaseEncodingDirection": "j",
  "PhaseEncodingSteps": 104,
  "PhaseResolution": 1,
  "PixelBandwidth": 2290,
  "ProcedureStepDescription": "games_mario",
  "ProtocolName": "func_task-mario_run-05",
  "PulseSequenceDetails": "%CustomerSeq%_cmrr_mbep2d_bold",
  "ReceiveCoilActiveElements": "HC1-7;NC1,2",
  "ReceiveCoilName": "HeadNeck_64",
  "ReconMatrixPE": 104,
  "RepetitionTime": 1.49,
  "SAR": 0.0453045,
  "ScanOptions": "FS",
  "ScanningSequence": "EP",
  "SequenceName": "epfid2d1_104",
  "SequenceVariant": "SK_SS",
  "SeriesDescription": "func_task-mario_run-05",
  "SeriesNumber": 23,
  "ShimSetting": [627, -7253, -8824, 580, 17, -196, -75, -12],
  "SliceThickness": 2,
  "SliceTiming": [0, 0.785, 0.0975, 0.8825, 0.195, 0.98, 0.295, 1.0775, 0.3925, 1.175, 0.49, 1.275, 0.5875, 1.3725, 0.685, 0, 0.785, 0.0975, 0.8825, 0.195, 0.98, 0.295, 1.0775, 0.3925, 1.175, 0.49, 1.275, 0.5875, 1.3725, 0.685, 0, 0.785, 0.0975, 0.8825, 0.195, 0.98, 0.295, 1.0775, 0.3925, 1.175, 0.49, 1.275, 0.5875, 1.3725, 0.685, 0, 0.785, 0.0975, 0.8825, 0.195, 0.98, 0.295, 1.0775, 0.3925, 1.175, 0.49, 1.275, 0.5875, 1.3725, 0.685],
  "SoftwareVersions": "syngo_MR_E11",
  "SpacingBetweenSlices": 2,
  "StationName": "MRC35049",
  "TaskName": "mario",
  "TotalReadoutTime": 0.0576811,
  "TxRefAmp": 242.856,
  "WipMemBlock": "2d77e76c-e2ca-4e78-8abd-0759c9a11c71||Sequence: R016 ve11c/master r/e634e98; Dec 19 2017 11:00:25 by eja",
  "dcmmeta_affine": [
    [-1.9995081424713135, 0.04397851601243019, -0.005768405739217997, 104.25056457519531],
    [0.04329356923699379, 1.8785094022750854, -0.6850754022598267, -66.92291259765625],
    [0.009646297432482243, 0.6850317716598511, 1.8789993524551392, -63.841365814208984],
    [0.0, 0.0, 0.0, 1.0]
],
  "dcmmeta_reorient_transform": [
    [0.0, -1.0, 0.0, 103.0],
    [1.0, 0.0, 0.0, 0.0],
    [0.0, 0.0, 1.0, 0.0],
    [0.0, 0.0, 0.0, 1.0]
],
  "dcmmeta_shape": [104, 104, 60, 467],
  "dcmmeta_slice_dim": 2,
  "dcmmeta_version": 0.6,
  "global": {
    "const": {
      "AcquisitionMatrix": [104, 0, 0, 104],
      "AngioFlag": "N",
      "BitsAllocated": 16,
      "BitsStored": 16,
      "BodyPartExamined": "BRAIN",
      "Columns": 832,
      "EchoNumbers": 1,
      "EchoTime": 37.0,
      "EchoTrainLength": 104,
      "FlipAngle": 52.0,
      "HighBit": 15,
      "ImageOrientationPatient": [0.99975404671812, -0.0216467851854, 0.0048231485444, 0.02198925749045, 0.93925467598691, -0.3425158772842],
      "ImagePositionPatient": [-852.60947707707, -794.58209699502, 252.55721310444],
      "ImageType": [
        "ORIGINAL",
        "PRIMARY",
        "P",
        "MB",
        "ND",
        "MOSAIC"
],
      "ImagedNucleus": "1H",
      "ImagingFrequency": 123.25889,
      "InPlanePhaseEncodingDirection": "COL",
      "LargestImagePixelValue": 4095,
      "MRAcquisitionType": "2D",
      "MagneticFieldStrength": 3.0,
      "Manufacturer": "SIEMENS",
      "ManufacturerModelName": "Prisma_fit",
      "Modality": "MR",
      "NumberOfAverages": 1.0,
      "NumberOfPhaseEncodingSteps": 104,
      "PercentPhaseFieldOfView": 100.0,
      "PercentSampling": 100.0,
      "PerformedProcedureStepStartTime": "151002.367000",
      "PhotometricInterpretation": "MONOCHROME2",
      "PixelBandwidth": 2290.0,
      "PixelRepresentation": 0,
      "PixelSpacing": [2.0, 2.0],
      "ProtocolName": "func_task-mario_run-05",
      "RepetitionTime": 1490.0,
      "RescaleIntercept": -4096.0,
      "RescaleSlope": 2.0,
      "RescaleType": "US",
      "Rows": 832,
      "SAR": 0.04530451043177,
      "SamplesPerPixel": 1,
      "ScanOptions": "FS",
      "ScanningSequence": "EP",
      "SequenceName": "epfid2d1_104",
      "SequenceVariant": [
        "SK",
        "SS"
],
      "SeriesDescription": "func_task-mario_run-05",
      "SeriesNumber": 23,
      "SeriesTime": "164344.860000",
      "SliceLocation": -37.356000285448,
      "SliceThickness": 2.0,
      "SmallestImagePixelValue": 0,
      "SoftwareVersions": "syngo MR E11",
      "SpacingBetweenSlices": 2.000000034014,
      "SpecificCharacterSet": "ISO_IR 100",
      "StudyID": "1",
      "StudyTime": "151002.312000",
      "TransmitCoilName": "Body",
      "VariableFlipAngleFlag": "N",
      "WindowCenterWidthExplanation": "Algo1",
      "dBdt": 0.0},
    "slices": {}
  },
  "time": {
    "samples": {
      "AcquisitionNumber": [1, 2, 3, 4, 5, 6, 7, 8, 9, 10, 11, 12, 13, 14, 15, 16, 17, 18, 19, 20, 21, 22, 23, 24, 25, 26, 27, 28, 29, 30, 31, 32, 33, 34, 35, 36, 37, 38, 39, 40, 41, 42, 43, 44, 45, 46, 47, 48, 49, 50, 51, 52, 53, 54, 55, 56, 57, 58, 59, 60, 61, 62, 63, 64, 65, 66, 67, 68, 69, 70, 71, 72, 73, 74, 75, 76, 77, 78, 79, 80, 81, 82, 83, 84, 85, 86, 87, 88, 89, 90, 91, 92, 93, 94, 95, 96, 97, 98, 99, 100, 101, 102, 103, 104, 105, 106, 107, 108, 109, 110, 111, 112, 113, 114, 115, 116, 117, 118, 119, 120, 121, 122, 123, 124, 125, 126, 127, 128, 129, 130, 131, 132, 133, 134, 135, 136, 137, 138, 139, 140, 141, 142, 143, 144, 145, 146, 147, 148, 149, 150, 151, 152, 153, 154, 155, 156, 157, 158, 159, 160, 161, 162, 163, 164, 165, 166, 167, 168, 169, 170, 171, 172, 173, 174, 175, 176, 177, 178, 179, 180, 181, 182, 183, 184, 185, 186, 187, 188, 189, 190, 191, 192, 193, 194, 195, 196, 197, 198, 199, 200, 201, 202, 203, 204, 205, 206, 207, 208, 209, 210, 211, 212, 213, 214, 215, 216, 217, 218, 219, 220, 221, 222, 223, 224, 225, 226, 227, 228, 229, 230, 231, 232, 233, 234, 235, 236, 237, 238, 239, 240, 241, 242, 243, 244, 245, 246, 247, 248, 249, 250, 251, 252, 253, 254, 255, 256, 257, 258, 259, 260, 261, 262, 263, 264, 265, 266, 267, 268, 269, 270, 271, 272, 273, 274, 275, 276, 277, 278, 279, 280, 281, 282, 283, 284, 285, 286, 287, 288, 289, 290, 291, 292, 293, 294, 295, 296, 297, 298, 299, 300, 301, 302, 303, 304, 305, 306, 307, 308, 309, 310, 311, 312, 313, 314, 315, 316, 317, 318, 319, 320, 321, 322, 323, 324, 325, 326, 327, 328, 329, 330, 331, 332, 333, 334, 335, 336, 337, 338, 339, 340, 341, 342, 343, 344, 345, 346, 347, 348, 349, 350, 351, 352, 353, 354, 355, 356, 357, 358, 359, 360, 361, 362, 363, 364, 365, 366, 367, 368, 369, 370, 371, 372, 373, 374, 375, 376, 377, 378, 379, 380, 381, 382, 383, 384, 385, 386, 387, 388, 389, 390, 391, 392, 393, 394, 395, 396, 397, 398, 399, 400, 401, 402, 403, 404, 405, 406, 407, 408, 409, 410, 411, 412, 413, 414, 415, 416, 417, 418, 419, 420, 421, 422, 423, 424, 425, 426, 427, 428, 429, 430, 431, 432, 433, 434, 435, 436, 437, 438, 439, 440, 441, 442, 443, 444, 445, 446, 447, 448, 449, 450, 451, 452, 453, 454, 455, 456, 457, 458, 459, 460, 461, 462, 463, 464, 465, 466, 467],
      "AcquisitionTime": ["164224.680000", "164226.170000", "164227.660000", "164229.150000", "164230.640000", "164232.130000", "164233.620000", "164235.110000", "164236.600000", "164238.090000", "164239.580000", "164241.070000", "164242.560000", "164244.050000", "164245.540000", "164247.030000", "164248.520000", "164250.010000", "164251.500000", "164252.990000", "164254.480000", "164255.970000", "164257.460000", "164258.950000", "164300.440000", "164301.930000", "164303.420000", "164304.910000", "164306.400000", "164307.890000", "164309.380000", "164310.870000", "164312.360000", "164313.850000", "164315.340000", "164316.830000", "164318.320000", "164319.810000", "164321.300000", "164322.790000", "164324.280000", "164325.770000", "164327.260000", "164328.750000", "164330.240000", "164331.730000", "164333.220000", "164334.710000", "164336.200000", "164337.690000", "164339.180000", "164340.670000", "164342.160000", "164343.650000", "164345.140000", "164346.630000", "164348.120000", "164349.610000", "164351.100000", "164352.590000", "164354.080000", "164355.570000", "164357.060000", "164358.550000", "164400.040000", "164401.530000", "164403.020000", "164404.510000", "164406.000000", "164407.490000", "164408.980000", "164410.470000", "164411.960000", "164413.450000", "164414.940000", "164416.430000", "164417.920000", "164419.410000", "164420.900000", "164422.390000", "164423.880000", "164425.370000", "164426.860000", "164428.350000", "164429.840000", "164431.330000", "164432.820000", "164434.310000", "164435.800000", "164437.290000", "164438.780000", "164440.270000", "164441.760000", "164443.250000", "164444.740000", "164446.230000", "164447.720000", "164449.210000", "164450.700000", "164452.190000", "164453.680000", "164455.170000", "164456.660000", "164458.150000", "164459.640000", "164501.130000", "164502.620000", "164504.110000", "164505.600000", "164507.090000", "164508.580000", "164510.070000", "164511.560000", "164513.050000", "164514.540000", "164516.030000", "164517.520000", "164519.010000", "164520.500000", "164521.990000", "164523.480000", "164524.970000", "164526.460000", "164527.950000", "164529.440000", "164530.930000", "164532.420000", "164533.910000", "164535.400000", "164536.890000", "164538.380000", "164539.870000", "164541.360000", "164542.850000", "164544.340000", "164545.830000", "164547.320000", "164548.810000", "164550.300000", "164551.790000", "164553.280000", "164554.770000", "164556.260000", "164557.750000", "164559.240000", "164600.730000", "164602.220000", "164603.710000", "164605.200000", "164606.690000", "164608.180000", "164609.670000", "164611.160000", "164612.650000", "164614.140000", "164615.630000", "164617.120000", "164618.610000", "164620.100000", "164621.590000", "164623.080000", "164624.570000", "164626.060000", "164627.550000", "164629.040000", "164630.530000", "164632.020000", "164633.510000", "164635.000000", "164636.490000", "164637.980000", "164639.470000", "164640.960000", "164642.450000", "164643.940000", "164645.430000", "164646.920000", "164648.410000", "164649.900000", "164651.390000", "164652.880000", "164654.370000", "164655.860000", "164657.350000", "164658.840000", "164700.330000", "164701.820000", "164703.310000", "164704.800000", "164706.290000", "164707.780000", "164709.270000", "164710.760000", "164712.250000", "164713.740000", "164715.230000", "164716.720000", "164718.210000", "164719.700000", "164721.190000", "164722.680000", "164724.170000", "164725.660000", "164727.150000", "164728.640000", "164730.130000", "164731.620000", "164733.110000", "164734.600000", "164736.090000", "164737.580000", "164739.070000", "164740.560000", "164742.050000", "164743.540000", "164745.030000", "164746.520000", "164748.010000", "164749.500000", "164750.990000", "164752.480000", "164753.970000", "164755.460000", "164756.950000", "164758.440000", "164759.930000", "164801.420000", "164802.910000", "164804.400000", "164805.890000", "164807.380000", "164808.870000", "164810.360000", "164811.850000", "164813.340000", "164814.830000", "164816.320000", "164817.810000", "164819.300000", "164820.790000", "164822.280000", "164823.770000", "164825.260000", "164826.750000", "164828.240000", "164829.730000", "164831.220000", "164832.710000", "164834.200000", "164835.690000", "164837.180000", "164838.670000", "164840.160000", "164841.650000", "164843.140000", "164844.630000", "164846.120000", "164847.610000", "164849.100000", "164850.590000", "164852.080000", "164853.570000", "164855.060000", "164856.550000", "164858.040000", "164859.530000", "164901.020000", "164902.510000", "164904.000000", "164905.490000", "164906.980000", "164908.470000", "164909.960000", "164911.450000", "164912.940000", "164914.430000", "164915.920000", "164917.410000", "164918.900000", "164920.390000", "164921.880000", "164923.370000", "164924.860000", "164926.350000", "164927.840000", "164929.330000", "164930.820000", "164932.310000", "164933.800000", "164935.290000", "164936.780000", "164938.270000", "164939.760000", "164941.250000", "164942.740000", "164944.230000", "164945.720000", "164947.210000", "164948.700000", "164950.190000", "164951.680000", "164953.170000", "164954.660000", "164956.150000", "164957.640000", "164959.130000", "165000.620000", "165002.110000", "165003.600000", "165005.090000", "165006.580000", "165008.070000", "165009.560000", "165011.050000", "165012.540000", "165014.030000", "165015.520000", "165017.010000", "165018.500000", "165019.990000", "165021.480000", "165022.970000", "165024.460000", "165025.950000", "165027.440000", "165028.930000", "165030.420000", "165031.910000", "165033.400000", "165034.890000", "165036.380000", "165037.870000", "165039.360000", "165040.850000", "165042.340000", "165043.830000", "165045.320000", "165046.810000", "165048.300000", "165049.790000", "165051.280000", "165052.770000", "165054.260000", "165055.750000", "165057.240000", "165058.730000", "165100.220000", "165101.710000", "165103.200000", "165104.690000", "165106.180000", "165107.670000", "165109.160000", "165110.650000", "165112.140000", "165113.630000", "165115.120000", "165116.610000", "165118.100000", "165119.590000", "165121.080000", "165122.570000", "165124.060000", "165125.550000", "165127.040000", "165128.530000", "165130.020000", "165131.510000", "165133.000000", "165134.490000", "165135.980000", "165137.470000", "165138.960000", "165140.450000", "165141.940000", "165143.430000", "165144.920000", "165146.410000", "165147.900000", "165149.390000", "165150.880000", "165152.370000", "165153.860000", "165155.350000", "165156.840000", "165158.330000", "165159.820000", "165201.310000", "165202.800000", "165204.290000", "165205.780000", "165207.270000", "165208.760000", "165210.250000", "165211.740000", "165213.230000", "165214.720000", "165216.210000", "165217.700000", "165219.190000", "165220.680000", "165222.170000", "165223.660000", "165225.150000", "165226.640000", "165228.130000", "165229.620000", "165231.110000", "165232.600000", "165234.090000", "165235.580000", "165237.070000", "165238.560000", "165240.050000", "165241.540000", "165243.030000", "165244.520000", "165246.010000", "165247.500000", "165248.990000", "165250.480000", "165251.970000", "165253.460000", "165254.950000", "165256.440000", "165257.930000", "165259.420000", "165300.910000", "165302.400000", "165303.890000", "165305.380000", "165306.870000", "165308.360000", "165309.850000", "165311.340000", "165312.830000", "165314.320000", "165315.810000", "165317.300000", "165318.790000", "165320.280000", "165321.770000", "165323.260000", "165324.750000", "165326.240000", "165327.730000", "165329.220000", "165330.710000", "165332.200000", "165333.690000", "165335.180000", "165336.670000", "165338.160000", "165339.650000", "165341.140000", "165342.630000", "165344.120000", "165345.610000", "165347.100000", "165348.590000", "165350.080000", "165351.570000", "165353.060000", "165354.550000", "165356.040000", "165357.530000", "165359.020000"],
      "ContentTime": ["164344.863000", "164344.865000", "164344.868000", "164344.870000", "164344.873000", "164344.876000", "164344.878000", "164344.881000", "164344.887000", "164344.890000", "164344.892000", "164344.895000", "164344.897000", "164344.900000", "164344.902000", "164344.905000", "164344.907000", "164344.910000", "164344.912000", "164344.915000", "164344.917000", "164344.920000", "164344.922000", "164344.925000", "164344.927000", "164344.930000", "164404.798000", "164404.800000", "164404.803000", "164404.806000", "164404.808000", "164404.811000", "164404.813000", "164404.816000", "164404.818000", "164404.821000", "164404.824000", "164404.826000", "164404.829000", "164404.831000", "164404.834000", "164404.836000", "164404.839000", "164404.841000", "164404.844000", "164404.846000", "164424.808000", "164424.811000", "164424.814000", "164424.816000", "164424.819000", "164424.821000", "164424.824000", "164424.826000", "164424.829000", "164424.831000", "164424.834000", "164424.836000", "164424.839000", "164424.842000", "164424.844000", "164424.847000", "164424.849000", "164424.852000", "164424.854000", "164424.857000", "164444.784000", "164444.787000", "164444.790000", "164444.792000", "164444.795000", "164444.798000", "164444.800000", "164444.803000", "164444.805000", "164444.808000", "164444.810000", "164444.818000", "164444.821000", "164444.823000", "164444.826000", "164444.828000", "164444.831000", "164444.833000", "164444.836000", "164444.839000", "164504.801000", "164504.804000", "164504.807000", "164504.809000", "164504.812000", "164504.814000", "164504.817000", "164504.820000", "164504.823000", "164504.825000", "164504.828000", "164504.830000", "164504.833000", "164504.835000", "164504.838000", "164504.844000", "164504.846000", "164504.849000", "164504.851000", "164504.854000", "164504.856000", "164545.219000", "164545.222000", "164545.224000", "164545.227000", "164545.230000", "164545.232000", "164545.235000", "164545.237000", "164545.240000", "164545.242000", "164545.245000", "164545.247000", "164545.250000", "164545.252000", "164545.255000", "164545.258000", "164545.260000", "164545.263000", "164545.268000", "164545.271000", "164545.273000", "164545.276000", "164545.279000", "164545.281000", "164545.284000", "164545.287000", "164624.821000", "164624.824000", "164624.827000", "164624.829000", "164624.832000", "164624.834000", "164624.837000", "164624.839000", "164624.842000", "164624.845000", "164624.847000", "164624.850000", "164624.852000", "164624.855000", "164624.857000", "164624.860000", "164624.862000", "164624.865000", "164624.867000", "164624.870000", "164624.873000", "164624.875000", "164624.878000", "164624.880000", "164624.883000", "164624.885000", "164624.888000", "164704.836000", "164704.839000", "164704.842000", "164704.844000", "164704.847000", "164704.850000", "164704.852000", "164704.855000", "164704.857000", "164704.860000", "164704.863000", "164704.865000", "164704.868000", "164704.870000", "164704.873000", "164704.875000", "164704.878000", "164704.881000", "164704.883000", "164704.886000", "164704.888000", "164704.891000", "164704.893000", "164704.896000", "164704.899000", "164704.901000", "164704.904000", "164744.843000", "164744.845000", "164744.848000", "164744.851000", "164744.853000", "164744.856000", "164744.858000", "164744.861000", "164744.863000", "164744.866000", "164744.868000", "164744.871000", "164744.873000", "164744.876000", "164744.879000", "164744.881000", "164744.884000", "164744.886000", "164744.889000", "164744.891000", "164744.894000", "164744.896000", "164744.899000", "164744.902000", "164744.904000", "164744.907000", "164744.909000", "164824.839000", "164824.842000", "164824.844000", "164824.847000", "164824.850000", "164824.852000", "164824.855000", "164824.857000", "164824.860000", "164824.862000", "164824.865000", "164824.867000", "164824.870000", "164824.872000", "164824.875000", "164824.877000", "164824.880000", "164824.883000", "164824.885000", "164824.888000", "164824.890000", "164824.893000", "164824.895000", "164824.898000", "164824.900000", "164824.903000", "164824.905000", "164904.842000", "164904.845000", "164904.848000", "164904.851000", "164904.853000", "164904.856000", "164904.858000", "164904.861000", "164904.863000", "164904.866000", "164904.869000", "164904.872000", "164904.874000", "164904.877000", "164904.880000", "164904.882000", "164904.885000", "164904.888000", "164904.890000", "164904.893000", "164904.895000", "164904.898000", "164904.900000", "164904.903000", "164904.905000", "164904.908000", "164904.911000", "164944.838000", "164944.841000", "164944.844000", "164944.847000", "164944.849000", "164944.852000", "164944.854000", "164944.857000", "164944.859000", "164944.862000", "164944.865000", "164944.867000", "164944.870000", "164944.872000", "164944.875000", "164944.877000", "164944.880000", "164944.883000", "164944.885000", "164944.888000", "164944.890000", "164944.893000", "164944.895000", "164944.898000", "164944.901000", "164944.903000", "165024.828000", "165024.831000", "165024.833000", "165024.836000", "165024.838000", "165024.841000", "165024.843000", "165024.846000", "165024.848000", "165024.851000", "165024.854000", "165024.856000", "165024.859000", "165024.861000", "165024.864000", "165024.867000", "165024.869000", "165024.872000", "165024.874000", "165024.877000", "165024.880000", "165024.882000", "165024.885000", "165024.887000", "165024.890000", "165024.892000", "165024.895000", "165104.841000", "165104.844000", "165104.847000", "165104.849000", "165104.852000", "165104.854000", "165104.857000", "165104.860000", "165104.862000", "165104.865000", "165104.868000", "165104.870000", "165104.873000", "165104.875000", "165104.878000", "165104.881000", "165104.883000", "165104.886000", "165104.888000", "165104.891000", "165104.893000", "165104.896000", "165104.899000", "165104.901000", "165104.904000", "165104.907000", "165104.909000", "165144.851000", "165144.853000", "165144.856000", "165144.858000", "165144.861000", "165144.864000", "165144.866000", "165144.869000", "165144.871000", "165144.874000", "165144.876000", "165144.879000", "165144.882000", "165144.884000", "165144.887000", "165144.889000", "165144.892000", "165144.894000", "165144.897000", "165144.899000", "165144.902000", "165144.905000", "165144.907000", "165144.910000", "165144.912000", "165144.915000", "165144.917000", "165224.824000", "165224.827000", "165224.829000", "165224.832000", "165224.834000", "165224.837000", "165224.840000", "165224.842000", "165224.845000", "165224.847000", "165224.850000", "165224.852000", "165224.855000", "165224.858000", "165224.860000", "165224.863000", "165224.865000", "165224.868000", "165224.870000", "165224.873000", "165224.875000", "165224.878000", "165224.881000", "165224.883000", "165224.886000", "165224.888000", "165224.891000", "165304.827000", "165304.829000", "165304.832000", "165304.835000", "165304.837000", "165304.840000", "165304.842000", "165304.845000", "165304.847000", "165304.850000", "165304.852000", "165304.855000", "165304.857000", "165304.860000", "165304.862000", "165304.865000", "165304.868000", "165304.870000", "165304.873000", "165304.875000", "165304.878000", "165304.880000", "165304.883000", "165304.885000", "165304.888000", "165304.891000", "165304.894000", "165344.847000", "165344.850000", "165344.853000", "165344.855000", "165344.858000", "165344.860000", "165344.863000", "165344.865000", "165344.868000", "165344.870000", "165344.873000", "165344.876000", "165344.878000", "165344.881000", "165344.883000", "165344.886000", "165344.888000", "165344.891000", "165344.893000", "165344.896000", "165344.899000", "165344.902000", "165344.904000", "165344.907000", "165344.909000", "165344.912000", "165344.914000", "165401.160000", "165401.163000", "165401.166000", "165401.168000", "165401.171000", "165401.173000", "165401.176000", "165401.179000", "165401.181000", "165401.184000", "165401.186000"],
