{
  "AcquisitionMatrixPE": 104,
  "AcquisitionNumber": 1,
  "AcquisitionTime": "18:15:52.460000",
  "BandwidthPerPixelPhaseEncode": 17.17,
  "BaseResolution": 104,
  "BodyPartExamined": "BRAIN",
  "CoilCombinationMethod": "Sum of Squares",
  "ConsistencyInfo": "N4_VE11C_LATEST_20160120",
  "ConversionSoftware": "dcm2niix",
  "ConversionSoftwareVersion": "v1.0.20211006",
  "DerivedVendorReportedEchoSpacing": 0.000560011,
  "DeviceSerialNumber": "167006",
  "DwellTime": 2.1e-06,
  "EchoTime": 0.037,
  "EchoTrainLength": 104,
  "EffectiveEchoSpacing": 0.000560011,
  "FlipAngle": 52,
  "HeudiconvVersion": "0.10.0",
  "ImageComments": "Unaliased MB4/PE3/LB",
  "ImageOrientationPatientDICOM": [0.996599, 0.0708188, 0.0421305, -0.0473471, 0.910575, -0.410623],
  "ImageOrientationText": "Tra>Cor(-24.1)>Sag(3.9)",
  "ImageType": [
    "ORIGINAL",
    "PRIMARY",
    "M",
    "MB",
    "ND",
    "MOSAIC"
],
  "ImagingFrequency": 123.259,
  "InPlanePhaseEncodingDirectionDICOM": "COL",
  "InstitutionAddress": "Chemin Queen-Mary 4565,Montreal,District,CA,H3W 1W5",
  "InstitutionName": "IUGM",
  "InstitutionalDepartmentName": "Department",
  "MRAcquisitionType": "2D",
  "MagneticFieldStrength": 3,
  "Manufacturer": "Siemens",
  "ManufacturersModelName": "Prisma_fit",
  "MatrixCoilMode": "SENSE",
  "Modality": "MR",
  "MultibandAccelerationFactor": 4,
  "PartialFourier": 1,
  "PatientPosition": "HFS",
  "PercentPhaseFOV": 100,
  "PercentSampling": 100,
  "PhaseEncodingDirection": "j",
  "PhaseEncodingSteps": 104,
  "PhaseResolution": 1,
  "PixelBandwidth": 2290,
  "ProcedureStepDescription": "games^mario",
  "ProtocolName": "func_task-mario_run-04",
  "PulseSequenceDetails": "%CustomerSeq%\\cmrr_mbep2d_bold",
  "ReceiveCoilActiveElements": "HC1-7;NC1,2",
  "ReceiveCoilName": "HeadNeck_64",
  "ReconMatrixPE": 104,
  "RepetitionTime": 1.49,
  "SAR": 0.0776577,
  "ScanOptions": "FS",
  "ScanningSequence": "EP",
  "SequenceName": "epfid2d1_104",
  "SequenceVariant": "SK\\SS",
  "SeriesDescription": "func_task-mario_run-04",
  "SeriesNumber": 22,
  "ShimSetting": [628, -7185, -8824, 617, 58, -6, -67, 2],
  "SliceThickness": 2,
  "SliceTiming": [0, 0.785, 0.1, 0.8825, 0.1975, 0.98, 0.295, 1.08, 0.3925, 1.1775, 0.49, 1.275, 0.59, 1.3725, 0.6875, 0, 0.785, 0.1, 0.8825, 0.1975, 0.98, 0.295, 1.08, 0.3925, 1.1775, 0.49, 1.275, 0.59, 1.3725, 0.6875, 0, 0.785, 0.1, 0.8825, 0.1975, 0.98, 0.295, 1.08, 0.3925, 1.1775, 0.49, 1.275, 0.59, 1.3725, 0.6875, 0, 0.785, 0.1, 0.8825, 0.1975, 0.98, 0.295, 1.08, 0.3925, 1.1775, 0.49, 1.275, 0.59, 1.3725, 0.6875],
  "SoftwareVersions": "syngo MR E11",
  "SpacingBetweenSlices": 2,
  "StationName": "MRC35049",
  "TaskName": "mario",
  "TotalReadoutTime": 0.0576811,
  "TxRefAmp": 336.644,
  "WipMemBlock": "953e1ddd-8d8c-495d-afa8-c010a33eb3f8||Sequence: R016 ve11c/master r/e634e98; Dec 19 2017 11:00:25 by eja",
  "dcmmeta_affine": [
    [-1.9931981563568115, -0.09469426423311234, 0.13488562405109406, 107.82746887207031],
    [-0.1416376233100891, 1.8211504220962524, -0.8144629001617432, -48.332801818847656],
    [0.08426101505756378, 0.8212453722953796, 1.8216630220413208, -72.62409973144531],
    [0.0, 0.0, 0.0, 1.0]
],
  "dcmmeta_reorient_transform": [
    [0.0, -1.0, 0.0, 103.0],
    [1.0, 0.0, 0.0, 0.0],
    [0.0, 0.0, 1.0, 0.0],
    [0.0, 0.0, 0.0, 1.0]
],
  "dcmmeta_shape": [104, 104, 60, 449],
  "dcmmeta_slice_dim": 2,
  "dcmmeta_version": 0.6,
  "global": {
    "const": {
      "AcquisitionMatrix": [104, 0, 0, 104],
      "AngioFlag": "N",
      "BitsAllocated": 16,
      "BitsStored": 16,
      "BodyPartExamined": "BRAIN",
      "Columns": 832,
      "EchoNumbers": 1,
      "EchoTime": 37.0,
      "EchoTrainLength": 104,
      "FlipAngle": 52.0,
      "HighBit": 15,
      "ImageOrientationPatient": [0.99659907520699, 0.07081880793952, 0.04213050840667, -0.0473471335477, 0.91057523107024, -0.4106226948261],
      "ImagePositionPatient": [-789.12937060277, -853.70055792438, 280.22648840452],
      "ImageType": [
        "ORIGINAL",
        "PRIMARY",
        "M",
        "MB",
        "ND",
        "MOSAIC"
],
      "ImagedNucleus": "1H",
      "ImagingFrequency": 123.258872,
      "InPlanePhaseEncodingDirection": "COL",
      "MRAcquisitionType": "2D",
      "MagneticFieldStrength": 3.0,
      "Manufacturer": "SIEMENS",
      "ManufacturerModelName": "Prisma_fit",
      "Modality": "MR",
      "NumberOfAverages": 1.0,
      "NumberOfPhaseEncodingSteps": 104,
      "PercentPhaseFieldOfView": 100.0,
      "PercentSampling": 100.0,
      "PerformedProcedureStepStartTime": "172846.121000",
      "PhotometricInterpretation": "MONOCHROME2",
      "PixelBandwidth": 2290.0,
      "PixelRepresentation": 0,
      "PixelSpacing": [2.0, 2.0],
      "ProtocolName": "func_task-mario_run-04",
      "RepetitionTime": 1490.0,
      "Rows": 832,
      "SAR": 0.07765767434001,
      "SamplesPerPixel": 1,
      "ScanOptions": "FS",
      "ScanningSequence": "EP",
      "SequenceName": "epfid2d1_104",
      "SequenceVariant": [
        "SK",
        "SS"
],
      "SeriesDescription": "func_task-mario_run-04",
      "SeriesNumber": 22,
      "SeriesTime": "181707.647000",
      "SliceLocation": -39.193493805721,
      "SliceThickness": 2.0,
      "SmallestImagePixelValue": 0,
      "SoftwareVersions": "syngo MR E11",
      "SpacingBetweenSlices": 2.00000005889,
      "SpecificCharacterSet": "ISO_IR 100",
      "StudyID": "1",
      "StudyTime": "172846.068000",
      "TransmitCoilName": "Body",
      "VariableFlipAngleFlag": "N",
      "WindowCenterWidthExplanation": "Algo1",
      "dBdt": 0.0},
    "slices": {}
  },
  "time": {
    "samples": {
      "AcquisitionNumber": [1, 2, 3, 4, 5, 6, 7, 8, 9, 10, 11, 12, 13, 14, 15, 16, 17, 18, 19, 20, 21, 22, 23, 24, 25, 26, 27, 28, 29, 30, 31, 32, 33, 34, 35, 36, 37, 38, 39, 40, 41, 42, 43, 44, 45, 46, 47, 48, 49, 50, 51, 52, 53, 54, 55, 56, 57, 58, 59, 60, 61, 62, 63, 64, 65, 66, 67, 68, 69, 70, 71, 72, 73, 74, 75, 76, 77, 78, 79, 80, 81, 82, 83, 84, 85, 86, 87, 88, 89, 90, 91, 92, 93, 94, 95, 96, 97, 98, 99, 100, 101, 102, 103, 104, 105, 106, 107, 108, 109, 110, 111, 112, 113, 114, 115, 116, 117, 118, 119, 120, 121, 122, 123, 124, 125, 126, 127, 128, 129, 130, 131, 132, 133, 134, 135, 136, 137, 138, 139, 140, 141, 142, 143, 144, 145, 146, 147, 148, 149, 150, 151, 152, 153, 154, 155, 156, 157, 158, 159, 160, 161, 162, 163, 164, 165, 166, 167, 168, 169, 170, 171, 172, 173, 174, 175, 176, 177, 178, 179, 180, 181, 182, 183, 184, 185, 186, 187, 188, 189, 190, 191, 192, 193, 194, 195, 196, 197, 198, 199, 200, 201, 202, 203, 204, 205, 206, 207, 208, 209, 210, 211, 212, 213, 214, 215, 216, 217, 218, 219, 220, 221, 222, 223, 224, 225, 226, 227, 228, 229, 230, 231, 232, 233, 234, 235, 236, 237, 238, 239, 240, 241, 242, 243, 244, 245, 246, 247, 248, 249, 250, 251, 252, 253, 254, 255, 256, 257, 258, 259, 260, 261, 262, 263, 264, 265, 266, 267, 268, 269, 270, 271, 272, 273, 274, 275, 276, 277, 278, 279, 280, 281, 282, 283, 284, 285, 286, 287, 288, 289, 290, 291, 292, 293, 294, 295, 296, 297, 298, 299, 300, 301, 302, 303, 304, 305, 306, 307, 308, 309, 310, 311, 312, 313, 314, 315, 316, 317, 318, 319, 320, 321, 322, 323, 324, 325, 326, 327, 328, 329, 330, 331, 332, 333, 334, 335, 336, 337, 338, 339, 340, 341, 342, 343, 344, 345, 346, 347, 348, 349, 350, 351, 352, 353, 354, 355, 356, 357, 358, 359, 360, 361, 362, 363, 364, 365, 366, 367, 368, 369, 370, 371, 372, 373, 374, 375, 376, 377, 378, 379, 380, 381, 382, 383, 384, 385, 386, 387, 388, 389, 390, 391, 392, 393, 394, 395, 396, 397, 398, 399, 400, 401, 402, 403, 404, 405, 406, 407, 408, 409, 410, 411, 412, 413, 414, 415, 416, 417, 418, 419, 420, 421, 422, 423, 424, 425, 426, 427, 428, 429, 430, 431, 432, 433, 434, 435, 436, 437, 438, 439, 440, 441, 442, 443, 444, 445, 446, 447, 448, 449],
      "AcquisitionTime": ["181552.460000", "181553.950000", "181555.440000", "181556.930000", "181558.420000", "181559.910000", "181601.400000", "181602.890000", "181604.380000", "181605.870000", "181607.360000", "181608.850000", "181610.340000", "181611.830000", "181613.320000", "181614.810000", "181616.300000", "181617.790000", "181619.280000", "181620.770000", "181622.260000", "181623.750000", "181625.240000", "181626.730000", "181628.220000", "181629.710000", "181631.200000", "181632.690000", "181634.180000", "181635.670000", "181637.160000", "181638.650000", "181640.140000", "181641.630000", "181643.120000", "181644.610000", "181646.100000", "181647.590000", "181649.080000", "181650.570000", "181652.060000", "181653.550000", "181655.040000", "181656.530000", "181658.020000", "181659.510000", "181701.000000", "181702.490000", "181703.980000", "181705.470000", "181706.960000", "181708.450000", "181709.940000", "181711.430000", "181712.920000", "181714.410000", "181715.900000", "181717.390000", "181718.880000", "181720.370000", "181721.860000", "181723.350000", "181724.840000", "181726.330000", "181727.820000", "181729.310000", "181730.800000", "181732.290000", "181733.780000", "181735.270000", "181736.760000", "181738.250000", "181739.740000", "181741.230000", "181742.720000", "181744.210000", "181745.700000", "181747.190000", "181748.680000", "181750.170000", "181751.660000", "181753.150000", "181754.640000", "181756.130000", "181757.620000", "181759.110000", "181800.600000", "181802.090000", "181803.580000", "181805.070000", "181806.560000", "181808.050000", "181809.540000", "181811.030000", "181812.520000", "181814.010000", "181815.500000", "181816.990000", "181818.480000", "181819.970000", "181821.460000", "181822.950000", "181824.440000", "181825.930000", "181827.420000", "181828.910000", "181830.400000", "181831.890000", "181833.380000", "181834.870000", "181836.360000", "181837.850000", "181839.340000", "181840.830000", "181842.320000", "181843.810000", "181845.300000", "181846.790000", "181848.280000", "181849.770000", "181851.260000", "181852.750000", "181854.240000", "181855.730000", "181857.220000", "181858.710000", "181900.200000", "181901.690000", "181903.180000", "181904.670000", "181906.160000", "181907.650000", "181909.140000", "181910.630000", "181912.120000", "181913.610000", "181915.100000", "181916.590000", "181918.080000", "181919.570000", "181921.060000", "181922.550000", "181924.040000", "181925.530000", "181927.020000", "181928.510000", "181930.000000", "181931.490000", "181932.980000", "181934.470000", "181935.960000", "181937.450000", "181938.940000", "181940.430000", "181941.920000", "181943.410000", "181944.900000", "181946.390000", "181947.880000", "181949.370000", "181950.860000", "181952.350000", "181953.840000", "181955.330000", "181956.820000", "181958.310000", "181959.800000", "182001.290000", "182002.780000", "182004.270000", "182005.760000", "182007.250000", "182008.740000", "182010.230000", "182011.720000", "182013.210000", "182014.700000", "182016.190000", "182017.680000", "182019.170000", "182020.660000", "182022.150000", "182023.640000", "182025.130000", "182026.620000", "182028.110000", "182029.600000", "182031.090000", "182032.580000", "182034.070000", "182035.560000", "182037.050000", "182038.540000", "182040.030000", "182041.520000", "182043.010000", "182044.500000", "182045.990000", "182047.480000", "182048.970000", "182050.460000", "182051.950000", "182053.440000", "182054.930000", "182056.420000", "182057.910000", "182059.400000", "182100.890000", "182102.380000", "182103.870000", "182105.360000", "182106.850000", "182108.340000", "182109.830000", "182111.320000", "182112.810000", "182114.300000", "182115.790000", "182117.280000", "182118.770000", "182120.260000", "182121.750000", "182123.240000", "182124.730000", "182126.220000", "182127.710000", "182129.200000", "182130.690000", "182132.180000", "182133.670000", "182135.160000", "182136.650000", "182138.140000", "182139.630000", "182141.120000", "182142.610000", "182144.100000", "182145.590000", "182147.080000", "182148.570000", "182150.060000", "182151.550000", "182153.040000", "182154.530000", "182156.020000", "182157.510000", "182159.000000", "182200.490000", "182201.980000", "182203.470000", "182204.960000", "182206.450000", "182207.940000", "182209.430000", "182210.920000", "182212.410000", "182213.900000", "182215.390000", "182216.880000", "182218.370000", "182219.860000", "182221.350000", "182222.840000", "182224.330000", "182225.820000", "182227.310000", "182228.800000", "182230.290000", "182231.780000", "182233.270000", "182234.760000", "182236.250000", "182237.740000", "182239.230000", "182240.720000", "182242.210000", "182243.700000", "182245.190000", "182246.680000", "182248.170000", "182249.660000", "182251.150000", "182252.640000", "182254.130000", "182255.620000", "182257.110000", "182258.600000", "182300.090000", "182301.580000", "182303.070000", "182304.560000", "182306.050000", "182307.540000", "182309.030000", "182310.520000", "182312.010000", "182313.500000", "182314.990000", "182316.480000", "182317.970000", "182319.460000", "182320.950000", "182322.440000", "182323.930000", "182325.420000", "182326.910000", "182328.400000", "182329.890000", "182331.380000", "182332.870000", "182334.360000", "182335.850000", "182337.340000", "182338.830000", "182340.320000", "182341.810000", "182343.300000", "182344.790000", "182346.280000", "182347.770000", "182349.260000", "182350.750000", "182352.240000", "182353.730000", "182355.220000", "182356.710000", "182358.200000", "182359.690000", "182401.180000", "182402.670000", "182404.160000", "182405.650000", "182407.140000", "182408.630000", "182410.120000", "182411.610000", "182413.100000", "182414.590000", "182416.080000", "182417.570000", "182419.060000", "182420.550000", "182422.040000", "182423.530000", "182425.020000", "182426.510000", "182428.000000", "182429.490000", "182430.980000", "182432.470000", "182433.960000", "182435.450000", "182436.940000", "182438.430000", "182439.920000", "182441.410000", "182442.900000", "182444.390000", "182445.880000", "182447.370000", "182448.860000", "182450.350000", "182451.840000", "182453.330000", "182454.820000", "182456.310000", "182457.800000", "182459.290000", "182500.780000", "182502.270000", "182503.760000", "182505.250000", "182506.740000", "182508.230000", "182509.720000", "182511.210000", "182512.700000", "182514.190000", "182515.680000", "182517.170000", "182518.660000", "182520.150000", "182521.640000", "182523.130000", "182524.620000", "182526.110000", "182527.600000", "182529.090000", "182530.580000", "182532.070000", "182533.560000", "182535.050000", "182536.540000", "182538.030000", "182539.520000", "182541.010000", "182542.500000", "182543.990000", "182545.480000", "182546.970000", "182548.460000", "182549.950000", "182551.440000", "182552.930000", "182554.420000", "182555.910000", "182557.400000", "182558.890000", "182600.380000", "182601.870000", "182603.360000", "182604.850000", "182606.340000", "182607.830000", "182609.320000", "182610.810000", "182612.300000", "182613.790000", "182615.280000", "182616.770000", "182618.260000", "182619.750000", "182621.240000", "182622.730000", "182624.220000", "182625.710000", "182627.200000", "182628.690000", "182630.180000", "182631.670000", "182633.160000", "182634.650000", "182636.140000", "182637.630000", "182639.120000", "182640.610000", "182642.100000", "182643.590000", "182645.080000", "182646.570000", "182648.060000", "182649.550000", "182651.040000", "182652.530000", "182654.020000", "182655.510000", "182657.000000", "182658.490000", "182659.980000"],
      "ContentTime": ["181707.650000", "181707.654000", "181707.657000", "181707.660000", "181707.664000", "181707.675000", "181707.678000", "181707.681000", "181707.685000", "181707.688000", "181707.692000", "181707.699000", "181707.702000", "181707.706000", "181707.709000", "181707.712000", "181707.716000", "181707.719000", "181707.722000", "181707.726000", "181707.729000", "181727.240000", "181727.244000", "181727.247000", "181727.251000", "181727.254000", "181727.258000", "181727.262000", "181727.265000", "181727.268000", "181727.272000", "181727.275000", "181727.278000", "181727.282000", "181727.285000", "181727.289000", "181727.292000", "181727.296000", "181727.299000", "181727.303000", "181727.306000", "181747.240000", "181747.244000", "181747.247000", "181747.251000", "181747.254000", "181747.257000", "181747.261000", "181747.264000", "181747.267000", "181747.271000", "181747.284000", "181747.288000", "181747.291000", "181747.294000", "181747.298000", "181747.301000", "181747.304000", "181747.308000", "181747.311000", "181747.315000", "181807.240000", "181807.244000", "181807.247000", "181807.251000", "181807.254000", "181807.257000", "181807.261000", "181807.264000", "181807.268000", "181807.271000", "181807.274000", "181807.278000", "181807.281000", "181807.284000", "181807.288000", "181807.291000", "181807.295000", "181807.298000", "181807.301000", "181807.305000", "181807.308000", "181827.240000", "181827.244000", "181827.247000", "181827.251000", "181827.254000", "181827.257000", "181827.261000", "181827.264000", "181827.268000", "181827.271000", "181827.274000", "181827.284000", "181827.287000", "181827.291000", "181827.294000", "181827.298000", "181827.301000", "181827.304000", "181827.308000", "181827.311000", "181907.240000", "181907.244000", "181907.247000", "181907.251000", "181907.254000", "181907.258000", "181907.261000", "181907.265000", "181907.268000", "181907.271000", "181907.275000", "181907.278000", "181907.282000", "181907.285000", "181907.288000", "181907.292000", "181907.295000", "181907.298000", "181907.302000", "181907.305000", "181907.309000", "181907.312000", "181907.315000", "181907.319000", "181907.322000", "181907.326000", "181907.329000", "181907.332000", "181947.240000", "181947.244000", "181947.247000", "181947.251000", "181947.254000", "181947.258000", "181947.261000", "181947.265000", "181947.276000", "181947.279000", "181947.283000", "181947.286000", "181947.290000", "181947.293000", "181947.296000", "181947.300000", "181947.303000", "181947.307000", "181947.310000", "181947.315000", "181947.318000", "181947.322000", "181947.325000", "181947.328000", "181947.332000", "181947.335000", "182027.240000", "182027.244000", "182027.247000", "182027.251000", "182027.254000", "182027.258000", "182027.262000", "182027.266000", "182027.269000", "182027.272000", "182027.276000", "182027.291000", "182027.294000", "182027.297000", "182027.301000", "182027.304000", "182027.308000", "182027.311000", "182027.315000", "182027.318000", "182027.321000", "182027.325000", "182027.328000", "182027.331000", "182027.335000", "182027.338000", "182027.342000", "182107.241000", "182107.245000", "182107.248000", "182107.252000", "182107.255000", "182107.259000", "182107.262000", "182107.266000", "182107.269000", "182107.272000", "182107.276000", "182107.279000", "182107.289000", "182107.292000", "182107.295000", "182107.299000", "182107.303000", "182107.306000", "182107.309000", "182107.313000", "182107.316000", "182107.320000", "182107.323000", "182107.327000", "182107.330000", "182107.333000", "182107.337000", "182147.240000", "182147.244000", "182147.247000", "182147.251000", "182147.254000", "182147.258000", "182147.261000", "182147.264000", "182147.268000", "182147.271000", "182147.275000", "182147.278000", "182147.282000", "182147.285000", "182147.288000", "182147.292000", "182147.295000", "182147.299000", "182147.302000", "182147.306000", "182147.309000", "182147.312000", "182147.316000", "182147.319000", "182147.323000", "182147.326000", "182147.329000", "182227.240000", "182227.244000", "182227.247000", "182227.251000", "182227.254000", "182227.258000", "182227.261000", "182227.264000", "182227.268000", "182227.271000", "182227.275000", "182227.278000", "182227.281000", "182227.285000", "182227.288000", "182227.292000", "182227.296000", "182227.299000", "182227.303000", "182227.306000", "182227.314000", "182227.318000", "182227.321000", "182227.325000", "182227.328000", "182227.332000", "182227.335000", "182307.240000", "182307.244000", "182307.247000", "182307.251000", "182307.254000", "182307.258000", "182307.261000", "182307.264000", "182307.268000", "182307.271000", "182307.275000", "182307.278000", "182307.281000", "182307.285000", "182307.288000", "182307.292000", "182307.295000", "182307.298000", "182307.302000", "182307.305000", "182307.309000", "182307.312000", "182307.316000", "182307.319000", "182307.323000", "182307.326000", "182307.330000", "182347.240000", "182347.244000", "182347.247000", "182347.251000", "182347.254000", "182347.258000", "182347.261000", "182347.265000", "182347.268000", "182347.272000", "182347.275000", "182347.279000", "182347.282000", "182347.285000", "182347.289000", "182347.292000", "182347.296000", "182347.299000", "182347.302000", "182347.306000", "182347.309000", "182347.317000", "182347.321000", "182347.324000", "182347.328000", "182347.331000", "182427.240000", "182427.244000", "182427.247000", "182427.251000", "182427.254000", "182427.258000", "182427.268000", "182427.271000", "182427.274000", "182427.278000", "182427.281000", "182427.285000", "182427.288000", "182427.292000", "182427.295000", "182427.299000", "182427.302000", "182427.305000", "182427.309000", "182427.312000", "182427.316000", "182427.319000", "182427.323000", "182427.327000", "182427.330000", "182427.334000", "182427.337000", "182507.240000", "182507.244000", "182507.248000", "182507.251000", "182507.255000", "182507.258000", "182507.261000", "182507.265000", "182507.268000", "182507.272000", "182507.288000", "182507.292000", "182507.295000", "182507.299000", "182507.302000", "182507.306000", "182507.309000", "182507.312000", "182507.316000", "182507.319000", "182507.323000", "182507.326000", "182507.330000", "182507.333000", "182507.337000", "182507.340000", "182507.343000", "182547.241000", "182547.245000", "182547.249000", "182547.252000", "182547.255000", "182547.259000", "182547.262000", "182547.266000", "182547.269000", "182547.273000", "182547.276000", "182547.279000", "182547.283000", "182547.286000", "182547.290000", "182547.293000", "182547.296000", "182547.300000", "182547.303000", "182547.307000", "182547.310000", "182547.313000", "182547.317000", "182547.320000", "182547.323000", "182547.327000", "182547.330000", "182627.240000", "182627.244000", "182627.247000", "182627.251000", "182627.254000", "182627.257000", "182627.261000", "182627.264000", "182627.268000", "182627.271000", "182627.275000", "182627.278000", "182627.281000", "182627.285000", "182627.288000", "182627.292000", "182627.295000", "182627.298000", "182627.302000", "182627.305000", "182627.308000", "182627.312000", "182627.315000", "182627.319000", "182627.322000", "182627.325000", "182627.329000", "182703.941000", "182703.944000", "182703.948000", "182703.951000", "182703.955000", "182703.958000", "182703.962000", "182703.965000", "182703.968000", "182703.972000", "182703.975000", "182703.979000", "182703.982000", "182703.985000", "182703.989000", "182703.992000", "182704.005000", "182704.009000", "182704.012000", "182704.016000", "182704.019000", "182704.022000", "182704.026000", "182704.029000"],
