{
  "AcquisitionMatrixPE": 104,
  "AcquisitionNumber": 1,
  "AcquisitionTime": "17:36:24.680000",
  "BandwidthPerPixelPhaseEncode": 17.17,
  "BaseResolution": 104,
  "BodyPartExamined": "BRAIN",
  "CoilCombinationMethod": "Sum of Squares",
  "ConsistencyInfo": "N4_VE11C_LATEST_20160120",
  "ConversionSoftware": "dcm2niix",
  "ConversionSoftwareVersion": "v1.0.20211006",
  "DerivedVendorReportedEchoSpacing": 0.000560011,
  "DeviceSerialNumber": "167006",
  "DwellTime": 2.1e-06,
  "EchoTime": 0.037,
  "EchoTime1": 0.037,
  "EchoTime2": 0.001,
  "EchoTrainLength": 104,
  "EffectiveEchoSpacing": 0.000560011,
  "FlipAngle": 52,
  "HeudiconvVersion": "0.10.0",
  "ImageComments": "Unaliased MB4/PE3/LB",
  "ImageOrientationPatientDICOM": [0.996599, 0.0708188, 0.0421305, -0.0473471, 0.910575, -0.410623],
  "ImageOrientationText": "Tra>Cor(-24.1)>Sag(3.9)",
  "ImageType": [
    "ORIGINAL",
    "PRIMARY",
    "P",
    "MB",
    "ND",
    "MOSAIC",
    "PHASE"
],
  "ImagingFrequency": 123.259,
  "InPlanePhaseEncodingDirectionDICOM": "COL",
  "InstitutionAddress": "Chemin Queen-Mary 4565,Montreal,District,CA,H3W 1W5",
  "InstitutionName": "IUGM",
  "InstitutionalDepartmentName": "Department",
  "MRAcquisitionType": "2D",
  "MagneticFieldStrength": 3,
  "Manufacturer": "Siemens",
  "ManufacturersModelName": "Prisma_fit",
  "MatrixCoilMode": "SENSE",
  "Modality": "MR",
  "MultibandAccelerationFactor": 4,
  "PartialFourier": 1,
  "PatientPosition": "HFS",
  "PercentPhaseFOV": 100,
  "PercentSampling": 100,
  "PhaseEncodingDirection": "j",
  "PhaseEncodingSteps": 104,
  "PhaseResolution": 1,
  "PixelBandwidth": 2290,
  "ProcedureStepDescription": "games^mario",
  "ProtocolName": "func_task-mario_run-01",
  "PulseSequenceDetails": "%CustomerSeq%\\cmrr_mbep2d_bold",
  "ReceiveCoilActiveElements": "HC1-7;NC1,2",
  "ReceiveCoilName": "HeadNeck_64",
  "ReconMatrixPE": 104,
  "RepetitionTime": 1.49,
  "SAR": 0.0776577,
  "ScanOptions": "FS",
  "ScanningSequence": "EP",
  "SequenceName": "epfid2d1_104",
  "SequenceVariant": "SK\\SS",
  "SeriesDescription": "func_task-mario_run-01",
  "SeriesNumber": 14,
  "ShimSetting": [628, -7185, -8824, 617, 58, -6, -67, 2],
  "SliceThickness": 2,
  "SliceTiming": [0, 0.7825, 0.0975, 0.88, 0.195, 0.98, 0.2925, 1.0775, 0.39, 1.175, 0.49, 1.2725, 0.5875, 1.37, 0.685, 0, 0.7825, 0.0975, 0.88, 0.195, 0.98, 0.2925, 1.0775, 0.39, 1.175, 0.49, 1.2725, 0.5875, 1.37, 0.685, 0, 0.7825, 0.0975, 0.88, 0.195, 0.98, 0.2925, 1.0775, 0.39, 1.175, 0.49, 1.2725, 0.5875, 1.37, 0.685, 0, 0.7825, 0.0975, 0.88, 0.195, 0.98, 0.2925, 1.0775, 0.39, 1.175, 0.49, 1.2725, 0.5875, 1.37, 0.685],
  "SoftwareVersions": "syngo MR E11",
  "SpacingBetweenSlices": 2,
  "StationName": "MRC35049",
  "TaskName": "mario",
  "TotalReadoutTime": 0.0576811,
  "TxRefAmp": 336.644,
  "WipMemBlock": "fdb74175-b9ce-441c-8b55-a2f129b075ad||Sequence: R016 ve11c/master r/e634e98; Dec 19 2017 11:00:25 by eja",
  "dcmmeta_affine": [
    [-1.9931981563568115, -0.09469426423311234, 0.13488562405109406, 107.82746887207031],
    [-0.1416376233100891, 1.8211504220962524, -0.8144629001617432, -48.332801818847656],
    [0.08426101505756378, 0.8212453722953796, 1.8216630220413208, -72.62409973144531],
    [0.0, 0.0, 0.0, 1.0]
],
  "dcmmeta_reorient_transform": [
    [0.0, -1.0, 0.0, 103.0],
    [1.0, 0.0, 0.0, 0.0],
    [0.0, 0.0, 1.0, 0.0],
    [0.0, 0.0, 0.0, 1.0]
],
  "dcmmeta_shape": [104, 104, 60, 433],
  "dcmmeta_slice_dim": 2,
  "dcmmeta_version": 0.6,
  "global": {
    "const": {
      "AcquisitionMatrix": [104, 0, 0, 104],
      "AngioFlag": "N",
      "BitsAllocated": 16,
      "BitsStored": 16,
      "BodyPartExamined": "BRAIN",
      "Columns": 832,
      "EchoNumbers": 1,
      "EchoTime": 37.0,
      "EchoTrainLength": 104,
      "FlipAngle": 52.0,
      "HighBit": 15,
      "ImageOrientationPatient": [0.99659907520699, 0.07081880793952, 0.04213050840667, -0.0473471335477, 0.91057523107024, -0.4106226948261],
      "ImagePositionPatient": [-789.12937060277, -853.70055792438, 280.22648840452],
      "ImageType": [
        "ORIGINAL",
        "PRIMARY",
        "P",
        "MB",
        "ND",
        "MOSAIC"
],
      "ImagedNucleus": "1H",
      "ImagingFrequency": 123.258849,
      "InPlanePhaseEncodingDirection": "COL",
      "LargestImagePixelValue": 4095,
      "MRAcquisitionType": "2D",
      "MagneticFieldStrength": 3.0,
      "Manufacturer": "SIEMENS",
      "ManufacturerModelName": "Prisma_fit",
      "Modality": "MR",
      "NumberOfAverages": 1.0,
      "NumberOfPhaseEncodingSteps": 104,
      "PercentPhaseFieldOfView": 100.0,
      "PercentSampling": 100.0,
      "PerformedProcedureStepStartTime": "172846.121000",
      "PhotometricInterpretation": "MONOCHROME2",
      "PixelBandwidth": 2290.0,
      "PixelRepresentation": 0,
      "PixelSpacing": [2.0, 2.0],
      "ProtocolName": "func_task-mario_run-01",
      "RepetitionTime": 1490.0,
      "RescaleIntercept": -4096.0,
      "RescaleSlope": 2.0,
      "RescaleType": "US",
      "Rows": 832,
      "SAR": 0.07765767434001,
      "SamplesPerPixel": 1,
      "ScanOptions": "FS",
      "ScanningSequence": "EP",
      "SequenceName": "epfid2d1_104",
      "SequenceVariant": [
        "SK",
        "SS"
],
      "SeriesDescription": "func_task-mario_run-01",
      "SeriesNumber": 14,
      "SeriesTime": "173747.410000",
      "SliceLocation": -39.193493805721,
      "SliceThickness": 2.0,
      "SmallestImagePixelValue": 0,
      "SoftwareVersions": "syngo MR E11",
      "SpacingBetweenSlices": 2.00000005889,
      "SpecificCharacterSet": "ISO_IR 100",
      "StudyID": "1",
      "StudyTime": "172846.068000",
      "TransmitCoilName": "Body",
      "VariableFlipAngleFlag": "N",
      "WindowCenterWidthExplanation": "Algo1",
      "dBdt": 0.0},
    "slices": {}
  },
  "time": {
    "samples": {
      "AcquisitionNumber": [1, 2, 3, 4, 5, 6, 7, 8, 9, 10, 11, 12, 13, 14, 15, 16, 17, 18, 19, 20, 21, 22, 23, 24, 25, 26, 27, 28, 29, 30, 31, 32, 33, 34, 35, 36, 37, 38, 39, 40, 41, 42, 43, 44, 45, 46, 47, 48, 49, 50, 51, 52, 53, 54, 55, 56, 57, 58, 59, 60, 61, 62, 63, 64, 65, 66, 67, 68, 69, 70, 71, 72, 73, 74, 75, 76, 77, 78, 79, 80, 81, 82, 83, 84, 85, 86, 87, 88, 89, 90, 91, 92, 93, 94, 95, 96, 97, 98, 99, 100, 101, 102, 103, 104, 105, 106, 107, 108, 109, 110, 111, 112, 113, 114, 115, 116, 117, 118, 119, 120, 121, 122, 123, 124, 125, 126, 127, 128, 129, 130, 131, 132, 133, 134, 135, 136, 137, 138, 139, 140, 141, 142, 143, 144, 145, 146, 147, 148, 149, 150, 151, 152, 153, 154, 155, 156, 157, 158, 159, 160, 161, 162, 163, 164, 165, 166, 167, 168, 169, 170, 171, 172, 173, 174, 175, 176, 177, 178, 179, 180, 181, 182, 183, 184, 185, 186, 187, 188, 189, 190, 191, 192, 193, 194, 195, 196, 197, 198, 199, 200, 201, 202, 203, 204, 205, 206, 207, 208, 209, 210, 211, 212, 213, 214, 215, 216, 217, 218, 219, 220, 221, 222, 223, 224, 225, 226, 227, 228, 229, 230, 231, 232, 233, 234, 235, 236, 237, 238, 239, 240, 241, 242, 243, 244, 245, 246, 247, 248, 249, 250, 251, 252, 253, 254, 255, 256, 257, 258, 259, 260, 261, 262, 263, 264, 265, 266, 267, 268, 269, 270, 271, 272, 273, 274, 275, 276, 277, 278, 279, 280, 281, 282, 283, 284, 285, 286, 287, 288, 289, 290, 291, 292, 293, 294, 295, 296, 297, 298, 299, 300, 301, 302, 303, 304, 305, 306, 307, 308, 309, 310, 311, 312, 313, 314, 315, 316, 317, 318, 319, 320, 321, 322, 323, 324, 325, 326, 327, 328, 329, 330, 331, 332, 333, 334, 335, 336, 337, 338, 339, 340, 341, 342, 343, 344, 345, 346, 347, 348, 349, 350, 351, 352, 353, 354, 355, 356, 357, 358, 359, 360, 361, 362, 363, 364, 365, 366, 367, 368, 369, 370, 371, 372, 373, 374, 375, 376, 377, 378, 379, 380, 381, 382, 383, 384, 385, 386, 387, 388, 389, 390, 391, 392, 393, 394, 395, 396, 397, 398, 399, 400, 401, 402, 403, 404, 405, 406, 407, 408, 409, 410, 411, 412, 413, 414, 415, 416, 417, 418, 419, 420, 421, 422, 423, 424, 425, 426, 427, 428, 429, 430, 431, 432, 433],
      "AcquisitionTime": ["173624.680000", "173626.170000", "173627.660000", "173629.150000", "173630.640000", "173632.130000", "173633.620000", "173635.110000", "173636.600000", "173638.090000", "173639.580000", "173641.070000", "173642.560000", "173644.050000", "173645.540000", "173647.030000", "173648.520000", "173650.010000", "173651.500000", "173652.990000", "173654.480000", "173655.970000", "173657.460000", "173658.950000", "173700.440000", "173701.930000", "173703.420000", "173704.910000", "173706.400000", "173707.890000", "173709.380000", "173710.870000", "173712.360000", "173713.850000", "173715.340000", "173716.830000", "173718.320000", "173719.810000", "173721.300000", "173722.790000", "173724.280000", "173725.770000", "173727.260000", "173728.750000", "173730.240000", "173731.730000", "173733.220000", "173734.710000", "173736.200000", "173737.690000", "173739.180000", "173740.670000", "173742.160000", "173743.650000", "173745.140000", "173746.630000", "173748.120000", "173749.610000", "173751.100000", "173752.590000", "173754.080000", "173755.570000", "173757.060000", "173758.550000", "173800.040000", "173801.530000", "173803.020000", "173804.510000", "173806.000000", "173807.490000", "173808.980000", "173810.470000", "173811.960000", "173813.450000", "173814.940000", "173816.430000", "173817.920000", "173819.410000", "173820.900000", "173822.390000", "173823.880000", "173825.370000", "173826.860000", "173828.350000", "173829.840000", "173831.330000", "173832.820000", "173834.310000", "173835.800000", "173837.290000", "173838.780000", "173840.270000", "173841.760000", "173843.250000", "173844.740000", "173846.230000", "173847.720000", "173849.210000", "173850.700000", "173852.190000", "173853.680000", "173855.170000", "173856.660000", "173858.150000", "173859.640000", "173901.130000", "173902.620000", "173904.110000", "173905.600000", "173907.090000", "173908.580000", "173910.070000", "173911.560000", "173913.050000", "173914.540000", "173916.030000", "173917.520000", "173919.010000", "173920.500000", "173921.990000", "173923.480000", "173924.970000", "173926.460000", "173927.950000", "173929.440000", "173930.930000", "173932.420000", "173933.910000", "173935.400000", "173936.890000", "173938.380000", "173939.870000", "173941.360000", "173942.850000", "173944.340000", "173945.830000", "173947.320000", "173948.810000", "173950.300000", "173951.790000", "173953.280000", "173954.770000", "173956.260000", "173957.750000", "173959.240000", "174000.730000", "174002.220000", "174003.710000", "174005.200000", "174006.690000", "174008.180000", "174009.670000", "174011.160000", "174012.650000", "174014.140000", "174015.630000", "174017.120000", "174018.610000", "174020.100000", "174021.590000", "174023.080000", "174024.570000", "174026.060000", "174027.550000", "174029.040000", "174030.530000", "174032.020000", "174033.510000", "174035.000000", "174036.490000", "174037.980000", "174039.470000", "174040.960000", "174042.450000", "174043.940000", "174045.430000", "174046.920000", "174048.410000", "174049.900000", "174051.390000", "174052.880000", "174054.370000", "174055.860000", "174057.350000", "174058.840000", "174100.330000", "174101.820000", "174103.310000", "174104.800000", "174106.290000", "174107.780000", "174109.270000", "174110.760000", "174112.250000", "174113.740000", "174115.230000", "174116.720000", "174118.210000", "174119.700000", "174121.190000", "174122.680000", "174124.170000", "174125.660000", "174127.150000", "174128.640000", "174130.130000", "174131.620000", "174133.110000", "174134.600000", "174136.090000", "174137.580000", "174139.070000", "174140.560000", "174142.050000", "174143.540000", "174145.030000", "174146.520000", "174148.010000", "174149.500000", "174150.990000", "174152.480000", "174153.970000", "174155.460000", "174156.950000", "174158.440000", "174159.930000", "174201.420000", "174202.910000", "174204.400000", "174205.890000", "174207.380000", "174208.870000", "174210.360000", "174211.850000", "174213.340000", "174214.830000", "174216.320000", "174217.810000", "174219.300000", "174220.790000", "174222.280000", "174223.770000", "174225.260000", "174226.750000", "174228.240000", "174229.730000", "174231.220000", "174232.710000", "174234.200000", "174235.690000", "174237.180000", "174238.670000", "174240.160000", "174241.650000", "174243.140000", "174244.630000", "174246.120000", "174247.610000", "174249.100000", "174250.590000", "174252.080000", "174253.570000", "174255.060000", "174256.550000", "174258.040000", "174259.530000", "174301.020000", "174302.510000", "174304.000000", "174305.490000", "174306.980000", "174308.470000", "174309.960000", "174311.450000", "174312.940000", "174314.430000", "174315.920000", "174317.410000", "174318.900000", "174320.390000", "174321.880000", "174323.370000", "174324.860000", "174326.350000", "174327.840000", "174329.330000", "174330.820000", "174332.310000", "174333.800000", "174335.290000", "174336.780000", "174338.270000", "174339.760000", "174341.250000", "174342.740000", "174344.230000", "174345.720000", "174347.210000", "174348.700000", "174350.190000", "174351.680000", "174353.170000", "174354.660000", "174356.150000", "174357.640000", "174359.130000", "174400.620000", "174402.110000", "174403.600000", "174405.090000", "174406.580000", "174408.070000", "174409.560000", "174411.050000", "174412.540000", "174414.030000", "174415.520000", "174417.010000", "174418.500000", "174419.990000", "174421.480000", "174422.970000", "174424.460000", "174425.950000", "174427.440000", "174428.930000", "174430.420000", "174431.910000", "174433.400000", "174434.890000", "174436.380000", "174437.870000", "174439.360000", "174440.850000", "174442.340000", "174443.830000", "174445.320000", "174446.810000", "174448.300000", "174449.790000", "174451.280000", "174452.770000", "174454.260000", "174455.750000", "174457.240000", "174458.730000", "174500.220000", "174501.710000", "174503.200000", "174504.690000", "174506.180000", "174507.670000", "174509.160000", "174510.650000", "174512.140000", "174513.630000", "174515.120000", "174516.610000", "174518.100000", "174519.590000", "174521.080000", "174522.570000", "174524.060000", "174525.550000", "174527.040000", "174528.530000", "174530.020000", "174531.510000", "174533.000000", "174534.490000", "174535.980000", "174537.470000", "174538.960000", "174540.450000", "174541.940000", "174543.430000", "174544.920000", "174546.410000", "174547.900000", "174549.390000", "174550.880000", "174552.370000", "174553.860000", "174555.350000", "174556.840000", "174558.330000", "174559.820000", "174601.310000", "174602.800000", "174604.290000", "174605.780000", "174607.270000", "174608.760000", "174610.250000", "174611.740000", "174613.230000", "174614.720000", "174616.210000", "174617.700000", "174619.190000", "174620.680000", "174622.170000", "174623.660000", "174625.150000", "174626.640000", "174628.130000", "174629.620000", "174631.110000", "174632.600000", "174634.090000", "174635.580000", "174637.070000", "174638.560000", "174640.050000", "174641.540000", "174643.030000", "174644.520000", "174646.010000", "174647.500000", "174648.990000", "174650.480000", "174651.970000", "174653.460000", "174654.950000", "174656.440000", "174657.930000", "174659.420000", "174700.910000", "174702.400000", "174703.890000", "174705.380000", "174706.870000", "174708.360000"],
      "ContentTime": ["173747.412000", "173747.414000", "173747.417000", "173747.420000", "173747.422000", "173747.425000", "173747.427000", "173747.430000", "173747.433000", "173747.435000", "173747.438000", "173747.440000", "173747.443000", "173747.445000", "173747.448000", "173747.450000", "173747.453000", "173747.455000", "173747.458000", "173747.461000", "173747.463000", "173747.466000", "173747.468000", "173747.471000", "173747.474000", "173747.476000", "173807.386000", "173807.389000", "173807.392000", "173807.394000", "173807.397000", "173807.399000", "173807.402000", "173807.404000", "173807.407000", "173807.409000", "173807.412000", "173807.414000", "173807.417000", "173807.419000", "173807.422000", "173807.424000", "173807.427000", "173807.435000", "173807.437000", "173807.440000", "173807.442000", "173827.345000", "173827.348000", "173827.350000", "173827.353000", "173827.355000", "173827.358000", "173827.360000", "173827.363000", "173827.366000", "173827.368000", "173827.371000", "173827.373000", "173827.376000", "173827.378000", "173827.381000", "173827.383000", "173827.386000", "173827.388000", "173827.391000", "173827.393000", "173847.350000", "173847.353000", "173847.355000", "173847.358000", "173847.360000", "173847.363000", "173847.365000", "173847.368000", "173847.370000", "173847.373000", "173847.375000", "173847.378000", "173847.380000", "173847.383000", "173847.385000", "173847.388000", "173847.390000", "173847.393000", "173847.395000", "173847.398000", "173907.360000", "173907.363000", "173907.365000", "173907.368000", "173907.370000", "173907.373000", "173907.375000", "173907.378000", "173907.380000", "173907.383000", "173907.385000", "173907.388000", "173907.390000", "173907.393000", "173907.396000", "173907.398000", "173907.401000", "173907.403000", "173907.406000", "173907.408000", "173947.380000", "173947.383000", "173947.386000", "173947.388000", "173947.391000", "173947.393000", "173947.407000", "173947.409000", "173947.412000", "173947.414000", "173947.418000", "173947.420000", "173947.423000", "173947.425000", "173947.428000", "173947.437000", "173947.439000", "173947.442000", "173947.444000", "173947.447000", "173947.450000", "173947.452000", "173947.455000", "173947.457000", "173947.460000", "173947.462000", "173947.474000", "173947.477000", "174027.388000", "174027.391000", "174027.393000", "174027.396000", "174027.398000", "174027.401000", "174027.403000", "174027.406000", "174027.416000", "174027.419000", "174027.421000", "174027.424000", "174027.426000", "174027.429000", "174027.431000", "174027.434000", "174027.437000", "174027.439000", "174027.442000", "174027.444000", "174027.447000", "174027.449000", "174027.452000", "174027.454000", "174027.457000", "174027.459000", "174027.462000", "174107.441000", "174107.443000", "174107.446000", "174107.448000", "174107.451000", "174107.453000", "174107.456000", "174107.458000", "174107.461000", "174107.463000", "174107.466000", "174107.469000", "174107.471000", "174107.474000", "174107.476000", "174107.479000", "174107.481000", "174107.484000", "174107.486000", "174107.489000", "174107.491000", "174107.494000", "174107.496000", "174107.499000", "174107.501000", "174107.504000", "174147.410000", "174147.412000", "174147.415000", "174147.417000", "174147.420000", "174147.423000", "174147.425000", "174147.428000", "174147.430000", "174147.433000", "174147.435000", "174147.438000", "174147.440000", "174147.443000", "174147.445000", "174147.448000", "174147.451000", "174147.453000", "174147.456000", "174147.458000", "174147.461000", "174147.463000", "174147.466000", "174147.469000", "174147.471000", "174147.474000", "174147.476000", "174227.389000", "174227.391000", "174227.394000", "174227.396000", "174227.399000", "174227.401000", "174227.404000", "174227.407000", "174227.409000", "174227.412000", "174227.414000", "174227.417000", "174227.419000", "174227.422000", "174227.424000", "174227.427000", "174227.429000", "174227.432000", "174227.434000", "174227.437000", "174227.439000", "174227.442000", "174227.445000", "174227.447000", "174227.450000", "174227.452000", "174227.455000", "174307.390000", "174307.393000", "174307.396000", "174307.398000", "174307.401000", "174307.403000", "174307.406000", "174307.408000", "174307.411000", "174307.414000", "174307.416000", "174307.419000", "174307.421000", "174307.424000", "174307.427000", "174307.429000", "174307.432000", "174307.434000", "174307.437000", "174307.439000", "174307.442000", "174307.444000", "174307.447000", "174307.450000", "174307.452000", "174307.455000", "174307.457000", "174347.380000", "174347.383000", "174347.385000", "174347.388000", "174347.391000", "174347.393000", "174347.396000", "174347.398000", "174347.401000", "174347.403000", "174347.406000", "174347.408000", "174347.411000", "174347.413000", "174347.416000", "174347.418000", "174347.421000", "174347.423000", "174347.426000", "174347.428000", "174347.431000", "174347.434000", "174347.436000", "174347.439000", "174347.441000", "174347.444000", "174347.446000", "174427.394000", "174427.397000", "174427.400000", "174427.402000", "174427.405000", "174427.407000", "174427.410000", "174427.412000", "174427.415000", "174427.417000", "174427.420000", "174427.428000", "174427.431000", "174427.433000", "174427.436000", "174427.438000", "174427.446000", "174427.448000", "174427.451000", "174427.454000", "174427.456000", "174427.459000", "174427.462000", "174427.464000", "174427.467000", "174427.469000", "174427.472000", "174507.396000", "174507.399000", "174507.402000", "174507.404000", "174507.407000", "174507.409000", "174507.412000", "174507.414000", "174507.417000", "174507.419000", "174507.422000", "174507.425000", "174507.427000", "174507.430000", "174507.432000", "174507.435000", "174507.437000", "174507.440000", "174507.442000", "174507.445000", "174507.447000", "174507.450000", "174507.452000", "174507.455000", "174507.457000", "174507.460000", "174507.463000", "174547.376000", "174547.379000", "174547.381000", "174547.384000", "174547.386000", "174547.389000", "174547.391000", "174547.394000", "174547.396000", "174547.399000", "174547.401000", "174547.404000", "174547.407000", "174547.409000", "174547.412000", "174547.414000", "174547.417000", "174547.427000", "174547.429000", "174547.432000", "174547.435000", "174547.437000", "174547.440000", "174547.442000", "174547.445000", "174547.448000", "174627.396000", "174627.399000", "174627.402000", "174627.404000", "174627.407000", "174627.409000", "174627.412000", "174627.414000", "174627.417000", "174627.419000", "174627.422000", "174627.424000", "174627.427000", "174627.429000", "174627.432000", "174627.435000", "174627.437000", "174627.440000", "174627.442000", "174627.445000", "174627.447000", "174627.450000", "174627.452000", "174627.455000", "174627.457000", "174627.460000", "174627.462000", "174707.399000", "174707.402000", "174707.404000", "174707.407000", "174707.409000", "174707.412000", "174707.414000", "174707.417000", "174707.419000", "174707.422000", "174707.424000", "174707.427000", "174707.430000", "174707.432000", "174707.435000", "174707.437000", "174707.440000", "174707.442000", "174707.445000", "174707.447000", "174707.450000", "174707.452000", "174707.455000", "174707.457000", "174707.460000", "174707.463000", "174707.465000", "174711.436000", "174711.439000", "174711.442000"],
