{
  "AcquisitionMatrixPE": 104,
  "AcquisitionNumber": 1,
  "AcquisitionTime": "18:15:52.460000",
  "BandwidthPerPixelPhaseEncode": 17.17,
  "BaseResolution": 104,
  "BodyPartExamined": "BRAIN",
  "CoilCombinationMethod": "Sum of Squares",
  "ConsistencyInfo": "N4_VE11C_LATEST_20160120",
  "ConversionSoftware": "dcm2niix",
  "ConversionSoftwareVersion": "v1.0.20211006",
  "DerivedVendorReportedEchoSpacing": 0.000560011,
  "DeviceSerialNumber": "167006",
  "DwellTime": 2.1e-06,
  "EchoTime": 0.037,
  "EchoTime1": 0.037,
  "EchoTime2": 0.001,
  "EchoTrainLength": 104,
  "EffectiveEchoSpacing": 0.000560011,
  "FlipAngle": 52,
  "HeudiconvVersion": "0.10.0",
  "ImageComments": "Unaliased MB4/PE3/LB",
  "ImageOrientationPatientDICOM": [0.996599, 0.0708188, 0.0421305, -0.0473471, 0.910575, -0.410623],
  "ImageOrientationText": "Tra>Cor(-24.1)>Sag(3.9)",
  "ImageType": [
    "ORIGINAL",
    "PRIMARY",
    "P",
    "MB",
    "ND",
    "MOSAIC",
    "PHASE"
],
  "ImagingFrequency": 123.259,
  "InPlanePhaseEncodingDirectionDICOM": "COL",
  "InstitutionAddress": "Chemin Queen-Mary 4565,Montreal,District,CA,H3W 1W5",
  "InstitutionName": "IUGM",
  "InstitutionalDepartmentName": "Department",
  "MRAcquisitionType": "2D",
  "MagneticFieldStrength": 3,
  "Manufacturer": "Siemens",
  "ManufacturersModelName": "Prisma_fit",
  "MatrixCoilMode": "SENSE",
  "Modality": "MR",
  "MultibandAccelerationFactor": 4,
  "PartialFourier": 1,
  "PatientPosition": "HFS",
  "PercentPhaseFOV": 100,
  "PercentSampling": 100,
  "PhaseEncodingDirection": "j",
  "PhaseEncodingSteps": 104,
  "PhaseResolution": 1,
  "PixelBandwidth": 2290,
  "ProcedureStepDescription": "games^mario",
  "ProtocolName": "func_task-mario_run-04",
  "PulseSequenceDetails": "%CustomerSeq%\\cmrr_mbep2d_bold",
  "ReceiveCoilActiveElements": "HC1-7;NC1,2",
  "ReceiveCoilName": "HeadNeck_64",
  "ReconMatrixPE": 104,
  "RepetitionTime": 1.49,
  "SAR": 0.0776577,
  "ScanOptions": "FS",
  "ScanningSequence": "EP",
  "SequenceName": "epfid2d1_104",
  "SequenceVariant": "SK\\SS",
  "SeriesDescription": "func_task-mario_run-04",
  "SeriesNumber": 23,
  "ShimSetting": [628, -7185, -8824, 617, 58, -6, -67, 2],
  "SliceThickness": 2,
  "SliceTiming": [0, 0.785, 0.1, 0.8825, 0.1975, 0.98, 0.295, 1.08, 0.3925, 1.1775, 0.49, 1.275, 0.59, 1.3725, 0.6875, 0, 0.785, 0.1, 0.8825, 0.1975, 0.98, 0.295, 1.08, 0.3925, 1.1775, 0.49, 1.275, 0.59, 1.3725, 0.6875, 0, 0.785, 0.1, 0.8825, 0.1975, 0.98, 0.295, 1.08, 0.3925, 1.1775, 0.49, 1.275, 0.59, 1.3725, 0.6875, 0, 0.785, 0.1, 0.8825, 0.1975, 0.98, 0.295, 1.08, 0.3925, 1.1775, 0.49, 1.275, 0.59, 1.3725, 0.6875],
  "SoftwareVersions": "syngo MR E11",
  "SpacingBetweenSlices": 2,
  "StationName": "MRC35049",
  "TaskName": "mario",
  "TotalReadoutTime": 0.0576811,
  "TxRefAmp": 336.644,
  "WipMemBlock": "953e1ddd-8d8c-495d-afa8-c010a33eb3f8||Sequence: R016 ve11c/master r/e634e98; Dec 19 2017 11:00:25 by eja",
  "dcmmeta_affine": [
    [-1.9931981563568115, -0.09469426423311234, 0.13488562405109406, 107.82746887207031],
    [-0.1416376233100891, 1.8211504220962524, -0.8144629001617432, -48.332801818847656],
    [0.08426101505756378, 0.8212453722953796, 1.8216630220413208, -72.62409973144531],
    [0.0, 0.0, 0.0, 1.0]
],
  "dcmmeta_reorient_transform": [
    [0.0, -1.0, 0.0, 103.0],
    [1.0, 0.0, 0.0, 0.0],
    [0.0, 0.0, 1.0, 0.0],
    [0.0, 0.0, 0.0, 1.0]
],
  "dcmmeta_shape": [104, 104, 60, 449],
  "dcmmeta_slice_dim": 2,
  "dcmmeta_version": 0.6,
  "global": {
    "const": {
      "AcquisitionMatrix": [104, 0, 0, 104],
      "AngioFlag": "N",
      "BitsAllocated": 16,
      "BitsStored": 16,
      "BodyPartExamined": "BRAIN",
      "Columns": 832,
      "EchoNumbers": 1,
      "EchoTime": 37.0,
      "EchoTrainLength": 104,
      "FlipAngle": 52.0,
      "HighBit": 15,
      "ImageOrientationPatient": [0.99659907520699, 0.07081880793952, 0.04213050840667, -0.0473471335477, 0.91057523107024, -0.4106226948261],
      "ImagePositionPatient": [-789.12937060277, -853.70055792438, 280.22648840452],
      "ImageType": [
        "ORIGINAL",
        "PRIMARY",
        "P",
        "MB",
        "ND",
        "MOSAIC"
],
      "ImagedNucleus": "1H",
      "ImagingFrequency": 123.258872,
      "InPlanePhaseEncodingDirection": "COL",
      "LargestImagePixelValue": 4095,
      "MRAcquisitionType": "2D",
      "MagneticFieldStrength": 3.0,
      "Manufacturer": "SIEMENS",
      "ManufacturerModelName": "Prisma_fit",
      "Modality": "MR",
      "NumberOfAverages": 1.0,
      "NumberOfPhaseEncodingSteps": 104,
      "PercentPhaseFieldOfView": 100.0,
      "PercentSampling": 100.0,
      "PerformedProcedureStepStartTime": "172846.121000",
      "PhotometricInterpretation": "MONOCHROME2",
      "PixelBandwidth": 2290.0,
      "PixelRepresentation": 0,
      "PixelSpacing": [2.0, 2.0],
      "ProtocolName": "func_task-mario_run-04",
      "RepetitionTime": 1490.0,
      "RescaleIntercept": -4096.0,
      "RescaleSlope": 2.0,
      "RescaleType": "US",
      "Rows": 832,
      "SAR": 0.07765767434001,
      "SamplesPerPixel": 1,
      "ScanOptions": "FS",
      "ScanningSequence": "EP",
      "SequenceName": "epfid2d1_104",
      "SequenceVariant": [
        "SK",
        "SS"
],
      "SeriesDescription": "func_task-mario_run-04",
      "SeriesNumber": 23,
      "SeriesTime": "181707.763000",
      "SliceLocation": -39.193493805721,
      "SliceThickness": 2.0,
      "SmallestImagePixelValue": 0,
      "SoftwareVersions": "syngo MR E11",
      "SpacingBetweenSlices": 2.00000005889,
      "SpecificCharacterSet": "ISO_IR 100",
      "StudyID": "1",
      "StudyTime": "172846.068000",
      "TransmitCoilName": "Body",
      "VariableFlipAngleFlag": "N",
      "WindowCenterWidthExplanation": "Algo1",
      "dBdt": 0.0},
    "slices": {}
  },
  "time": {
    "samples": {
      "AcquisitionNumber": [1, 2, 3, 4, 5, 6, 7, 8, 9, 10, 11, 12, 13, 14, 15, 16, 17, 18, 19, 20, 21, 22, 23, 24, 25, 26, 27, 28, 29, 30, 31, 32, 33, 34, 35, 36, 37, 38, 39, 40, 41, 42, 43, 44, 45, 46, 47, 48, 49, 50, 51, 52, 53, 54, 55, 56, 57, 58, 59, 60, 61, 62, 63, 64, 65, 66, 67, 68, 69, 70, 71, 72, 73, 74, 75, 76, 77, 78, 79, 80, 81, 82, 83, 84, 85, 86, 87, 88, 89, 90, 91, 92, 93, 94, 95, 96, 97, 98, 99, 100, 101, 102, 103, 104, 105, 106, 107, 108, 109, 110, 111, 112, 113, 114, 115, 116, 117, 118, 119, 120, 121, 122, 123, 124, 125, 126, 127, 128, 129, 130, 131, 132, 133, 134, 135, 136, 137, 138, 139, 140, 141, 142, 143, 144, 145, 146, 147, 148, 149, 150, 151, 152, 153, 154, 155, 156, 157, 158, 159, 160, 161, 162, 163, 164, 165, 166, 167, 168, 169, 170, 171, 172, 173, 174, 175, 176, 177, 178, 179, 180, 181, 182, 183, 184, 185, 186, 187, 188, 189, 190, 191, 192, 193, 194, 195, 196, 197, 198, 199, 200, 201, 202, 203, 204, 205, 206, 207, 208, 209, 210, 211, 212, 213, 214, 215, 216, 217, 218, 219, 220, 221, 222, 223, 224, 225, 226, 227, 228, 229, 230, 231, 232, 233, 234, 235, 236, 237, 238, 239, 240, 241, 242, 243, 244, 245, 246, 247, 248, 249, 250, 251, 252, 253, 254, 255, 256, 257, 258, 259, 260, 261, 262, 263, 264, 265, 266, 267, 268, 269, 270, 271, 272, 273, 274, 275, 276, 277, 278, 279, 280, 281, 282, 283, 284, 285, 286, 287, 288, 289, 290, 291, 292, 293, 294, 295, 296, 297, 298, 299, 300, 301, 302, 303, 304, 305, 306, 307, 308, 309, 310, 311, 312, 313, 314, 315, 316, 317, 318, 319, 320, 321, 322, 323, 324, 325, 326, 327, 328, 329, 330, 331, 332, 333, 334, 335, 336, 337, 338, 339, 340, 341, 342, 343, 344, 345, 346, 347, 348, 349, 350, 351, 352, 353, 354, 355, 356, 357, 358, 359, 360, 361, 362, 363, 364, 365, 366, 367, 368, 369, 370, 371, 372, 373, 374, 375, 376, 377, 378, 379, 380, 381, 382, 383, 384, 385, 386, 387, 388, 389, 390, 391, 392, 393, 394, 395, 396, 397, 398, 399, 400, 401, 402, 403, 404, 405, 406, 407, 408, 409, 410, 411, 412, 413, 414, 415, 416, 417, 418, 419, 420, 421, 422, 423, 424, 425, 426, 427, 428, 429, 430, 431, 432, 433, 434, 435, 436, 437, 438, 439, 440, 441, 442, 443, 444, 445, 446, 447, 448, 449],
      "AcquisitionTime": ["181552.460000", "181553.950000", "181555.440000", "181556.930000", "181558.420000", "181559.910000", "181601.400000", "181602.890000", "181604.380000", "181605.870000", "181607.360000", "181608.850000", "181610.340000", "181611.830000", "181613.320000", "181614.810000", "181616.300000", "181617.790000", "181619.280000", "181620.770000", "181622.260000", "181623.750000", "181625.240000", "181626.730000", "181628.220000", "181629.710000", "181631.200000", "181632.690000", "181634.180000", "181635.670000", "181637.160000", "181638.650000", "181640.140000", "181641.630000", "181643.120000", "181644.610000", "181646.100000", "181647.590000", "181649.080000", "181650.570000", "181652.060000", "181653.550000", "181655.040000", "181656.530000", "181658.020000", "181659.510000", "181701.000000", "181702.490000", "181703.980000", "181705.470000", "181706.960000", "181708.450000", "181709.940000", "181711.430000", "181712.920000", "181714.410000", "181715.900000", "181717.390000", "181718.880000", "181720.370000", "181721.860000", "181723.350000", "181724.840000", "181726.330000", "181727.820000", "181729.310000", "181730.800000", "181732.290000", "181733.780000", "181735.270000", "181736.760000", "181738.250000", "181739.740000", "181741.230000", "181742.720000", "181744.210000", "181745.700000", "181747.190000", "181748.680000", "181750.170000", "181751.660000", "181753.150000", "181754.640000", "181756.130000", "181757.620000", "181759.110000", "181800.600000", "181802.090000", "181803.580000", "181805.070000", "181806.560000", "181808.050000", "181809.540000", "181811.030000", "181812.520000", "181814.010000", "181815.500000", "181816.990000", "181818.480000", "181819.970000", "181821.460000", "181822.950000", "181824.440000", "181825.930000", "181827.420000", "181828.910000", "181830.400000", "181831.890000", "181833.380000", "181834.870000", "181836.360000", "181837.850000", "181839.340000", "181840.830000", "181842.320000", "181843.810000", "181845.300000", "181846.790000", "181848.280000", "181849.770000", "181851.260000", "181852.750000", "181854.240000", "181855.730000", "181857.220000", "181858.710000", "181900.200000", "181901.690000", "181903.180000", "181904.670000", "181906.160000", "181907.650000", "181909.140000", "181910.630000", "181912.120000", "181913.610000", "181915.100000", "181916.590000", "181918.080000", "181919.570000", "181921.060000", "181922.550000", "181924.040000", "181925.530000", "181927.020000", "181928.510000", "181930.000000", "181931.490000", "181932.980000", "181934.470000", "181935.960000", "181937.450000", "181938.940000", "181940.430000", "181941.920000", "181943.410000", "181944.900000", "181946.390000", "181947.880000", "181949.370000", "181950.860000", "181952.350000", "181953.840000", "181955.330000", "181956.820000", "181958.310000", "181959.800000", "182001.290000", "182002.780000", "182004.270000", "182005.760000", "182007.250000", "182008.740000", "182010.230000", "182011.720000", "182013.210000", "182014.700000", "182016.190000", "182017.680000", "182019.170000", "182020.660000", "182022.150000", "182023.640000", "182025.130000", "182026.620000", "182028.110000", "182029.600000", "182031.090000", "182032.580000", "182034.070000", "182035.560000", "182037.050000", "182038.540000", "182040.030000", "182041.520000", "182043.010000", "182044.500000", "182045.990000", "182047.480000", "182048.970000", "182050.460000", "182051.950000", "182053.440000", "182054.930000", "182056.420000", "182057.910000", "182059.400000", "182100.890000", "182102.380000", "182103.870000", "182105.360000", "182106.850000", "182108.340000", "182109.830000", "182111.320000", "182112.810000", "182114.300000", "182115.790000", "182117.280000", "182118.770000", "182120.260000", "182121.750000", "182123.240000", "182124.730000", "182126.220000", "182127.710000", "182129.200000", "182130.690000", "182132.180000", "182133.670000", "182135.160000", "182136.650000", "182138.140000", "182139.630000", "182141.120000", "182142.610000", "182144.100000", "182145.590000", "182147.080000", "182148.570000", "182150.060000", "182151.550000", "182153.040000", "182154.530000", "182156.020000", "182157.510000", "182159.000000", "182200.490000", "182201.980000", "182203.470000", "182204.960000", "182206.450000", "182207.940000", "182209.430000", "182210.920000", "182212.410000", "182213.900000", "182215.390000", "182216.880000", "182218.370000", "182219.860000", "182221.350000", "182222.840000", "182224.330000", "182225.820000", "182227.310000", "182228.800000", "182230.290000", "182231.780000", "182233.270000", "182234.760000", "182236.250000", "182237.740000", "182239.230000", "182240.720000", "182242.210000", "182243.700000", "182245.190000", "182246.680000", "182248.170000", "182249.660000", "182251.150000", "182252.640000", "182254.130000", "182255.620000", "182257.110000", "182258.600000", "182300.090000", "182301.580000", "182303.070000", "182304.560000", "182306.050000", "182307.540000", "182309.030000", "182310.520000", "182312.010000", "182313.500000", "182314.990000", "182316.480000", "182317.970000", "182319.460000", "182320.950000", "182322.440000", "182323.930000", "182325.420000", "182326.910000", "182328.400000", "182329.890000", "182331.380000", "182332.870000", "182334.360000", "182335.850000", "182337.340000", "182338.830000", "182340.320000", "182341.810000", "182343.300000", "182344.790000", "182346.280000", "182347.770000", "182349.260000", "182350.750000", "182352.240000", "182353.730000", "182355.220000", "182356.710000", "182358.200000", "182359.690000", "182401.180000", "182402.670000", "182404.160000", "182405.650000", "182407.140000", "182408.630000", "182410.120000", "182411.610000", "182413.100000", "182414.590000", "182416.080000", "182417.570000", "182419.060000", "182420.550000", "182422.040000", "182423.530000", "182425.020000", "182426.510000", "182428.000000", "182429.490000", "182430.980000", "182432.470000", "182433.960000", "182435.450000", "182436.940000", "182438.430000", "182439.920000", "182441.410000", "182442.900000", "182444.390000", "182445.880000", "182447.370000", "182448.860000", "182450.350000", "182451.840000", "182453.330000", "182454.820000", "182456.310000", "182457.800000", "182459.290000", "182500.780000", "182502.270000", "182503.760000", "182505.250000", "182506.740000", "182508.230000", "182509.720000", "182511.210000", "182512.700000", "182514.190000", "182515.680000", "182517.170000", "182518.660000", "182520.150000", "182521.640000", "182523.130000", "182524.620000", "182526.110000", "182527.600000", "182529.090000", "182530.580000", "182532.070000", "182533.560000", "182535.050000", "182536.540000", "182538.030000", "182539.520000", "182541.010000", "182542.500000", "182543.990000", "182545.480000", "182546.970000", "182548.460000", "182549.950000", "182551.440000", "182552.930000", "182554.420000", "182555.910000", "182557.400000", "182558.890000", "182600.380000", "182601.870000", "182603.360000", "182604.850000", "182606.340000", "182607.830000", "182609.320000", "182610.810000", "182612.300000", "182613.790000", "182615.280000", "182616.770000", "182618.260000", "182619.750000", "182621.240000", "182622.730000", "182624.220000", "182625.710000", "182627.200000", "182628.690000", "182630.180000", "182631.670000", "182633.160000", "182634.650000", "182636.140000", "182637.630000", "182639.120000", "182640.610000", "182642.100000", "182643.590000", "182645.080000", "182646.570000", "182648.060000", "182649.550000", "182651.040000", "182652.530000", "182654.020000", "182655.510000", "182657.000000", "182658.490000", "182659.980000"],
      "ContentTime": ["181707.765000", "181707.768000", "181707.770000", "181707.773000", "181707.775000", "181707.778000", "181707.780000", "181707.783000", "181707.785000", "181707.788000", "181707.790000", "181707.793000", "181707.795000", "181707.798000", "181707.800000", "181707.803000", "181707.805000", "181707.808000", "181707.816000", "181707.818000", "181707.821000", "181727.357000", "181727.360000", "181727.362000", "181727.365000", "181727.367000", "181727.370000", "181727.372000", "181727.375000", "181727.377000", "181727.380000", "181727.382000", "181727.390000", "181727.392000", "181727.394000", "181727.397000", "181727.399000", "181727.402000", "181727.404000", "181727.407000", "181727.409000", "181747.368000", "181747.370000", "181747.373000", "181747.376000", "181747.378000", "181747.381000", "181747.383000", "181747.386000", "181747.388000", "181747.391000", "181747.393000", "181747.396000", "181747.398000", "181747.401000", "181747.403000", "181747.430000", "181747.432000", "181747.435000", "181747.437000", "181747.440000", "181807.367000", "181807.369000", "181807.372000", "181807.374000", "181807.377000", "181807.379000", "181807.382000", "181807.384000", "181807.387000", "181807.389000", "181807.392000", "181807.394000", "181807.397000", "181807.399000", "181807.402000", "181807.405000", "181807.407000", "181807.410000", "181807.412000", "181807.415000", "181807.417000", "181827.365000", "181827.368000", "181827.371000", "181827.373000", "181827.376000", "181827.378000", "181827.381000", "181827.383000", "181827.386000", "181827.388000", "181827.391000", "181827.393000", "181827.396000", "181827.398000", "181827.401000", "181827.403000", "181827.406000", "181827.408000", "181827.411000", "181827.413000", "181907.386000", "181907.388000", "181907.391000", "181907.401000", "181907.404000", "181907.406000", "181907.409000", "181907.411000", "181907.414000", "181907.417000", "181907.419000", "181907.422000", "181907.424000", "181907.427000", "181907.429000", "181907.432000", "181907.434000", "181907.437000", "181907.439000", "181907.442000", "181907.444000", "181907.447000", "181907.450000", "181907.452000", "181907.459000", "181907.461000", "181907.464000", "181907.466000", "181947.376000", "181947.379000", "181947.381000", "181947.384000", "181947.386000", "181947.389000", "181947.391000", "181947.394000", "181947.397000", "181947.399000", "181947.402000", "181947.404000", "181947.407000", "181947.409000", "181947.412000", "181947.414000", "181947.417000", "181947.419000", "181947.422000", "181947.424000", "181947.427000", "181947.429000", "181947.432000", "181947.435000", "181947.437000", "181947.440000", "182027.400000", "182027.403000", "182027.406000", "182027.408000", "182027.411000", "182027.413000", "182027.416000", "182027.418000", "182027.421000", "182027.423000", "182027.426000", "182027.428000", "182027.431000", "182027.437000", "182027.442000", "182027.445000", "182027.448000", "182027.450000", "182027.453000", "182027.455000", "182027.458000", "182027.460000", "182027.463000", "182027.465000", "182027.468000", "182027.471000", "182027.473000", "182107.392000", "182107.394000", "182107.397000", "182107.400000", "182107.402000", "182107.405000", "182107.407000", "182107.410000", "182107.412000", "182107.415000", "182107.417000", "182107.420000", "182107.422000", "182107.425000", "182107.427000", "182107.430000", "182107.441000", "182107.443000", "182107.446000", "182107.448000", "182107.451000", "182107.454000", "182107.456000", "182107.459000", "182107.461000", "182107.464000", "182107.466000", "182147.393000", "182147.396000", "182147.399000", "182147.401000", "182147.404000", "182147.406000", "182147.409000", "182147.411000", "182147.414000", "182147.416000", "182147.419000", "182147.422000", "182147.424000", "182147.427000", "182147.429000", "182147.432000", "182147.434000", "182147.437000", "182147.439000", "182147.442000", "182147.445000", "182147.447000", "182147.450000", "182147.453000", "182147.455000", "182147.458000", "182147.460000", "182227.384000", "182227.387000", "182227.389000", "182227.392000", "182227.395000", "182227.398000", "182227.400000", "182227.403000", "182227.405000", "182227.408000", "182227.410000", "182227.413000", "182227.416000", "182227.418000", "182227.421000", "182227.423000", "182227.426000", "182227.428000", "182227.431000", "182227.434000", "182227.436000", "182227.439000", "182227.441000", "182227.444000", "182227.446000", "182227.449000", "182227.452000", "182307.386000", "182307.389000", "182307.391000", "182307.394000", "182307.397000", "182307.399000", "182307.402000", "182307.404000", "182307.407000", "182307.409000", "182307.412000", "182307.414000", "182307.417000", "182307.419000", "182307.422000", "182307.424000", "182307.427000", "182307.429000", "182307.432000", "182307.435000", "182307.437000", "182307.440000", "182307.442000", "182307.445000", "182307.447000", "182307.450000", "182307.452000", "182347.400000", "182347.403000", "182347.406000", "182347.408000", "182347.411000", "182347.413000", "182347.416000", "182347.418000", "182347.421000", "182347.423000", "182347.426000", "182347.428000", "182347.431000", "182347.433000", "182347.436000", "182347.438000", "182347.446000", "182347.449000", "182347.451000", "182347.454000", "182347.456000", "182347.459000", "182347.461000", "182347.464000", "182347.466000", "182347.469000", "182427.384000", "182427.387000", "182427.390000", "182427.392000", "182427.395000", "182427.397000", "182427.400000", "182427.402000", "182427.405000", "182427.407000", "182427.410000", "182427.412000", "182427.415000", "182427.418000", "182427.420000", "182427.423000", "182427.425000", "182427.428000", "182427.432000", "182427.435000", "182427.438000", "182427.440000", "182427.443000", "182427.445000", "182427.467000", "182427.470000", "182427.472000", "182507.398000", "182507.401000", "182507.403000", "182507.406000", "182507.408000", "182507.411000", "182507.414000", "182507.416000", "182507.419000", "182507.421000", "182507.424000", "182507.426000", "182507.435000", "182507.437000", "182507.440000", "182507.442000", "182507.445000", "182507.447000", "182507.450000", "182507.452000", "182507.455000", "182507.458000", "182507.460000", "182507.463000", "182507.465000", "182507.468000", "182507.470000", "182547.384000", "182547.387000", "182547.390000", "182547.392000", "182547.395000", "182547.397000", "182547.400000", "182547.402000", "182547.405000", "182547.407000", "182547.410000", "182547.412000", "182547.415000", "182547.418000", "182547.420000", "182547.423000", "182547.425000", "182547.428000", "182547.431000", "182547.433000", "182547.436000", "182547.438000", "182547.441000", "182547.443000", "182547.446000", "182547.448000", "182547.451000", "182627.387000", "182627.390000", "182627.392000", "182627.395000", "182627.397000", "182627.400000", "182627.402000", "182627.405000", "182627.407000", "182627.410000", "182627.413000", "182627.415000", "182627.418000", "182627.420000", "182627.423000", "182627.425000", "182627.428000", "182627.430000", "182627.433000", "182627.435000", "182627.438000", "182627.440000", "182627.443000", "182627.445000", "182627.448000", "182627.451000", "182627.453000", "182704.446000", "182704.449000", "182704.452000", "182704.454000", "182704.457000", "182704.459000", "182704.462000", "182704.465000", "182704.467000", "182704.470000", "182704.473000", "182704.475000", "182704.478000", "182704.480000", "182704.483000", "182704.485000", "182704.488000", "182704.490000", "182704.493000", "182704.495000", "182704.498000", "182704.500000", "182704.503000", "182704.506000"],
