{
  "AcquisitionMatrixPE": 104,
  "AcquisitionNumber": 1,
  "AcquisitionTime": "16:58:49.950000",
  "BandwidthPerPixelPhaseEncode": 17.17,
  "BaseResolution": 104,
  "BodyPartExamined": "BRAIN",
  "CoilCombinationMethod": "Sum of Squares",
  "ConsistencyInfo": "N4_VE11C_LATEST_20160120",
  "ConversionSoftware": "dcm2niix",
  "ConversionSoftwareVersion": "v1.0.20211006",
  "DerivedVendorReportedEchoSpacing": 0.000560011,
  "DeviceSerialNumber": "167006",
  "DwellTime": 2.1e-06,
  "EchoTime": 0.037,
  "EchoTime1": 0.037,
  "EchoTime2": 0.001,
  "EchoTrainLength": 104,
  "EffectiveEchoSpacing": 0.000560011,
  "FlipAngle": 52,
  "HeudiconvVersion": "0.11.3.post9+gc939bf8",
  "ImageComments": "Unaliased MB4/PE3/LB",
  "ImageOrientationPatientDICOM": [0.999788, -0.0194161, 0.00690668, 0.0205934, 0.928702, -0.370254],
  "ImageOrientationText": "Tra>Cor(-21.7)>Sag(-0.0)",
  "ImageType": [
    "ORIGINAL",
    "PRIMARY",
    "P",
    "MB",
    "ND",
    "MOSAIC",
    "PHASE"
],
  "ImagingFrequency": 123.259,
  "InPlanePhaseEncodingDirectionDICOM": "COL",
  "InstitutionAddress": "Chemin Queen-Mary 4565,Montreal,District,CA,H3W 1W5",
  "InstitutionName": "IUGM",
  "InstitutionalDepartmentName": "Department",
  "MRAcquisitionType": "2D",
  "MagneticFieldStrength": 3,
  "Manufacturer": "Siemens",
  "ManufacturersModelName": "Prisma_fit",
  "MatrixCoilMode": "SENSE",
  "Modality": "MR",
  "MultibandAccelerationFactor": 4,
  "PartialFourier": 1,
  "PatientPosition": "HFS",
  "PercentPhaseFOV": 100,
  "PercentSampling": 100,
  "PhaseEncodingDirection": "j",
  "PhaseEncodingSteps": 104,
  "PhaseResolution": 1,
  "PixelBandwidth": 2290,
  "ProcedureStepDescription": "games^mario",
  "ProtocolName": "func_task-mario_run-03",
  "PulseSequenceDetails": "%CustomerSeq%\\cmrr_mbep2d_bold",
  "ReceiveCoilActiveElements": "HC1-7;NC1,2",
  "ReceiveCoilName": "HeadNeck_64",
  "ReconMatrixPE": 104,
  "RepetitionTime": 1.49,
  "SAR": 0.0786194,
  "ScanOptions": "FS",
  "ScanningSequence": "EP",
  "SequenceName": "epfid2d1_104",
  "SequenceVariant": "SK\\SS",
  "SeriesDescription": "func_task-mario_run-03",
  "SeriesNumber": 17,
  "ShimSetting": [615, -7246, -8842, 398, 54, -350, -9, 34],
  "SliceThickness": 2,
  "SliceTiming": [0, 0.785, 0.1, 0.8825, 0.1975, 0.98, 0.295, 1.08, 0.3925, 1.1775, 0.49, 1.275, 0.59, 1.3725, 0.6875, 0, 0.785, 0.1, 0.8825, 0.1975, 0.98, 0.295, 1.08, 0.3925, 1.1775, 0.49, 1.275, 0.59, 1.3725, 0.6875, 0, 0.785, 0.1, 0.8825, 0.1975, 0.98, 0.295, 1.08, 0.3925, 1.1775, 0.49, 1.275, 0.59, 1.3725, 0.6875, 0, 0.785, 0.1, 0.8825, 0.1975, 0.98, 0.295, 1.08, 0.3925, 1.1775, 0.49, 1.275, 0.59, 1.3725, 0.6875],
  "SoftwareVersions": "syngo MR E11",
  "SpacingBetweenSlices": 2,
  "StationName": "MRC35049",
  "TaskName": "mario",
  "TotalReadoutTime": 0.0576811,
  "TxRefAmp": 316.401,
  "WipMemBlock": "05b2a501-2db9-4240-99f7-ecda37b4bf28||Sequence: R017 ve11c/master r/75a17815+; Jun 28 2022 16:32:11 by eja",
  "dcmmeta_affine": [
    [-1.9995752573013306, 0.04118677228689194, -0.0015493023674935102, 102.08631134033203],
    [0.03883222118020058, 1.8574042320251465, -0.7406360507011414, -63.88533020019531],
    [0.013813363388180733, 0.7405088543891907, 1.8578094244003296, -71.01478576660156],
    [0.0, 0.0, 0.0, 1.0]
],
  "dcmmeta_reorient_transform": [
    [0.0, -1.0, 0.0, 103.0],
    [1.0, 0.0, 0.0, 0.0],
    [0.0, 0.0, 1.0, 0.0],
    [0.0, 0.0, 0.0, 1.0]
],
  "dcmmeta_shape": [104, 104, 60, 446],
  "dcmmeta_slice_dim": 2,
  "dcmmeta_version": 0.6,
  "global": {
    "const": {
      "AcquisitionMatrix": [104, 0, 0, 104],
      "AngioFlag": "N",
      "BitsAllocated": 16,
      "BitsStored": 16,
      "BodyPartExamined": "BRAIN",
      "Columns": 832,
      "EchoNumbers": 1,
      "EchoTime": 37.0,
      "EchoTrainLength": 104,
      "FlipAngle": 52.0,
      "HighBit": 15,
      "ImageOrientationPatient": [0.99978763364779, -0.0194161105972, 0.00690668185407, 0.02059338535842, 0.92870208737923, -0.3702544332982],
      "ImagePositionPatient": [-849.16593247922, -789.38748968945, 269.77478873517],
      "ImageType": [
        "ORIGINAL",
        "PRIMARY",
        "P",
        "MB",
        "ND",
        "MOSAIC"
],
      "ImagedNucleus": "1H",
      "ImagingFrequency": 123.25874,
      "InPlanePhaseEncodingDirection": "COL",
      "LargestImagePixelValue": 4095,
      "MRAcquisitionType": "2D",
      "MagneticFieldStrength": 3.0,
      "Manufacturer": "SIEMENS",
      "ManufacturerModelName": "Prisma_fit",
      "Modality": "MR",
      "NumberOfAverages": 1.0,
      "NumberOfPhaseEncodingSteps": 104,
      "PercentPhaseFieldOfView": 100.0,
      "PercentSampling": 100.0,
      "PerformedProcedureStepStartTime": "162712.285000",
      "PhotometricInterpretation": "MONOCHROME2",
      "PixelBandwidth": 2290.0,
      "PixelRepresentation": 0,
      "PixelSpacing": [2.0, 2.0],
      "ProtocolName": "func_task-mario_run-03",
      "RepetitionTime": 1490.0,
      "RescaleIntercept": -4096.0,
      "RescaleSlope": 2.0,
      "RescaleType": "US",
      "Rows": 832,
      "SAR": 0.07861941939428,
      "SamplesPerPixel": 1,
      "ScanOptions": "FS",
      "ScanningSequence": "EP",
      "SequenceName": "epfid2d1_104",
      "SequenceVariant": [
        "SK",
        "SS"
],
      "SeriesDescription": "func_task-mario_run-03",
      "SeriesNumber": 17,
      "SeriesTime": "165940.552000",
      "SliceLocation": -42.387161203576,
      "SliceThickness": 2.0,
      "SmallestImagePixelValue": 0,
      "SoftwareVersions": "syngo MR E11",
      "SpacingBetweenSlices": 2.0000000080699,
      "SpecificCharacterSet": "ISO_IR 100",
      "StudyID": "1",
      "StudyTime": "162712.210000",
      "TransmitCoilName": "Body",
      "VariableFlipAngleFlag": "N",
      "WindowCenterWidthExplanation": "Algo1",
      "dBdt": 0.0},
    "slices": {}
  },
  "time": {
    "samples": {
      "AcquisitionNumber": [1, 2, 3, 4, 5, 6, 7, 8, 9, 10, 11, 12, 13, 14, 15, 16, 17, 18, 19, 20, 21, 22, 23, 24, 25, 26, 27, 28, 29, 30, 31, 32, 33, 34, 35, 36, 37, 38, 39, 40, 41, 42, 43, 44, 45, 46, 47, 48, 49, 50, 51, 52, 53, 54, 55, 56, 57, 58, 59, 60, 61, 62, 63, 64, 65, 66, 67, 68, 69, 70, 71, 72, 73, 74, 75, 76, 77, 78, 79, 80, 81, 82, 83, 84, 85, 86, 87, 88, 89, 90, 91, 92, 93, 94, 95, 96, 97, 98, 99, 100, 101, 102, 103, 104, 105, 106, 107, 108, 109, 110, 111, 112, 113, 114, 115, 116, 117, 118, 119, 120, 121, 122, 123, 124, 125, 126, 127, 128, 129, 130, 131, 132, 133, 134, 135, 136, 137, 138, 139, 140, 141, 142, 143, 144, 145, 146, 147, 148, 149, 150, 151, 152, 153, 154, 155, 156, 157, 158, 159, 160, 161, 162, 163, 164, 165, 166, 167, 168, 169, 170, 171, 172, 173, 174, 175, 176, 177, 178, 179, 180, 181, 182, 183, 184, 185, 186, 187, 188, 189, 190, 191, 192, 193, 194, 195, 196, 197, 198, 199, 200, 201, 202, 203, 204, 205, 206, 207, 208, 209, 210, 211, 212, 213, 214, 215, 216, 217, 218, 219, 220, 221, 222, 223, 224, 225, 226, 227, 228, 229, 230, 231, 232, 233, 234, 235, 236, 237, 238, 239, 240, 241, 242, 243, 244, 245, 246, 247, 248, 249, 250, 251, 252, 253, 254, 255, 256, 257, 258, 259, 260, 261, 262, 263, 264, 265, 266, 267, 268, 269, 270, 271, 272, 273, 274, 275, 276, 277, 278, 279, 280, 281, 282, 283, 284, 285, 286, 287, 288, 289, 290, 291, 292, 293, 294, 295, 296, 297, 298, 299, 300, 301, 302, 303, 304, 305, 306, 307, 308, 309, 310, 311, 312, 313, 314, 315, 316, 317, 318, 319, 320, 321, 322, 323, 324, 325, 326, 327, 328, 329, 330, 331, 332, 333, 334, 335, 336, 337, 338, 339, 340, 341, 342, 343, 344, 345, 346, 347, 348, 349, 350, 351, 352, 353, 354, 355, 356, 357, 358, 359, 360, 361, 362, 363, 364, 365, 366, 367, 368, 369, 370, 371, 372, 373, 374, 375, 376, 377, 378, 379, 380, 381, 382, 383, 384, 385, 386, 387, 388, 389, 390, 391, 392, 393, 394, 395, 396, 397, 398, 399, 400, 401, 402, 403, 404, 405, 406, 407, 408, 409, 410, 411, 412, 413, 414, 415, 416, 417, 418, 419, 420, 421, 422, 423, 424, 425, 426, 427, 428, 429, 430, 431, 432, 433, 434, 435, 436, 437, 438, 439, 440, 441, 442, 443, 444, 445, 446],
      "AcquisitionTime": ["165849.950000", "165851.440000", "165852.930000", "165854.420000", "165855.910000", "165857.400000", "165858.890000", "165900.380000", "165901.870000", "165903.360000", "165904.850000", "165906.340000", "165907.830000", "165909.320000", "165910.810000", "165912.300000", "165913.790000", "165915.280000", "165916.770000", "165918.260000", "165919.750000", "165921.240000", "165922.730000", "165924.220000", "165925.710000", "165927.200000", "165928.690000", "165930.180000", "165931.670000", "165933.160000", "165934.650000", "165936.140000", "165937.630000", "165939.120000", "165940.610000", "165942.100000", "165943.590000", "165945.080000", "165946.570000", "165948.060000", "165949.550000", "165951.040000", "165952.530000", "165954.020000", "165955.510000", "165957.000000", "165958.490000", "165959.980000", "170001.470000", "170002.960000", "170004.450000", "170005.940000", "170007.430000", "170008.920000", "170010.410000", "170011.900000", "170013.390000", "170014.880000", "170016.370000", "170017.860000", "170019.350000", "170020.840000", "170022.330000", "170023.820000", "170025.310000", "170026.800000", "170028.290000", "170029.780000", "170031.270000", "170032.760000", "170034.250000", "170035.740000", "170037.230000", "170038.720000", "170040.210000", "170041.700000", "170043.190000", "170044.680000", "170046.170000", "170047.660000", "170049.150000", "170050.640000", "170052.130000", "170053.620000", "170055.110000", "170056.600000", "170058.090000", "170059.580000", "170101.070000", "170102.560000", "170104.050000", "170105.540000", "170107.030000", "170108.520000", "170110.010000", "170111.500000", "170112.990000", "170114.480000", "170115.970000", "170117.460000", "170118.950000", "170120.440000", "170121.930000", "170123.420000", "170124.910000", "170126.400000", "170127.890000", "170129.380000", "170130.870000", "170132.360000", "170133.850000", "170135.340000", "170136.830000", "170138.320000", "170139.810000", "170141.300000", "170142.790000", "170144.280000", "170145.770000", "170147.260000", "170148.750000", "170150.240000", "170151.730000", "170153.220000", "170154.710000", "170156.200000", "170157.690000", "170159.180000", "170200.670000", "170202.160000", "170203.650000", "170205.140000", "170206.630000", "170208.120000", "170209.610000", "170211.100000", "170212.590000", "170214.080000", "170215.570000", "170217.060000", "170218.550000", "170220.040000", "170221.530000", "170223.020000", "170224.510000", "170226.000000", "170227.490000", "170228.980000", "170230.470000", "170231.960000", "170233.450000", "170234.940000", "170236.430000", "170237.920000", "170239.410000", "170240.900000", "170242.390000", "170243.880000", "170245.370000", "170246.860000", "170248.350000", "170249.840000", "170251.330000", "170252.820000", "170254.310000", "170255.800000", "170257.290000", "170258.780000", "170300.270000", "170301.760000", "170303.250000", "170304.740000", "170306.230000", "170307.720000", "170309.210000", "170310.700000", "170312.190000", "170313.680000", "170315.170000", "170316.660000", "170318.150000", "170319.640000", "170321.130000", "170322.620000", "170324.110000", "170325.600000", "170327.090000", "170328.580000", "170330.070000", "170331.560000", "170333.050000", "170334.540000", "170336.030000", "170337.520000", "170339.010000", "170340.500000", "170341.990000", "170343.480000", "170344.970000", "170346.460000", "170347.950000", "170349.440000", "170350.930000", "170352.420000", "170353.910000", "170355.400000", "170356.890000", "170358.380000", "170359.870000", "170401.360000", "170402.850000", "170404.340000", "170405.830000", "170407.320000", "170408.810000", "170410.300000", "170411.790000", "170413.280000", "170414.770000", "170416.260000", "170417.750000", "170419.240000", "170420.730000", "170422.220000", "170423.710000", "170425.200000", "170426.690000", "170428.180000", "170429.670000", "170431.160000", "170432.650000", "170434.140000", "170435.630000", "170437.120000", "170438.610000", "170440.100000", "170441.590000", "170443.080000", "170444.570000", "170446.060000", "170447.550000", "170449.040000", "170450.530000", "170452.020000", "170453.510000", "170455.000000", "170456.490000", "170457.980000", "170459.470000", "170500.960000", "170502.450000", "170503.940000", "170505.430000", "170506.920000", "170508.410000", "170509.900000", "170511.390000", "170512.880000", "170514.370000", "170515.860000", "170517.350000", "170518.840000", "170520.330000", "170521.820000", "170523.310000", "170524.800000", "170526.290000", "170527.780000", "170529.270000", "170530.760000", "170532.250000", "170533.740000", "170535.230000", "170536.720000", "170538.210000", "170539.700000", "170541.190000", "170542.680000", "170544.170000", "170545.660000", "170547.150000", "170548.640000", "170550.130000", "170551.620000", "170553.110000", "170554.600000", "170556.090000", "170557.580000", "170559.070000", "170600.560000", "170602.050000", "170603.540000", "170605.030000", "170606.520000", "170608.010000", "170609.500000", "170610.990000", "170612.480000", "170613.970000", "170615.460000", "170616.950000", "170618.440000", "170619.930000", "170621.420000", "170622.910000", "170624.400000", "170625.890000", "170627.380000", "170628.870000", "170630.360000", "170631.850000", "170633.340000", "170634.830000", "170636.320000", "170637.810000", "170639.300000", "170640.790000", "170642.280000", "170643.770000", "170645.260000", "170646.750000", "170648.240000", "170649.730000", "170651.220000", "170652.710000", "170654.200000", "170655.690000", "170657.180000", "170658.670000", "170700.160000", "170701.650000", "170703.140000", "170704.630000", "170706.120000", "170707.610000", "170709.100000", "170710.590000", "170712.080000", "170713.570000", "170715.060000", "170716.550000", "170718.040000", "170719.530000", "170721.020000", "170722.510000", "170724.000000", "170725.490000", "170726.980000", "170728.470000", "170729.960000", "170731.450000", "170732.940000", "170734.430000", "170735.920000", "170737.410000", "170738.900000", "170740.390000", "170741.880000", "170743.370000", "170744.860000", "170746.350000", "170747.840000", "170749.330000", "170750.820000", "170752.310000", "170753.800000", "170755.290000", "170756.780000", "170758.270000", "170759.760000", "170801.250000", "170802.740000", "170804.230000", "170805.720000", "170807.210000", "170808.700000", "170810.190000", "170811.680000", "170813.170000", "170814.660000", "170816.150000", "170817.640000", "170819.130000", "170820.620000", "170822.110000", "170823.600000", "170825.090000", "170826.580000", "170828.070000", "170829.560000", "170831.050000", "170832.540000", "170834.030000", "170835.520000", "170837.010000", "170838.500000", "170839.990000", "170841.480000", "170842.970000", "170844.460000", "170845.950000", "170847.440000", "170848.930000", "170850.420000", "170851.910000", "170853.400000", "170854.890000", "170856.380000", "170857.870000", "170859.360000", "170900.850000", "170902.340000", "170903.830000", "170905.320000", "170906.810000", "170908.300000", "170909.790000", "170911.280000", "170912.770000", "170914.260000", "170915.750000", "170917.240000", "170918.730000", "170920.220000", "170921.710000", "170923.200000", "170924.690000", "170926.180000", "170927.670000", "170929.160000", "170930.650000", "170932.140000", "170933.630000", "170935.120000", "170936.610000", "170938.100000", "170939.590000", "170941.080000", "170942.570000", "170944.060000", "170945.550000", "170947.040000", "170948.530000", "170950.020000", "170951.510000", "170953.000000"],
      "ContentTime": ["165940.554000", "170000.620000", "170000.623000", "170000.626000", "170000.629000", "170000.631000", "170000.634000", "170000.636000", "170000.639000", "170000.641000", "170000.644000", "170000.646000", "170000.649000", "170000.651000", "170000.654000", "170000.656000", "170000.659000", "170000.661000", "170000.663000", "170000.666000", "170000.668000", "170020.624000", "170020.626000", "170020.629000", "170020.632000", "170020.634000", "170020.636000", "170020.639000", "170020.642000", "170020.644000", "170020.647000", "170020.649000", "170020.652000", "170020.654000", "170020.657000", "170020.659000", "170020.662000", "170020.664000", "170020.667000", "170020.669000", "170020.672000", "170040.600000", "170040.603000", "170040.614000", "170040.617000", "170040.619000", "170040.622000", "170040.624000", "170040.627000", "170040.629000", "170040.632000", "170040.634000", "170040.637000", "170040.639000", "170040.642000", "170040.644000", "170040.647000", "170040.649000", "170040.652000", "170040.654000", "170040.657000", "170040.659000", "170100.599000", "170100.601000", "170100.604000", "170100.606000", "170100.609000", "170100.612000", "170100.614000", "170100.617000", "170100.619000", "170100.622000", "170100.624000", "170100.627000", "170100.629000", "170100.632000", "170100.634000", "170100.637000", "170100.639000", "170100.642000", "170100.644000", "170100.647000", "170140.647000", "170140.650000", "170140.659000", "170140.661000", "170140.664000", "170140.666000", "170140.669000", "170140.671000", "170140.674000", "170140.676000", "170140.679000", "170140.681000", "170140.684000", "170140.686000", "170140.689000", "170140.691000", "170140.694000", "170140.696000", "170140.699000", "170140.701000", "170140.704000", "170140.706000", "170140.709000", "170140.711000", "170140.714000", "170140.716000", "170140.719000", "170140.722000", "170140.724000", "170140.727000", "170140.729000", "170220.650000", "170220.652000", "170220.655000", "170220.657000", "170220.660000", "170220.662000", "170220.665000", "170220.667000", "170220.670000", "170220.672000", "170220.675000", "170220.678000", "170220.680000", "170220.683000", "170220.685000", "170220.688000", "170220.691000", "170220.693000", "170220.695000", "170220.698000", "170220.701000", "170220.703000", "170220.706000", "170220.708000", "170220.711000", "170220.713000", "170220.716000", "170300.622000", "170300.625000", "170300.628000", "170300.630000", "170300.633000", "170300.635000", "170300.638000", "170300.640000", "170300.643000", "170300.646000", "170300.648000", "170300.651000", "170300.653000", "170300.656000", "170300.658000", "170300.661000", "170300.663000", "170300.666000", "170300.668000", "170300.682000", "170300.685000", "170300.687000", "170300.690000", "170300.692000", "170300.695000", "170300.698000", "170300.701000", "170340.630000", "170340.633000", "170340.635000", "170340.638000", "170340.640000", "170340.643000", "170340.646000", "170340.649000", "170340.651000", "170340.654000", "170340.656000", "170340.659000", "170340.662000", "170340.664000", "170340.667000", "170340.669000", "170340.672000", "170340.675000", "170340.677000", "170340.680000", "170340.697000", "170340.699000", "170340.702000", "170340.704000", "170340.707000", "170340.709000", "170340.712000", "170420.616000", "170420.619000", "170420.621000", "170420.624000", "170420.626000", "170420.629000", "170420.631000", "170420.634000", "170420.636000", "170420.639000", "170420.642000", "170420.644000", "170420.647000", "170420.649000", "170420.652000", "170420.654000", "170420.657000", "170420.659000", "170420.662000", "170420.665000", "170420.667000", "170420.670000", "170420.672000", "170420.675000", "170420.677000", "170420.680000", "170420.682000", "170500.646000", "170500.649000", "170500.652000", "170500.654000", "170500.657000", "170500.659000", "170500.662000", "170500.664000", "170500.667000", "170500.670000", "170500.672000", "170500.675000", "170500.677000", "170500.680000", "170500.682000", "170500.685000", "170500.687000", "170500.690000", "170500.692000", "170500.695000", "170500.697000", "170500.700000", "170500.702000", "170500.705000", "170500.708000", "170500.710000", "170500.712000", "170540.631000", "170540.634000", "170540.643000", "170540.646000", "170540.648000", "170540.651000", "170540.653000", "170540.656000", "170540.658000", "170540.661000", "170540.664000", "170540.666000", "170540.668000", "170540.671000", "170540.674000", "170540.676000", "170540.679000", "170540.681000", "170540.684000", "170540.686000", "170540.689000", "170540.691000", "170540.694000", "170540.696000", "170540.699000", "170540.701000", "170540.704000", "170620.627000", "170620.630000", "170620.632000", "170620.635000", "170620.637000", "170620.640000", "170620.643000", "170620.645000", "170620.648000", "170620.650000", "170620.653000", "170620.656000", "170620.658000", "170620.661000", "170620.663000", "170620.666000", "170620.668000", "170620.671000", "170620.674000", "170620.676000", "170620.678000", "170620.681000", "170620.684000", "170620.686000", "170620.689000", "170620.691000", "170700.629000", "170700.632000", "170700.634000", "170700.637000", "170700.639000", "170700.642000", "170700.644000", "170700.647000", "170700.649000", "170700.652000", "170700.654000", "170700.671000", "170700.674000", "170700.676000", "170700.679000", "170700.681000", "170700.684000", "170700.686000", "170700.689000", "170700.691000", "170700.694000", "170700.697000", "170700.699000", "170700.701000", "170700.704000", "170700.707000", "170700.709000", "170740.626000", "170740.628000", "170740.631000", "170740.634000", "170740.636000", "170740.638000", "170740.641000", "170740.644000", "170740.646000", "170740.649000", "170740.651000", "170740.654000", "170740.656000", "170740.659000", "170740.662000", "170740.664000", "170740.667000", "170740.669000", "170740.672000", "170740.674000", "170740.677000", "170740.679000", "170740.682000", "170740.684000", "170740.687000", "170740.689000", "170740.692000", "170820.628000", "170820.631000", "170820.633000", "170820.636000", "170820.639000", "170820.641000", "170820.643000", "170820.646000", "170820.649000", "170820.651000", "170820.654000", "170820.656000", "170820.659000", "170820.661000", "170820.664000", "170820.666000", "170820.669000", "170820.672000", "170820.674000", "170820.677000", "170820.679000", "170820.682000", "170820.684000", "170820.687000", "170820.689000", "170820.692000", "170820.694000", "170900.637000", "170900.640000", "170900.643000", "170900.645000", "170900.648000", "170900.650000", "170900.653000", "170900.655000", "170900.658000", "170900.660000", "170900.663000", "170900.666000", "170900.668000", "170900.671000", "170900.673000", "170900.676000", "170900.678000", "170900.681000", "170900.683000", "170900.686000", "170900.688000", "170900.691000", "170900.693000", "170900.696000", "170900.698000", "170900.701000", "170900.704000", "170920.675000", "170920.678000", "170920.680000", "170920.683000", "170920.685000", "170920.688000", "170920.690000", "170920.693000", "170920.695000", "170920.698000", "170920.701000", "170920.703000", "170920.706000", "170956.429000", "170956.431000", "170956.434000", "170956.436000", "170956.439000", "170956.442000", "170956.444000", "170956.446000", "170956.449000", "170956.452000", "170956.454000", "170956.457000", "170956.459000", "170956.462000", "170956.464000", "170956.467000", "170956.469000", "170956.472000", "170956.474000", "170956.477000", "170956.479000", "170956.482000", "170956.484000", "170956.487000"],
