{
  "AcquisitionMatrixPE": 104,
  "AcquisitionNumber": 1,
  "AcquisitionTime": "16:30:57.645000",
  "BandwidthPerPixelPhaseEncode": 17.17,
  "BaseResolution": 104,
  "BodyPartExamined": "BRAIN",
  "CoilCombinationMethod": "Sum of Squares",
  "ConsistencyInfo": "N4_VE11C_LATEST_20160120",
  "ConversionSoftware": "dcm2niix",
  "ConversionSoftwareVersion": "v1.0.20211006",
  "DerivedVendorReportedEchoSpacing": 0.000560011,
  "DeviceSerialNumber": "167006",
  "DwellTime": 2.1e-06,
  "EchoTime": 0.037,
  "EchoTime1": 0.037,
  "EchoTime2": 0.001,
  "EchoTrainLength": 104,
  "EffectiveEchoSpacing": 0.000560011,
  "FlipAngle": 52,
  "HeudiconvVersion": "0.11.3.post9+gc939bf8",
  "ImageComments": "Unaliased MB4/PE3/LB",
  "ImageOrientationPatientDICOM": [0.999788, -0.0194161, 0.00690668, 0.0205934, 0.928702, -0.370254],
  "ImageOrientationText": "Tra>Cor(-21.7)>Sag(-0.0)",
  "ImageType": [
    "ORIGINAL",
    "PRIMARY",
    "P",
    "MB",
    "ND",
    "MOSAIC",
    "PHASE"
],
  "ImagingFrequency": 123.259,
  "InPlanePhaseEncodingDirectionDICOM": "COL",
  "InstitutionAddress": "Chemin Queen-Mary 4565,Montreal,District,CA,H3W 1W5",
  "InstitutionName": "IUGM",
  "InstitutionalDepartmentName": "Department",
  "MRAcquisitionType": "2D",
  "MagneticFieldStrength": 3,
  "Manufacturer": "Siemens",
  "ManufacturersModelName": "Prisma_fit",
  "MatrixCoilMode": "SENSE",
  "Modality": "MR",
  "MultibandAccelerationFactor": 4,
  "PartialFourier": 1,
  "PatientPosition": "HFS",
  "PercentPhaseFOV": 100,
  "PercentSampling": 100,
  "PhaseEncodingDirection": "j",
  "PhaseEncodingSteps": 104,
  "PhaseResolution": 1,
  "PixelBandwidth": 2290,
  "ProcedureStepDescription": "games^mario",
  "ProtocolName": "func_task-mario_run-01",
  "PulseSequenceDetails": "%CustomerSeq%\\cmrr_mbep2d_bold",
  "ReceiveCoilActiveElements": "HC1-7;NC1,2",
  "ReceiveCoilName": "HeadNeck_64",
  "ReconMatrixPE": 104,
  "RepetitionTime": 1.49,
  "SAR": 0.0786194,
  "ScanOptions": "FS",
  "ScanningSequence": "EP",
  "SequenceName": "epfid2d1_104",
  "SequenceVariant": "SK\\SS",
  "SeriesDescription": "func_task-mario_run-01",
  "SeriesNumber": 11,
  "ShimSetting": [615, -7246, -8842, 398, 54, -350, -9, 34],
  "SliceThickness": 2,
  "SliceTiming": [0, 0.785, 0.0975, 0.8825, 0.195, 0.98, 0.295, 1.0775, 0.3925, 1.175, 0.49, 1.275, 0.5875, 1.3725, 0.685, 0, 0.785, 0.0975, 0.8825, 0.195, 0.98, 0.295, 1.0775, 0.3925, 1.175, 0.49, 1.275, 0.5875, 1.3725, 0.685, 0, 0.785, 0.0975, 0.8825, 0.195, 0.98, 0.295, 1.0775, 0.3925, 1.175, 0.49, 1.275, 0.5875, 1.3725, 0.685, 0, 0.785, 0.0975, 0.8825, 0.195, 0.98, 0.295, 1.0775, 0.3925, 1.175, 0.49, 1.275, 0.5875, 1.3725, 0.685],
  "SoftwareVersions": "syngo MR E11",
  "SpacingBetweenSlices": 2,
  "StationName": "MRC35049",
  "TaskName": "mario",
  "TotalReadoutTime": 0.0576811,
  "TxRefAmp": 316.401,
  "WipMemBlock": "310530be-1b84-49a2-8777-06a8f5215c95||Sequence: R017 ve11c/master r/75a17815+; Jun 28 2022 16:32:11 by eja",
  "dcmmeta_affine": [
    [-1.9995752573013306, 0.04118677228689194, -0.0015493023674935102, 102.08631134033203],
    [0.03883222118020058, 1.8574042320251465, -0.7406360507011414, -63.88533020019531],
    [0.013813363388180733, 0.7405088543891907, 1.8578094244003296, -71.01478576660156],
    [0.0, 0.0, 0.0, 1.0]
],
  "dcmmeta_reorient_transform": [
    [0.0, -1.0, 0.0, 103.0],
    [1.0, 0.0, 0.0, 0.0],
    [0.0, 0.0, 1.0, 0.0],
    [0.0, 0.0, 0.0, 1.0]
],
  "dcmmeta_shape": [104, 104, 60, 453],
  "dcmmeta_slice_dim": 2,
  "dcmmeta_version": 0.6,
  "global": {
    "const": {
      "AcquisitionMatrix": [104, 0, 0, 104],
      "AngioFlag": "N",
      "BitsAllocated": 16,
      "BitsStored": 16,
      "BodyPartExamined": "BRAIN",
      "Columns": 832,
      "EchoNumbers": 1,
      "EchoTime": 37.0,
      "EchoTrainLength": 104,
      "FlipAngle": 52.0,
      "HighBit": 15,
      "ImageOrientationPatient": [0.99978763364779, -0.0194161105972, 0.00690668185407, 0.02059338535842, 0.92870208737923, -0.3702544332982],
      "ImagePositionPatient": [-849.16593247922, -789.38748968945, 269.77478873517],
      "ImageType": [
        "ORIGINAL",
        "PRIMARY",
        "P",
        "MB",
        "ND",
        "MOSAIC"
],
      "ImagedNucleus": "1H",
      "ImagingFrequency": 123.258725,
      "InPlanePhaseEncodingDirection": "COL",
      "LargestImagePixelValue": 4095,
      "MRAcquisitionType": "2D",
      "MagneticFieldStrength": 3.0,
      "Manufacturer": "SIEMENS",
      "ManufacturerModelName": "Prisma_fit",
      "Modality": "MR",
      "NumberOfAverages": 1.0,
      "NumberOfPhaseEncodingSteps": 104,
      "PercentPhaseFieldOfView": 100.0,
      "PercentSampling": 100.0,
      "PerformedProcedureStepStartTime": "162712.285000",
      "PhotometricInterpretation": "MONOCHROME2",
      "PixelBandwidth": 2290.0,
      "PixelRepresentation": 0,
      "PixelSpacing": [2.0, 2.0],
      "ProtocolName": "func_task-mario_run-01",
      "RepetitionTime": 1490.0,
      "RescaleIntercept": -4096.0,
      "RescaleSlope": 2.0,
      "RescaleType": "US",
      "Rows": 832,
      "SAR": 0.07861941939428,
      "SamplesPerPixel": 1,
      "ScanOptions": "FS",
      "ScanningSequence": "EP",
      "SequenceName": "epfid2d1_104",
      "SequenceVariant": [
        "SK",
        "SS"
],
      "SeriesDescription": "func_task-mario_run-01",
      "SeriesNumber": 11,
      "SeriesTime": "163218.229000",
      "SliceLocation": -42.387161203576,
      "SliceThickness": 2.0,
      "SmallestImagePixelValue": 0,
      "SoftwareVersions": "syngo MR E11",
      "SpacingBetweenSlices": 2.0000000080699,
      "SpecificCharacterSet": "ISO_IR 100",
      "StudyID": "1",
      "StudyTime": "162712.210000",
      "TransmitCoilName": "Body",
      "VariableFlipAngleFlag": "N",
      "WindowCenterWidthExplanation": "Algo1",
      "dBdt": 0.0},
    "slices": {}
  },
  "time": {
    "samples": {
      "AcquisitionNumber": [1, 2, 3, 4, 5, 6, 7, 8, 9, 10, 11, 12, 13, 14, 15, 16, 17, 18, 19, 20, 21, 22, 23, 24, 25, 26, 27, 28, 29, 30, 31, 32, 33, 34, 35, 36, 37, 38, 39, 40, 41, 42, 43, 44, 45, 46, 47, 48, 49, 50, 51, 52, 53, 54, 55, 56, 57, 58, 59, 60, 61, 62, 63, 64, 65, 66, 67, 68, 69, 70, 71, 72, 73, 74, 75, 76, 77, 78, 79, 80, 81, 82, 83, 84, 85, 86, 87, 88, 89, 90, 91, 92, 93, 94, 95, 96, 97, 98, 99, 100, 101, 102, 103, 104, 105, 106, 107, 108, 109, 110, 111, 112, 113, 114, 115, 116, 117, 118, 119, 120, 121, 122, 123, 124, 125, 126, 127, 128, 129, 130, 131, 132, 133, 134, 135, 136, 137, 138, 139, 140, 141, 142, 143, 144, 145, 146, 147, 148, 149, 150, 151, 152, 153, 154, 155, 156, 157, 158, 159, 160, 161, 162, 163, 164, 165, 166, 167, 168, 169, 170, 171, 172, 173, 174, 175, 176, 177, 178, 179, 180, 181, 182, 183, 184, 185, 186, 187, 188, 189, 190, 191, 192, 193, 194, 195, 196, 197, 198, 199, 200, 201, 202, 203, 204, 205, 206, 207, 208, 209, 210, 211, 212, 213, 214, 215, 216, 217, 218, 219, 220, 221, 222, 223, 224, 225, 226, 227, 228, 229, 230, 231, 232, 233, 234, 235, 236, 237, 238, 239, 240, 241, 242, 243, 244, 245, 246, 247, 248, 249, 250, 251, 252, 253, 254, 255, 256, 257, 258, 259, 260, 261, 262, 263, 264, 265, 266, 267, 268, 269, 270, 271, 272, 273, 274, 275, 276, 277, 278, 279, 280, 281, 282, 283, 284, 285, 286, 287, 288, 289, 290, 291, 292, 293, 294, 295, 296, 297, 298, 299, 300, 301, 302, 303, 304, 305, 306, 307, 308, 309, 310, 311, 312, 313, 314, 315, 316, 317, 318, 319, 320, 321, 322, 323, 324, 325, 326, 327, 328, 329, 330, 331, 332, 333, 334, 335, 336, 337, 338, 339, 340, 341, 342, 343, 344, 345, 346, 347, 348, 349, 350, 351, 352, 353, 354, 355, 356, 357, 358, 359, 360, 361, 362, 363, 364, 365, 366, 367, 368, 369, 370, 371, 372, 373, 374, 375, 376, 377, 378, 379, 380, 381, 382, 383, 384, 385, 386, 387, 388, 389, 390, 391, 392, 393, 394, 395, 396, 397, 398, 399, 400, 401, 402, 403, 404, 405, 406, 407, 408, 409, 410, 411, 412, 413, 414, 415, 416, 417, 418, 419, 420, 421, 422, 423, 424, 425, 426, 427, 428, 429, 430, 431, 432, 433, 434, 435, 436, 437, 438, 439, 440, 441, 442, 443, 444, 445, 446, 447, 448, 449, 450, 451, 452, 453],
      "AcquisitionTime": ["163057.645000", "163059.135000", "163100.625000", "163102.115000", "163103.605000", "163105.095000", "163106.585000", "163108.075000", "163109.565000", "163111.055000", "163112.545000", "163114.035000", "163115.525000", "163117.015000", "163118.505000", "163119.995000", "163121.485000", "163122.975000", "163124.465000", "163125.955000", "163127.445000", "163128.935000", "163130.425000", "163131.915000", "163133.405000", "163134.895000", "163136.385000", "163137.875000", "163139.365000", "163140.855000", "163142.345000", "163143.835000", "163145.325000", "163146.815000", "163148.305000", "163149.795000", "163151.285000", "163152.775000", "163154.265000", "163155.755000", "163157.245000", "163158.735000", "163200.225000", "163201.715000", "163203.205000", "163204.695000", "163206.185000", "163207.675000", "163209.165000", "163210.655000", "163212.145000", "163213.635000", "163215.125000", "163216.615000", "163218.105000", "163219.595000", "163221.085000", "163222.575000", "163224.065000", "163225.555000", "163227.045000", "163228.535000", "163230.025000", "163231.515000", "163233.005000", "163234.495000", "163235.985000", "163237.475000", "163238.965000", "163240.455000", "163241.945000", "163243.435000", "163244.925000", "163246.415000", "163247.905000", "163249.395000", "163250.885000", "163252.375000", "163253.865000", "163255.355000", "163256.845000", "163258.335000", "163259.825000", "163301.315000", "163302.805000", "163304.295000", "163305.785000", "163307.275000", "163308.765000", "163310.255000", "163311.745000", "163313.235000", "163314.725000", "163316.215000", "163317.705000", "163319.195000", "163320.685000", "163322.175000", "163323.665000", "163325.155000", "163326.645000", "163328.135000", "163329.625000", "163331.115000", "163332.605000", "163334.095000", "163335.585000", "163337.075000", "163338.565000", "163340.055000", "163341.545000", "163343.035000", "163344.525000", "163346.015000", "163347.505000", "163348.995000", "163350.485000", "163351.975000", "163353.465000", "163354.955000", "163356.445000", "163357.935000", "163359.425000", "163400.915000", "163402.405000", "163403.895000", "163405.385000", "163406.875000", "163408.365000", "163409.855000", "163411.345000", "163412.835000", "163414.325000", "163415.815000", "163417.305000", "163418.795000", "163420.285000", "163421.775000", "163423.265000", "163424.755000", "163426.245000", "163427.735000", "163429.225000", "163430.715000", "163432.205000", "163433.695000", "163435.185000", "163436.675000", "163438.165000", "163439.655000", "163441.145000", "163442.635000", "163444.125000", "163445.615000", "163447.105000", "163448.595000", "163450.085000", "163451.575000", "163453.065000", "163454.555000", "163456.045000", "163457.535000", "163459.025000", "163500.515000", "163502.005000", "163503.495000", "163504.985000", "163506.475000", "163507.965000", "163509.455000", "163510.945000", "163512.435000", "163513.925000", "163515.415000", "163516.905000", "163518.395000", "163519.885000", "163521.375000", "163522.865000", "163524.355000", "163525.845000", "163527.335000", "163528.825000", "163530.315000", "163531.805000", "163533.295000", "163534.785000", "163536.275000", "163537.765000", "163539.255000", "163540.745000", "163542.235000", "163543.725000", "163545.215000", "163546.705000", "163548.195000", "163549.685000", "163551.175000", "163552.665000", "163554.155000", "163555.645000", "163557.135000", "163558.625000", "163600.115000", "163601.605000", "163603.095000", "163604.585000", "163606.075000", "163607.565000", "163609.055000", "163610.545000", "163612.035000", "163613.525000", "163615.015000", "163616.505000", "163617.995000", "163619.485000", "163620.975000", "163622.465000", "163623.955000", "163625.445000", "163626.935000", "163628.425000", "163629.915000", "163631.405000", "163632.895000", "163634.385000", "163635.875000", "163637.365000", "163638.855000", "163640.345000", "163641.835000", "163643.325000", "163644.815000", "163646.305000", "163647.795000", "163649.285000", "163650.775000", "163652.265000", "163653.755000", "163655.245000", "163656.735000", "163658.225000", "163659.715000", "163701.205000", "163702.695000", "163704.185000", "163705.675000", "163707.165000", "163708.655000", "163710.145000", "163711.635000", "163713.125000", "163714.615000", "163716.105000", "163717.595000", "163719.085000", "163720.575000", "163722.065000", "163723.555000", "163725.045000", "163726.535000", "163728.025000", "163729.515000", "163731.005000", "163732.495000", "163733.985000", "163735.475000", "163736.965000", "163738.455000", "163739.945000", "163741.435000", "163742.925000", "163744.415000", "163745.905000", "163747.395000", "163748.885000", "163750.375000", "163751.865000", "163753.355000", "163754.845000", "163756.335000", "163757.825000", "163759.315000", "163800.805000", "163802.295000", "163803.785000", "163805.275000", "163806.765000", "163808.255000", "163809.745000", "163811.235000", "163812.725000", "163814.215000", "163815.705000", "163817.195000", "163818.685000", "163820.175000", "163821.665000", "163823.155000", "163824.645000", "163826.135000", "163827.625000", "163829.115000", "163830.605000", "163832.095000", "163833.585000", "163835.075000", "163836.565000", "163838.055000", "163839.545000", "163841.035000", "163842.525000", "163844.015000", "163845.505000", "163846.995000", "163848.485000", "163849.975000", "163851.465000", "163852.955000", "163854.445000", "163855.935000", "163857.425000", "163858.915000", "163900.405000", "163901.895000", "163903.385000", "163904.875000", "163906.365000", "163907.855000", "163909.345000", "163910.835000", "163912.325000", "163913.815000", "163915.305000", "163916.795000", "163918.285000", "163919.775000", "163921.265000", "163922.755000", "163924.245000", "163925.735000", "163927.225000", "163928.715000", "163930.205000", "163931.695000", "163933.185000", "163934.675000", "163936.165000", "163937.655000", "163939.145000", "163940.635000", "163942.125000", "163943.615000", "163945.105000", "163946.595000", "163948.085000", "163949.575000", "163951.065000", "163952.555000", "163954.045000", "163955.535000", "163957.025000", "163958.515000", "164000.005000", "164001.495000", "164002.985000", "164004.475000", "164005.965000", "164007.455000", "164008.945000", "164010.435000", "164011.925000", "164013.415000", "164014.905000", "164016.395000", "164017.885000", "164019.375000", "164020.865000", "164022.355000", "164023.845000", "164025.335000", "164026.825000", "164028.315000", "164029.805000", "164031.295000", "164032.785000", "164034.275000", "164035.765000", "164037.255000", "164038.745000", "164040.235000", "164041.725000", "164043.215000", "164044.705000", "164046.195000", "164047.685000", "164049.175000", "164050.665000", "164052.155000", "164053.645000", "164055.135000", "164056.625000", "164058.115000", "164059.605000", "164101.095000", "164102.585000", "164104.075000", "164105.565000", "164107.055000", "164108.545000", "164110.035000", "164111.525000", "164113.015000", "164114.505000", "164115.995000", "164117.485000", "164118.975000", "164120.465000", "164121.955000", "164123.445000", "164124.935000", "164126.425000", "164127.915000", "164129.405000", "164130.895000", "164132.385000", "164133.875000", "164135.365000", "164136.855000", "164138.345000", "164139.835000", "164141.325000", "164142.815000", "164144.305000", "164145.795000", "164147.285000", "164148.775000", "164150.265000", "164151.755000", "164153.245000", "164154.735000", "164156.225000", "164157.715000", "164159.205000", "164200.695000", "164202.185000", "164203.675000", "164205.165000", "164206.655000", "164208.145000", "164209.635000", "164211.125000"],
      "ContentTime": ["163218.231000", "163218.233000", "163218.236000", "163218.239000", "163218.241000", "163218.244000", "163218.246000", "163218.249000", "163218.251000", "163218.254000", "163218.256000", "163218.259000", "163218.261000", "163218.264000", "163218.266000", "163218.269000", "163218.271000", "163218.274000", "163218.276000", "163218.279000", "163218.281000", "163218.284000", "163218.286000", "163218.289000", "163218.291000", "163218.294000", "163218.296000", "163218.300000", "163218.303000", "163238.166000", "163238.168000", "163238.171000", "163238.173000", "163238.176000", "163238.178000", "163238.181000", "163238.184000", "163238.186000", "163238.188000", "163238.191000", "163238.194000", "163238.196000", "163238.198000", "163238.201000", "163238.203000", "163238.206000", "163238.208000", "163238.211000", "163238.213000", "163258.158000", "163258.161000", "163258.164000", "163258.166000", "163258.169000", "163258.171000", "163258.174000", "163258.177000", "163258.179000", "163258.182000", "163258.184000", "163258.187000", "163258.189000", "163258.192000", "163258.194000", "163258.197000", "163258.199000", "163258.202000", "163258.204000", "163258.207000", "163318.175000", "163318.177000", "163318.180000", "163318.183000", "163318.185000", "163318.187000", "163318.190000", "163318.193000", "163318.195000", "163318.198000", "163318.200000", "163318.203000", "163318.205000", "163318.208000", "163318.210000", "163318.213000", "163318.215000", "163318.218000", "163318.220000", "163318.223000", "163358.217000", "163358.220000", "163358.223000", "163358.239000", "163358.241000", "163358.244000", "163358.246000", "163358.249000", "163358.251000", "163358.254000", "163358.256000", "163358.259000", "163358.262000", "163358.264000", "163358.267000", "163358.269000", "163358.272000", "163358.274000", "163358.277000", "163358.279000", "163358.282000", "163358.284000", "163358.287000", "163358.289000", "163358.292000", "163358.294000", "163358.297000", "163358.300000", "163358.302000", "163358.305000", "163358.307000", "163438.186000", "163438.188000", "163438.191000", "163438.193000", "163438.196000", "163438.199000", "163438.201000", "163438.204000", "163438.206000", "163438.209000", "163438.211000", "163438.214000", "163438.216000", "163438.219000", "163438.221000", "163438.224000", "163438.226000", "163438.229000", "163438.232000", "163438.234000", "163438.237000", "163438.239000", "163438.242000", "163438.244000", "163438.247000", "163438.250000", "163438.252000", "163518.204000", "163518.207000", "163518.209000", "163518.212000", "163518.215000", "163518.217000", "163518.220000", "163518.222000", "163518.225000", "163518.227000", "163518.230000", "163518.232000", "163518.235000", "163518.237000", "163518.240000", "163518.243000", "163518.245000", "163518.248000", "163518.250000", "163518.253000", "163518.255000", "163518.258000", "163518.260000", "163518.263000", "163518.265000", "163518.268000", "163518.270000", "163558.201000", "163558.204000", "163558.206000", "163558.208000", "163558.211000", "163558.214000", "163558.216000", "163558.219000", "163558.221000", "163558.224000", "163558.226000", "163558.229000", "163558.231000", "163558.234000", "163558.237000", "163558.239000", "163558.241000", "163558.244000", "163558.247000", "163558.249000", "163558.252000", "163558.254000", "163558.257000", "163558.259000", "163558.262000", "163558.264000", "163558.274000", "163638.197000", "163638.200000", "163638.202000", "163638.205000", "163638.207000", "163638.210000", "163638.212000", "163638.215000", "163638.217000", "163638.220000", "163638.222000", "163638.225000", "163638.228000", "163638.230000", "163638.233000", "163638.235000", "163638.238000", "163638.240000", "163638.243000", "163638.245000", "163638.248000", "163638.250000", "163638.253000", "163638.256000", "163638.258000", "163638.261000", "163638.263000", "163718.194000", "163718.197000", "163718.199000", "163718.202000", "163718.204000", "163718.207000", "163718.209000", "163718.212000", "163718.214000", "163718.217000", "163718.220000", "163718.222000", "163718.225000", "163718.227000", "163718.230000", "163718.232000", "163718.235000", "163718.237000", "163718.240000", "163718.242000", "163718.245000", "163718.247000", "163718.250000", "163718.252000", "163718.255000", "163718.257000", "163718.260000", "163758.202000", "163758.205000", "163758.207000", "163758.210000", "163758.212000", "163758.215000", "163758.217000", "163758.220000", "163758.223000", "163758.225000", "163758.228000", "163758.230000", "163758.233000", "163758.235000", "163758.238000", "163758.240000", "163758.243000", "163758.245000", "163758.248000", "163758.250000", "163758.253000", "163758.255000", "163758.258000", "163758.260000", "163758.263000", "163758.265000", "163758.268000", "163838.187000", "163838.190000", "163838.193000", "163838.195000", "163838.198000", "163838.201000", "163838.204000", "163838.206000", "163838.209000", "163838.212000", "163838.214000", "163838.217000", "163838.220000", "163838.223000", "163838.226000", "163838.228000", "163838.231000", "163838.233000", "163838.236000", "163838.238000", "163838.241000", "163838.243000", "163838.246000", "163838.249000", "163838.251000", "163838.254000", "163918.211000", "163918.213000", "163918.216000", "163918.218000", "163918.221000", "163918.224000", "163918.226000", "163918.229000", "163918.231000", "163918.234000", "163918.236000", "163918.239000", "163918.241000", "163918.244000", "163918.247000", "163918.249000", "163918.252000", "163918.254000", "163918.257000", "163918.259000", "163918.262000", "163918.264000", "163918.267000", "163918.269000", "163918.272000", "163918.274000", "163918.277000", "163958.195000", "163958.198000", "163958.200000", "163958.203000", "163958.206000", "163958.208000", "163958.211000", "163958.213000", "163958.216000", "163958.218000", "163958.221000", "163958.223000", "163958.226000", "163958.228000", "163958.231000", "163958.234000", "163958.236000", "163958.239000", "163958.241000", "163958.244000", "163958.246000", "163958.249000", "163958.251000", "163958.254000", "163958.256000", "163958.259000", "163958.261000", "164038.194000", "164038.196000", "164038.199000", "164038.201000", "164038.204000", "164038.207000", "164038.209000", "164038.212000", "164038.214000", "164038.217000", "164038.219000", "164038.222000", "164038.224000", "164038.227000", "164038.229000", "164038.232000", "164038.234000", "164038.237000", "164038.240000", "164038.242000", "164038.245000", "164038.247000", "164038.250000", "164038.252000", "164038.255000", "164038.257000", "164038.260000", "164118.202000", "164118.205000", "164118.207000", "164118.210000", "164118.212000", "164118.215000", "164118.217000", "164118.220000", "164118.223000", "164118.225000", "164118.228000", "164118.230000", "164118.233000", "164118.235000", "164118.238000", "164118.240000", "164118.243000", "164118.245000", "164118.248000", "164118.250000", "164118.253000", "164118.255000", "164118.258000", "164118.260000", "164118.263000", "164118.266000", "164118.268000", "164158.194000", "164158.197000", "164158.199000", "164158.202000", "164158.204000", "164158.207000", "164158.209000", "164158.212000", "164158.214000", "164158.217000", "164158.219000", "164158.222000", "164158.224000", "164158.227000", "164158.230000", "164158.232000", "164158.235000", "164158.237000", "164158.240000", "164158.242000", "164158.245000", "164158.247000", "164158.250000", "164158.252000", "164158.255000", "164158.257000", "164158.260000", "164213.608000", "164213.611000", "164213.613000", "164213.616000", "164213.619000", "164213.621000", "164213.624000", "164213.626000", "164213.629000", "164213.631000"],
