{
  "AcquisitionMatrixPE": 104,
  "AcquisitionNumber": 1,
  "AcquisitionTime": "16:30:57.645000",
  "BandwidthPerPixelPhaseEncode": 17.17,
  "BaseResolution": 104,
  "BodyPartExamined": "BRAIN",
  "CoilCombinationMethod": "Sum of Squares",
  "ConsistencyInfo": "N4_VE11C_LATEST_20160120",
  "ConversionSoftware": "dcm2niix",
  "ConversionSoftwareVersion": "v1.0.20211006",
  "DerivedVendorReportedEchoSpacing": 0.000560011,
  "DeviceSerialNumber": "167006",
  "DwellTime": 2.1e-06,
  "EchoTime": 0.037,
  "EchoTrainLength": 104,
  "EffectiveEchoSpacing": 0.000560011,
  "FlipAngle": 52,
  "HeudiconvVersion": "0.11.3.post9+gc939bf8",
  "ImageComments": "Unaliased MB4/PE3/LB",
  "ImageOrientationPatientDICOM": [0.999788, -0.0194161, 0.00690668, 0.0205934, 0.928702, -0.370254],
  "ImageOrientationText": "Tra>Cor(-21.7)>Sag(-0.0)",
  "ImageType": [
    "ORIGINAL",
    "PRIMARY",
    "M",
    "MB",
    "ND",
    "MOSAIC"
],
  "ImagingFrequency": 123.259,
  "InPlanePhaseEncodingDirectionDICOM": "COL",
  "InstitutionAddress": "Chemin Queen-Mary 4565,Montreal,District,CA,H3W 1W5",
  "InstitutionName": "IUGM",
  "InstitutionalDepartmentName": "Department",
  "MRAcquisitionType": "2D",
  "MagneticFieldStrength": 3,
  "Manufacturer": "Siemens",
  "ManufacturersModelName": "Prisma_fit",
  "MatrixCoilMode": "SENSE",
  "Modality": "MR",
  "MultibandAccelerationFactor": 4,
  "PartialFourier": 1,
  "PatientPosition": "HFS",
  "PercentPhaseFOV": 100,
  "PercentSampling": 100,
  "PhaseEncodingDirection": "j",
  "PhaseEncodingSteps": 104,
  "PhaseResolution": 1,
  "PixelBandwidth": 2290,
  "ProcedureStepDescription": "games^mario",
  "ProtocolName": "func_task-mario_run-01",
  "PulseSequenceDetails": "%CustomerSeq%\\cmrr_mbep2d_bold",
  "ReceiveCoilActiveElements": "HC1-7;NC1,2",
  "ReceiveCoilName": "HeadNeck_64",
  "ReconMatrixPE": 104,
  "RepetitionTime": 1.49,
  "SAR": 0.0786194,
  "ScanOptions": "FS",
  "ScanningSequence": "EP",
  "SequenceName": "epfid2d1_104",
  "SequenceVariant": "SK\\SS",
  "SeriesDescription": "func_task-mario_run-01",
  "SeriesNumber": 10,
  "ShimSetting": [615, -7246, -8842, 398, 54, -350, -9, 34],
  "SliceThickness": 2,
  "SliceTiming": [0, 0.785, 0.0975, 0.8825, 0.195, 0.98, 0.295, 1.0775, 0.3925, 1.175, 0.49, 1.275, 0.5875, 1.3725, 0.685, 0, 0.785, 0.0975, 0.8825, 0.195, 0.98, 0.295, 1.0775, 0.3925, 1.175, 0.49, 1.275, 0.5875, 1.3725, 0.685, 0, 0.785, 0.0975, 0.8825, 0.195, 0.98, 0.295, 1.0775, 0.3925, 1.175, 0.49, 1.275, 0.5875, 1.3725, 0.685, 0, 0.785, 0.0975, 0.8825, 0.195, 0.98, 0.295, 1.0775, 0.3925, 1.175, 0.49, 1.275, 0.5875, 1.3725, 0.685],
  "SoftwareVersions": "syngo MR E11",
  "SpacingBetweenSlices": 2,
  "StationName": "MRC35049",
  "TaskName": "mario",
  "TotalReadoutTime": 0.0576811,
  "TxRefAmp": 316.401,
  "WipMemBlock": "310530be-1b84-49a2-8777-06a8f5215c95||Sequence: R017 ve11c/master r/75a17815+; Jun 28 2022 16:32:11 by eja",
  "dcmmeta_affine": [
    [-1.9995752573013306, 0.04118677228689194, -0.0015493023674935102, 102.08631134033203],
    [0.03883222118020058, 1.8574042320251465, -0.7406360507011414, -63.88533020019531],
    [0.013813363388180733, 0.7405088543891907, 1.8578094244003296, -71.01478576660156],
    [0.0, 0.0, 0.0, 1.0]
],
  "dcmmeta_reorient_transform": [
    [0.0, -1.0, 0.0, 103.0],
    [1.0, 0.0, 0.0, 0.0],
    [0.0, 0.0, 1.0, 0.0],
    [0.0, 0.0, 0.0, 1.0]
],
  "dcmmeta_shape": [104, 104, 60, 453],
  "dcmmeta_slice_dim": 2,
  "dcmmeta_version": 0.6,
  "global": {
    "const": {
      "AcquisitionMatrix": [104, 0, 0, 104],
      "AngioFlag": "N",
      "BitsAllocated": 16,
      "BitsStored": 16,
      "BodyPartExamined": "BRAIN",
      "Columns": 832,
      "EchoNumbers": 1,
      "EchoTime": 37.0,
      "EchoTrainLength": 104,
      "FlipAngle": 52.0,
      "HighBit": 15,
      "ImageOrientationPatient": [0.99978763364779, -0.0194161105972, 0.00690668185407, 0.02059338535842, 0.92870208737923, -0.3702544332982],
      "ImagePositionPatient": [-849.16593247922, -789.38748968945, 269.77478873517],
      "ImageType": [
        "ORIGINAL",
        "PRIMARY",
        "M",
        "MB",
        "ND",
        "MOSAIC"
],
      "ImagedNucleus": "1H",
      "ImagingFrequency": 123.258725,
      "InPlanePhaseEncodingDirection": "COL",
      "MRAcquisitionType": "2D",
      "MagneticFieldStrength": 3.0,
      "Manufacturer": "SIEMENS",
      "ManufacturerModelName": "Prisma_fit",
      "Modality": "MR",
      "NumberOfAverages": 1.0,
      "NumberOfPhaseEncodingSteps": 104,
      "PercentPhaseFieldOfView": 100.0,
      "PercentSampling": 100.0,
      "PerformedProcedureStepStartTime": "162712.285000",
      "PhotometricInterpretation": "MONOCHROME2",
      "PixelBandwidth": 2290.0,
      "PixelRepresentation": 0,
      "PixelSpacing": [2.0, 2.0],
      "ProtocolName": "func_task-mario_run-01",
      "RepetitionTime": 1490.0,
      "Rows": 832,
      "SAR": 0.07861941939428,
      "SamplesPerPixel": 1,
      "ScanOptions": "FS",
      "ScanningSequence": "EP",
      "SequenceName": "epfid2d1_104",
      "SequenceVariant": [
        "SK",
        "SS"
],
      "SeriesDescription": "func_task-mario_run-01",
      "SeriesNumber": 10,
      "SeriesTime": "163218.088000",
      "SliceLocation": -42.387161203576,
      "SliceThickness": 2.0,
      "SmallestImagePixelValue": 0,
      "SoftwareVersions": "syngo MR E11",
      "SpacingBetweenSlices": 2.0000000080699,
      "SpecificCharacterSet": "ISO_IR 100",
      "StudyID": "1",
      "StudyTime": "162712.210000",
      "TransmitCoilName": "Body",
      "VariableFlipAngleFlag": "N",
      "WindowCenterWidthExplanation": "Algo1",
      "dBdt": 0.0},
    "slices": {}
  },
  "time": {
    "samples": {
      "AcquisitionNumber": [1, 2, 3, 4, 5, 6, 7, 8, 9, 10, 11, 12, 13, 14, 15, 16, 17, 18, 19, 20, 21, 22, 23, 24, 25, 26, 27, 28, 29, 30, 31, 32, 33, 34, 35, 36, 37, 38, 39, 40, 41, 42, 43, 44, 45, 46, 47, 48, 49, 50, 51, 52, 53, 54, 55, 56, 57, 58, 59, 60, 61, 62, 63, 64, 65, 66, 67, 68, 69, 70, 71, 72, 73, 74, 75, 76, 77, 78, 79, 80, 81, 82, 83, 84, 85, 86, 87, 88, 89, 90, 91, 92, 93, 94, 95, 96, 97, 98, 99, 100, 101, 102, 103, 104, 105, 106, 107, 108, 109, 110, 111, 112, 113, 114, 115, 116, 117, 118, 119, 120, 121, 122, 123, 124, 125, 126, 127, 128, 129, 130, 131, 132, 133, 134, 135, 136, 137, 138, 139, 140, 141, 142, 143, 144, 145, 146, 147, 148, 149, 150, 151, 152, 153, 154, 155, 156, 157, 158, 159, 160, 161, 162, 163, 164, 165, 166, 167, 168, 169, 170, 171, 172, 173, 174, 175, 176, 177, 178, 179, 180, 181, 182, 183, 184, 185, 186, 187, 188, 189, 190, 191, 192, 193, 194, 195, 196, 197, 198, 199, 200, 201, 202, 203, 204, 205, 206, 207, 208, 209, 210, 211, 212, 213, 214, 215, 216, 217, 218, 219, 220, 221, 222, 223, 224, 225, 226, 227, 228, 229, 230, 231, 232, 233, 234, 235, 236, 237, 238, 239, 240, 241, 242, 243, 244, 245, 246, 247, 248, 249, 250, 251, 252, 253, 254, 255, 256, 257, 258, 259, 260, 261, 262, 263, 264, 265, 266, 267, 268, 269, 270, 271, 272, 273, 274, 275, 276, 277, 278, 279, 280, 281, 282, 283, 284, 285, 286, 287, 288, 289, 290, 291, 292, 293, 294, 295, 296, 297, 298, 299, 300, 301, 302, 303, 304, 305, 306, 307, 308, 309, 310, 311, 312, 313, 314, 315, 316, 317, 318, 319, 320, 321, 322, 323, 324, 325, 326, 327, 328, 329, 330, 331, 332, 333, 334, 335, 336, 337, 338, 339, 340, 341, 342, 343, 344, 345, 346, 347, 348, 349, 350, 351, 352, 353, 354, 355, 356, 357, 358, 359, 360, 361, 362, 363, 364, 365, 366, 367, 368, 369, 370, 371, 372, 373, 374, 375, 376, 377, 378, 379, 380, 381, 382, 383, 384, 385, 386, 387, 388, 389, 390, 391, 392, 393, 394, 395, 396, 397, 398, 399, 400, 401, 402, 403, 404, 405, 406, 407, 408, 409, 410, 411, 412, 413, 414, 415, 416, 417, 418, 419, 420, 421, 422, 423, 424, 425, 426, 427, 428, 429, 430, 431, 432, 433, 434, 435, 436, 437, 438, 439, 440, 441, 442, 443, 444, 445, 446, 447, 448, 449, 450, 451, 452, 453],
      "AcquisitionTime": ["163057.645000", "163059.135000", "163100.625000", "163102.115000", "163103.605000", "163105.095000", "163106.585000", "163108.075000", "163109.565000", "163111.055000", "163112.545000", "163114.035000", "163115.525000", "163117.015000", "163118.505000", "163119.995000", "163121.485000", "163122.975000", "163124.465000", "163125.955000", "163127.445000", "163128.935000", "163130.425000", "163131.915000", "163133.405000", "163134.895000", "163136.385000", "163137.875000", "163139.365000", "163140.855000", "163142.345000", "163143.835000", "163145.325000", "163146.815000", "163148.305000", "163149.795000", "163151.285000", "163152.775000", "163154.265000", "163155.755000", "163157.245000", "163158.735000", "163200.225000", "163201.715000", "163203.205000", "163204.695000", "163206.185000", "163207.675000", "163209.165000", "163210.655000", "163212.145000", "163213.635000", "163215.125000", "163216.615000", "163218.105000", "163219.595000", "163221.085000", "163222.575000", "163224.065000", "163225.555000", "163227.045000", "163228.535000", "163230.025000", "163231.515000", "163233.005000", "163234.495000", "163235.985000", "163237.475000", "163238.965000", "163240.455000", "163241.945000", "163243.435000", "163244.925000", "163246.415000", "163247.905000", "163249.395000", "163250.885000", "163252.375000", "163253.865000", "163255.355000", "163256.845000", "163258.335000", "163259.825000", "163301.315000", "163302.805000", "163304.295000", "163305.785000", "163307.275000", "163308.765000", "163310.255000", "163311.745000", "163313.235000", "163314.725000", "163316.215000", "163317.705000", "163319.195000", "163320.685000", "163322.175000", "163323.665000", "163325.155000", "163326.645000", "163328.135000", "163329.625000", "163331.115000", "163332.605000", "163334.095000", "163335.585000", "163337.075000", "163338.565000", "163340.055000", "163341.545000", "163343.035000", "163344.525000", "163346.015000", "163347.505000", "163348.995000", "163350.485000", "163351.975000", "163353.465000", "163354.955000", "163356.445000", "163357.935000", "163359.425000", "163400.915000", "163402.405000", "163403.895000", "163405.385000", "163406.875000", "163408.365000", "163409.855000", "163411.345000", "163412.835000", "163414.325000", "163415.815000", "163417.305000", "163418.795000", "163420.285000", "163421.775000", "163423.265000", "163424.755000", "163426.245000", "163427.735000", "163429.225000", "163430.715000", "163432.205000", "163433.695000", "163435.185000", "163436.675000", "163438.165000", "163439.655000", "163441.145000", "163442.635000", "163444.125000", "163445.615000", "163447.105000", "163448.595000", "163450.085000", "163451.575000", "163453.065000", "163454.555000", "163456.045000", "163457.535000", "163459.025000", "163500.515000", "163502.005000", "163503.495000", "163504.985000", "163506.475000", "163507.965000", "163509.455000", "163510.945000", "163512.435000", "163513.925000", "163515.415000", "163516.905000", "163518.395000", "163519.885000", "163521.375000", "163522.865000", "163524.355000", "163525.845000", "163527.335000", "163528.825000", "163530.315000", "163531.805000", "163533.295000", "163534.785000", "163536.275000", "163537.765000", "163539.255000", "163540.745000", "163542.235000", "163543.725000", "163545.215000", "163546.705000", "163548.195000", "163549.685000", "163551.175000", "163552.665000", "163554.155000", "163555.645000", "163557.135000", "163558.625000", "163600.115000", "163601.605000", "163603.095000", "163604.585000", "163606.075000", "163607.565000", "163609.055000", "163610.545000", "163612.035000", "163613.525000", "163615.015000", "163616.505000", "163617.995000", "163619.485000", "163620.975000", "163622.465000", "163623.955000", "163625.445000", "163626.935000", "163628.425000", "163629.915000", "163631.405000", "163632.895000", "163634.385000", "163635.875000", "163637.365000", "163638.855000", "163640.345000", "163641.835000", "163643.325000", "163644.815000", "163646.305000", "163647.795000", "163649.285000", "163650.775000", "163652.265000", "163653.755000", "163655.245000", "163656.735000", "163658.225000", "163659.715000", "163701.205000", "163702.695000", "163704.185000", "163705.675000", "163707.165000", "163708.655000", "163710.145000", "163711.635000", "163713.125000", "163714.615000", "163716.105000", "163717.595000", "163719.085000", "163720.575000", "163722.065000", "163723.555000", "163725.045000", "163726.535000", "163728.025000", "163729.515000", "163731.005000", "163732.495000", "163733.985000", "163735.475000", "163736.965000", "163738.455000", "163739.945000", "163741.435000", "163742.925000", "163744.415000", "163745.905000", "163747.395000", "163748.885000", "163750.375000", "163751.865000", "163753.355000", "163754.845000", "163756.335000", "163757.825000", "163759.315000", "163800.805000", "163802.295000", "163803.785000", "163805.275000", "163806.765000", "163808.255000", "163809.745000", "163811.235000", "163812.725000", "163814.215000", "163815.705000", "163817.195000", "163818.685000", "163820.175000", "163821.665000", "163823.155000", "163824.645000", "163826.135000", "163827.625000", "163829.115000", "163830.605000", "163832.095000", "163833.585000", "163835.075000", "163836.565000", "163838.055000", "163839.545000", "163841.035000", "163842.525000", "163844.015000", "163845.505000", "163846.995000", "163848.485000", "163849.975000", "163851.465000", "163852.955000", "163854.445000", "163855.935000", "163857.425000", "163858.915000", "163900.405000", "163901.895000", "163903.385000", "163904.875000", "163906.365000", "163907.855000", "163909.345000", "163910.835000", "163912.325000", "163913.815000", "163915.305000", "163916.795000", "163918.285000", "163919.775000", "163921.265000", "163922.755000", "163924.245000", "163925.735000", "163927.225000", "163928.715000", "163930.205000", "163931.695000", "163933.185000", "163934.675000", "163936.165000", "163937.655000", "163939.145000", "163940.635000", "163942.125000", "163943.615000", "163945.105000", "163946.595000", "163948.085000", "163949.575000", "163951.065000", "163952.555000", "163954.045000", "163955.535000", "163957.025000", "163958.515000", "164000.005000", "164001.495000", "164002.985000", "164004.475000", "164005.965000", "164007.455000", "164008.945000", "164010.435000", "164011.925000", "164013.415000", "164014.905000", "164016.395000", "164017.885000", "164019.375000", "164020.865000", "164022.355000", "164023.845000", "164025.335000", "164026.825000", "164028.315000", "164029.805000", "164031.295000", "164032.785000", "164034.275000", "164035.765000", "164037.255000", "164038.745000", "164040.235000", "164041.725000", "164043.215000", "164044.705000", "164046.195000", "164047.685000", "164049.175000", "164050.665000", "164052.155000", "164053.645000", "164055.135000", "164056.625000", "164058.115000", "164059.605000", "164101.095000", "164102.585000", "164104.075000", "164105.565000", "164107.055000", "164108.545000", "164110.035000", "164111.525000", "164113.015000", "164114.505000", "164115.995000", "164117.485000", "164118.975000", "164120.465000", "164121.955000", "164123.445000", "164124.935000", "164126.425000", "164127.915000", "164129.405000", "164130.895000", "164132.385000", "164133.875000", "164135.365000", "164136.855000", "164138.345000", "164139.835000", "164141.325000", "164142.815000", "164144.305000", "164145.795000", "164147.285000", "164148.775000", "164150.265000", "164151.755000", "164153.245000", "164154.735000", "164156.225000", "164157.715000", "164159.205000", "164200.695000", "164202.185000", "164203.675000", "164205.165000", "164206.655000", "164208.145000", "164209.635000", "164211.125000"],
      "ContentTime": ["163218.091000", "163218.095000", "163218.099000", "163218.102000", "163218.105000", "163218.108000", "163218.112000", "163218.115000", "163218.119000", "163218.123000", "163218.126000", "163218.130000", "163218.133000", "163218.136000", "163218.140000", "163218.143000", "163218.146000", "163218.149000", "163218.159000", "163218.162000", "163218.166000", "163218.169000", "163218.172000", "163218.176000", "163218.179000", "163218.182000", "163218.186000", "163218.189000", "163218.192000", "163238.053000", "163238.057000", "163238.060000", "163238.064000", "163238.067000", "163238.070000", "163238.073000", "163238.077000", "163238.080000", "163238.090000", "163238.094000", "163238.097000", "163238.100000", "163238.104000", "163238.107000", "163238.110000", "163238.113000", "163238.117000", "163238.120000", "163238.123000", "163258.052000", "163258.056000", "163258.059000", "163258.063000", "163258.066000", "163258.077000", "163258.081000", "163258.084000", "163258.087000", "163258.090000", "163258.094000", "163258.097000", "163258.100000", "163258.104000", "163258.107000", "163258.110000", "163258.114000", "163258.117000", "163258.120000", "163258.123000", "163318.052000", "163318.056000", "163318.059000", "163318.062000", "163318.066000", "163318.069000", "163318.072000", "163318.076000", "163318.079000", "163318.088000", "163318.092000", "163318.095000", "163318.098000", "163318.101000", "163318.105000", "163318.108000", "163318.111000", "163318.115000", "163318.118000", "163318.121000", "163358.052000", "163358.056000", "163358.059000", "163358.062000", "163358.066000", "163358.069000", "163358.073000", "163358.076000", "163358.089000", "163358.093000", "163358.096000", "163358.100000", "163358.104000", "163358.107000", "163358.111000", "163358.114000", "163358.118000", "163358.121000", "163358.124000", "163358.128000", "163358.131000", "163358.134000", "163358.138000", "163358.141000", "163358.144000", "163358.147000", "163358.151000", "163358.154000", "163358.157000", "163358.161000", "163358.170000", "163438.053000", "163438.057000", "163438.060000", "163438.064000", "163438.067000", "163438.070000", "163438.074000", "163438.077000", "163438.080000", "163438.084000", "163438.087000", "163438.090000", "163438.094000", "163438.097000", "163438.100000", "163438.104000", "163438.107000", "163438.110000", "163438.114000", "163438.117000", "163438.120000", "163438.124000", "163438.127000", "163438.130000", "163438.134000", "163438.137000", "163438.140000", "163518.052000", "163518.056000", "163518.059000", "163518.063000", "163518.066000", "163518.069000", "163518.073000", "163518.076000", "163518.079000", "163518.082000", "163518.086000", "163518.089000", "163518.092000", "163518.096000", "163518.099000", "163518.111000", "163518.114000", "163518.117000", "163518.121000", "163518.124000", "163518.127000", "163518.131000", "163518.134000", "163518.137000", "163518.141000", "163518.144000", "163518.147000", "163558.052000", "163558.056000", "163558.059000", "163558.062000", "163558.066000", "163558.069000", "163558.073000", "163558.076000", "163558.079000", "163558.082000", "163558.086000", "163558.089000", "163558.092000", "163558.096000", "163558.099000", "163558.102000", "163558.106000", "163558.109000", "163558.112000", "163558.115000", "163558.119000", "163558.122000", "163558.125000", "163558.142000", "163558.145000", "163558.149000", "163558.152000", "163638.052000", "163638.056000", "163638.060000", "163638.063000", "163638.066000", "163638.069000", "163638.073000", "163638.076000", "163638.080000", "163638.083000", "163638.086000", "163638.090000", "163638.093000", "163638.096000", "163638.100000", "163638.103000", "163638.106000", "163638.109000", "163638.113000", "163638.116000", "163638.119000", "163638.123000", "163638.126000", "163638.129000", "163638.133000", "163638.136000", "163638.139000", "163718.053000", "163718.057000", "163718.060000", "163718.063000", "163718.067000", "163718.070000", "163718.074000", "163718.077000", "163718.080000", "163718.084000", "163718.087000", "163718.090000", "163718.094000", "163718.097000", "163718.100000", "163718.104000", "163718.107000", "163718.110000", "163718.114000", "163718.117000", "163718.121000", "163718.124000", "163718.127000", "163718.130000", "163718.134000", "163718.137000", "163718.140000", "163758.052000", "163758.056000", "163758.064000", "163758.067000", "163758.071000", "163758.074000", "163758.077000", "163758.081000", "163758.084000", "163758.087000", "163758.091000", "163758.094000", "163758.097000", "163758.101000", "163758.104000", "163758.107000", "163758.110000", "163758.114000", "163758.117000", "163758.120000", "163758.124000", "163758.127000", "163758.130000", "163758.134000", "163758.137000", "163758.140000", "163758.144000", "163838.052000", "163838.056000", "163838.059000", "163838.071000", "163838.075000", "163838.078000", "163838.081000", "163838.084000", "163838.088000", "163838.091000", "163838.094000", "163838.098000", "163838.101000", "163838.105000", "163838.108000", "163838.111000", "163838.115000", "163838.118000", "163838.122000", "163838.125000", "163838.128000", "163838.132000", "163838.135000", "163838.138000", "163838.142000", "163838.145000", "163918.053000", "163918.057000", "163918.060000", "163918.064000", "163918.067000", "163918.070000", "163918.074000", "163918.077000", "163918.080000", "163918.084000", "163918.087000", "163918.090000", "163918.094000", "163918.097000", "163918.100000", "163918.104000", "163918.107000", "163918.110000", "163918.122000", "163918.125000", "163918.128000", "163918.132000", "163918.135000", "163918.138000", "163918.141000", "163918.145000", "163918.148000", "163958.052000", "163958.056000", "163958.059000", "163958.063000", "163958.066000", "163958.069000", "163958.073000", "163958.076000", "163958.079000", "163958.083000", "163958.086000", "163958.090000", "163958.093000", "163958.097000", "163958.100000", "163958.103000", "163958.106000", "163958.110000", "163958.113000", "163958.117000", "163958.120000", "163958.123000", "163958.127000", "163958.130000", "163958.133000", "163958.137000", "163958.140000", "164038.052000", "164038.056000", "164038.059000", "164038.063000", "164038.066000", "164038.069000", "164038.073000", "164038.076000", "164038.080000", "164038.083000", "164038.086000", "164038.090000", "164038.093000", "164038.096000", "164038.100000", "164038.104000", "164038.118000", "164038.121000", "164038.124000", "164038.127000", "164038.131000", "164038.134000", "164038.137000", "164038.141000", "164038.144000", "164038.147000", "164038.151000", "164118.052000", "164118.056000", "164118.059000", "164118.063000", "164118.066000", "164118.069000", "164118.073000", "164118.076000", "164118.079000", "164118.083000", "164118.086000", "164118.089000", "164118.093000", "164118.096000", "164118.099000", "164118.103000", "164118.106000", "164118.109000", "164118.113000", "164118.116000", "164118.119000", "164118.122000", "164118.126000", "164118.129000", "164118.132000", "164118.136000", "164118.139000", "164158.053000", "164158.057000", "164158.060000", "164158.063000", "164158.067000", "164158.070000", "164158.074000", "164158.077000", "164158.081000", "164158.084000", "164158.087000", "164158.091000", "164158.094000", "164158.097000", "164158.101000", "164158.104000", "164158.107000", "164158.111000", "164158.114000", "164158.117000", "164158.121000", "164158.124000", "164158.127000", "164158.131000", "164158.134000", "164158.137000", "164158.140000", "164213.532000", "164213.535000", "164213.545000", "164213.549000", "164213.552000", "164213.555000", "164213.559000", "164213.562000", "164213.566000", "164213.569000"],
