{
  "AcquisitionMatrixPE": 104,
  "AcquisitionNumber": 1,
  "AcquisitionTime": "17:11:12.815000",
  "BandwidthPerPixelPhaseEncode": 17.17,
  "BaseResolution": 104,
  "BodyPartExamined": "BRAIN",
  "CoilCombinationMethod": "Sum of Squares",
  "ConsistencyInfo": "N4_VE11C_LATEST_20160120",
  "ConversionSoftware": "dcm2niix",
  "ConversionSoftwareVersion": "v1.0.20211006",
  "DerivedVendorReportedEchoSpacing": 0.000560011,
  "DeviceSerialNumber": "167006",
  "DwellTime": 2.1e-06,
  "EchoTime": 0.037,
  "EchoTime1": 0.037,
  "EchoTime2": 0.001,
  "EchoTrainLength": 104,
  "EffectiveEchoSpacing": 0.000560011,
  "FlipAngle": 52,
  "HeudiconvVersion": "0.11.3.post9+gc939bf8",
  "ImageComments": "Unaliased MB4/PE3/LB",
  "ImageOrientationPatientDICOM": [0.999788, -0.0194161, 0.00690668, 0.0205934, 0.928702, -0.370254],
  "ImageOrientationText": "Tra>Cor(-21.7)>Sag(-0.0)",
  "ImageType": [
    "ORIGINAL",
    "PRIMARY",
    "P",
    "MB",
    "ND",
    "MOSAIC",
    "PHASE"
],
  "ImagingFrequency": 123.259,
  "InPlanePhaseEncodingDirectionDICOM": "COL",
  "InstitutionAddress": "Chemin Queen-Mary 4565,Montreal,District,CA,H3W 1W5",
  "InstitutionName": "IUGM",
  "InstitutionalDepartmentName": "Department",
  "MRAcquisitionType": "2D",
  "MagneticFieldStrength": 3,
  "Manufacturer": "Siemens",
  "ManufacturersModelName": "Prisma_fit",
  "MatrixCoilMode": "SENSE",
  "Modality": "MR",
  "MultibandAccelerationFactor": 4,
  "PartialFourier": 1,
  "PatientPosition": "HFS",
  "PercentPhaseFOV": 100,
  "PercentSampling": 100,
  "PhaseEncodingDirection": "j",
  "PhaseEncodingSteps": 104,
  "PhaseResolution": 1,
  "PixelBandwidth": 2290,
  "ProcedureStepDescription": "games^mario",
  "ProtocolName": "func_task-mario_run-04",
  "PulseSequenceDetails": "%CustomerSeq%\\cmrr_mbep2d_bold",
  "ReceiveCoilActiveElements": "HC1-7;NC1,2",
  "ReceiveCoilName": "HeadNeck_64",
  "ReconMatrixPE": 104,
  "RepetitionTime": 1.49,
  "SAR": 0.0786194,
  "ScanOptions": "FS",
  "ScanningSequence": "EP",
  "SequenceName": "epfid2d1_104",
  "SequenceVariant": "SK\\SS",
  "SeriesDescription": "func_task-mario_run-04",
  "SeriesNumber": 20,
  "ShimSetting": [615, -7246, -8842, 398, 54, -350, -9, 34],
  "SliceThickness": 2,
  "SliceTiming": [0, 0.785, 0.0975, 0.8825, 0.1975, 0.98, 0.295, 1.0775, 0.3925, 1.1775, 0.49, 1.275, 0.5875, 1.3725, 0.6875, 0, 0.785, 0.0975, 0.8825, 0.1975, 0.98, 0.295, 1.0775, 0.3925, 1.1775, 0.49, 1.275, 0.5875, 1.3725, 0.6875, 0, 0.785, 0.0975, 0.8825, 0.1975, 0.98, 0.295, 1.0775, 0.3925, 1.1775, 0.49, 1.275, 0.5875, 1.3725, 0.6875, 0, 0.785, 0.0975, 0.8825, 0.1975, 0.98, 0.295, 1.0775, 0.3925, 1.1775, 0.49, 1.275, 0.5875, 1.3725, 0.6875],
  "SoftwareVersions": "syngo MR E11",
  "SpacingBetweenSlices": 2,
  "StationName": "MRC35049",
  "TaskName": "mario",
  "TotalReadoutTime": 0.0576811,
  "TxRefAmp": 316.401,
  "WipMemBlock": "6b3bcc21-ff25-45f4-8efe-6dce595bb7a8||Sequence: R017 ve11c/master r/75a17815+; Jun 28 2022 16:32:11 by eja",
  "dcmmeta_affine": [
    [-1.9995752573013306, 0.04118677228689194, -0.0015493023674935102, 102.08631134033203],
    [0.03883222118020058, 1.8574042320251465, -0.7406360507011414, -63.88533020019531],
    [0.013813363388180733, 0.7405088543891907, 1.8578094244003296, -71.01478576660156],
    [0.0, 0.0, 0.0, 1.0]
],
  "dcmmeta_reorient_transform": [
    [0.0, -1.0, 0.0, 103.0],
    [1.0, 0.0, 0.0, 0.0],
    [0.0, 0.0, 1.0, 0.0],
    [0.0, 0.0, 0.0, 1.0]
],
  "dcmmeta_shape": [104, 104, 60, 498],
  "dcmmeta_slice_dim": 2,
  "dcmmeta_version": 0.6,
  "global": {
    "const": {
      "AcquisitionMatrix": [104, 0, 0, 104],
      "AngioFlag": "N",
      "BitsAllocated": 16,
      "BitsStored": 16,
      "BodyPartExamined": "BRAIN",
      "Columns": 832,
      "EchoNumbers": 1,
      "EchoTime": 37.0,
      "EchoTrainLength": 104,
      "FlipAngle": 52.0,
      "HighBit": 15,
      "ImageOrientationPatient": [0.99978763364779, -0.0194161105972, 0.00690668185407, 0.02059338535842, 0.92870208737923, -0.3702544332982],
      "ImagePositionPatient": [-849.16593247922, -789.38748968945, 269.77478873517],
      "ImageType": [
        "ORIGINAL",
        "PRIMARY",
        "P",
        "MB",
        "ND",
        "MOSAIC"
],
      "ImagedNucleus": "1H",
      "ImagingFrequency": 123.25874,
      "InPlanePhaseEncodingDirection": "COL",
      "LargestImagePixelValue": 4095,
      "MRAcquisitionType": "2D",
      "MagneticFieldStrength": 3.0,
      "Manufacturer": "SIEMENS",
      "ManufacturerModelName": "Prisma_fit",
      "Modality": "MR",
      "NumberOfAverages": 1.0,
      "NumberOfPhaseEncodingSteps": 104,
      "PercentPhaseFieldOfView": 100.0,
      "PercentSampling": 100.0,
      "PerformedProcedureStepStartTime": "162712.285000",
      "PhotometricInterpretation": "MONOCHROME2",
      "PixelBandwidth": 2290.0,
      "PixelRepresentation": 0,
      "PixelSpacing": [2.0, 2.0],
      "ProtocolName": "func_task-mario_run-04",
      "RepetitionTime": 1490.0,
      "RescaleIntercept": -4096.0,
      "RescaleSlope": 2.0,
      "RescaleType": "US",
      "Rows": 832,
      "SAR": 0.07861941939428,
      "SamplesPerPixel": 1,
      "ScanOptions": "FS",
      "ScanningSequence": "EP",
      "SequenceName": "epfid2d1_104",
      "SequenceVariant": [
        "SK",
        "SS"
],
      "SeriesDescription": "func_task-mario_run-04",
      "SeriesNumber": 20,
      "SeriesTime": "171238.256000",
      "SliceLocation": -42.387161203576,
      "SliceThickness": 2.0,
      "SmallestImagePixelValue": 0,
      "SoftwareVersions": "syngo MR E11",
      "SpacingBetweenSlices": 2.0000000080699,
      "SpecificCharacterSet": "ISO_IR 100",
      "StudyID": "1",
      "StudyTime": "162712.210000",
      "TransmitCoilName": "Body",
      "VariableFlipAngleFlag": "N",
      "WindowCenterWidthExplanation": "Algo1",
      "dBdt": 0.0},
    "slices": {}
  },
  "time": {
    "samples": {
      "AcquisitionNumber": [1, 2, 3, 4, 5, 6, 7, 8, 9, 10, 11, 12, 13, 14, 15, 16, 17, 18, 19, 20, 21, 22, 23, 24, 25, 26, 27, 28, 29, 30, 31, 32, 33, 34, 35, 36, 37, 38, 39, 40, 41, 42, 43, 44, 45, 46, 47, 48, 49, 50, 51, 52, 53, 54, 55, 56, 57, 58, 59, 60, 61, 62, 63, 64, 65, 66, 67, 68, 69, 70, 71, 72, 73, 74, 75, 76, 77, 78, 79, 80, 81, 82, 83, 84, 85, 86, 87, 88, 89, 90, 91, 92, 93, 94, 95, 96, 97, 98, 99, 100, 101, 102, 103, 104, 105, 106, 107, 108, 109, 110, 111, 112, 113, 114, 115, 116, 117, 118, 119, 120, 121, 122, 123, 124, 125, 126, 127, 128, 129, 130, 131, 132, 133, 134, 135, 136, 137, 138, 139, 140, 141, 142, 143, 144, 145, 146, 147, 148, 149, 150, 151, 152, 153, 154, 155, 156, 157, 158, 159, 160, 161, 162, 163, 164, 165, 166, 167, 168, 169, 170, 171, 172, 173, 174, 175, 176, 177, 178, 179, 180, 181, 182, 183, 184, 185, 186, 187, 188, 189, 190, 191, 192, 193, 194, 195, 196, 197, 198, 199, 200, 201, 202, 203, 204, 205, 206, 207, 208, 209, 210, 211, 212, 213, 214, 215, 216, 217, 218, 219, 220, 221, 222, 223, 224, 225, 226, 227, 228, 229, 230, 231, 232, 233, 234, 235, 236, 237, 238, 239, 240, 241, 242, 243, 244, 245, 246, 247, 248, 249, 250, 251, 252, 253, 254, 255, 256, 257, 258, 259, 260, 261, 262, 263, 264, 265, 266, 267, 268, 269, 270, 271, 272, 273, 274, 275, 276, 277, 278, 279, 280, 281, 282, 283, 284, 285, 286, 287, 288, 289, 290, 291, 292, 293, 294, 295, 296, 297, 298, 299, 300, 301, 302, 303, 304, 305, 306, 307, 308, 309, 310, 311, 312, 313, 314, 315, 316, 317, 318, 319, 320, 321, 322, 323, 324, 325, 326, 327, 328, 329, 330, 331, 332, 333, 334, 335, 336, 337, 338, 339, 340, 341, 342, 343, 344, 345, 346, 347, 348, 349, 350, 351, 352, 353, 354, 355, 356, 357, 358, 359, 360, 361, 362, 363, 364, 365, 366, 367, 368, 369, 370, 371, 372, 373, 374, 375, 376, 377, 378, 379, 380, 381, 382, 383, 384, 385, 386, 387, 388, 389, 390, 391, 392, 393, 394, 395, 396, 397, 398, 399, 400, 401, 402, 403, 404, 405, 406, 407, 408, 409, 410, 411, 412, 413, 414, 415, 416, 417, 418, 419, 420, 421, 422, 423, 424, 425, 426, 427, 428, 429, 430, 431, 432, 433, 434, 435, 436, 437, 438, 439, 440, 441, 442, 443, 444, 445, 446, 447, 448, 449, 450, 451, 452, 453, 454, 455, 456, 457, 458, 459, 460, 461, 462, 463, 464, 465, 466, 467, 468, 469, 470, 471, 472, 473, 474, 475, 476, 477, 478, 479, 480, 481, 482, 483, 484, 485, 486, 487, 488, 489, 490, 491, 492, 493, 494, 495, 496, 497, 498],
      "AcquisitionTime": ["171112.815000", "171114.305000", "171115.795000", "171117.285000", "171118.775000", "171120.265000", "171121.755000", "171123.245000", "171124.735000", "171126.225000", "171127.715000", "171129.205000", "171130.695000", "171132.185000", "171133.675000", "171135.165000", "171136.655000", "171138.145000", "171139.635000", "171141.125000", "171142.615000", "171144.105000", "171145.595000", "171147.085000", "171148.575000", "171150.065000", "171151.555000", "171153.045000", "171154.535000", "171156.025000", "171157.515000", "171159.005000", "171200.495000", "171201.985000", "171203.475000", "171204.965000", "171206.455000", "171207.945000", "171209.435000", "171210.925000", "171212.415000", "171213.905000", "171215.395000", "171216.885000", "171218.375000", "171219.865000", "171221.355000", "171222.845000", "171224.335000", "171225.825000", "171227.315000", "171228.805000", "171230.295000", "171231.785000", "171233.275000", "171234.765000", "171236.255000", "171237.745000", "171239.235000", "171240.725000", "171242.215000", "171243.705000", "171245.195000", "171246.685000", "171248.175000", "171249.665000", "171251.155000", "171252.645000", "171254.135000", "171255.625000", "171257.115000", "171258.605000", "171300.095000", "171301.585000", "171303.075000", "171304.565000", "171306.055000", "171307.545000", "171309.035000", "171310.525000", "171312.015000", "171313.505000", "171314.995000", "171316.485000", "171317.975000", "171319.465000", "171320.955000", "171322.445000", "171323.935000", "171325.425000", "171326.915000", "171328.405000", "171329.895000", "171331.385000", "171332.875000", "171334.365000", "171335.855000", "171337.345000", "171338.835000", "171340.325000", "171341.815000", "171343.305000", "171344.795000", "171346.285000", "171347.775000", "171349.265000", "171350.755000", "171352.245000", "171353.735000", "171355.225000", "171356.715000", "171358.205000", "171359.695000", "171401.185000", "171402.675000", "171404.165000", "171405.655000", "171407.145000", "171408.635000", "171410.125000", "171411.615000", "171413.105000", "171414.595000", "171416.085000", "171417.575000", "171419.065000", "171420.555000", "171422.045000", "171423.535000", "171425.025000", "171426.515000", "171428.005000", "171429.495000", "171430.985000", "171432.475000", "171433.965000", "171435.455000", "171436.945000", "171438.435000", "171439.925000", "171441.415000", "171442.905000", "171444.395000", "171445.885000", "171447.375000", "171448.865000", "171450.355000", "171451.845000", "171453.335000", "171454.825000", "171456.315000", "171457.805000", "171459.295000", "171500.785000", "171502.275000", "171503.765000", "171505.255000", "171506.745000", "171508.235000", "171509.725000", "171511.215000", "171512.705000", "171514.195000", "171515.685000", "171517.175000", "171518.665000", "171520.155000", "171521.645000", "171523.135000", "171524.625000", "171526.115000", "171527.605000", "171529.095000", "171530.585000", "171532.075000", "171533.565000", "171535.055000", "171536.545000", "171538.035000", "171539.525000", "171541.015000", "171542.505000", "171543.995000", "171545.485000", "171546.975000", "171548.465000", "171549.955000", "171551.445000", "171552.935000", "171554.425000", "171555.915000", "171557.405000", "171558.895000", "171600.385000", "171601.875000", "171603.365000", "171604.855000", "171606.345000", "171607.835000", "171609.325000", "171610.815000", "171612.305000", "171613.795000", "171615.285000", "171616.775000", "171618.265000", "171619.755000", "171621.245000", "171622.735000", "171624.225000", "171625.715000", "171627.205000", "171628.695000", "171630.185000", "171631.675000", "171633.165000", "171634.655000", "171636.145000", "171637.635000", "171639.125000", "171640.615000", "171642.105000", "171643.595000", "171645.085000", "171646.575000", "171648.065000", "171649.555000", "171651.045000", "171652.535000", "171654.025000", "171655.515000", "171657.005000", "171658.495000", "171659.985000", "171701.475000", "171702.965000", "171704.455000", "171705.945000", "171707.435000", "171708.925000", "171710.415000", "171711.905000", "171713.395000", "171714.885000", "171716.375000", "171717.865000", "171719.355000", "171720.845000", "171722.335000", "171723.825000", "171725.315000", "171726.805000", "171728.295000", "171729.785000", "171731.275000", "171732.765000", "171734.255000", "171735.745000", "171737.235000", "171738.725000", "171740.215000", "171741.705000", "171743.195000", "171744.685000", "171746.175000", "171747.665000", "171749.155000", "171750.645000", "171752.135000", "171753.625000", "171755.115000", "171756.605000", "171758.095000", "171759.585000", "171801.075000", "171802.565000", "171804.055000", "171805.545000", "171807.035000", "171808.525000", "171810.015000", "171811.505000", "171812.995000", "171814.485000", "171815.975000", "171817.465000", "171818.955000", "171820.445000", "171821.935000", "171823.425000", "171824.915000", "171826.405000", "171827.895000", "171829.385000", "171830.875000", "171832.365000", "171833.855000", "171835.345000", "171836.835000", "171838.325000", "171839.815000", "171841.305000", "171842.795000", "171844.285000", "171845.775000", "171847.265000", "171848.755000", "171850.245000", "171851.735000", "171853.225000", "171854.715000", "171856.205000", "171857.695000", "171859.185000", "171900.675000", "171902.165000", "171903.655000", "171905.145000", "171906.635000", "171908.125000", "171909.615000", "171911.105000", "171912.595000", "171914.085000", "171915.575000", "171917.065000", "171918.555000", "171920.045000", "171921.535000", "171923.025000", "171924.515000", "171926.005000", "171927.495000", "171928.985000", "171930.475000", "171931.965000", "171933.455000", "171934.945000", "171936.435000", "171937.925000", "171939.415000", "171940.905000", "171942.395000", "171943.885000", "171945.375000", "171946.865000", "171948.355000", "171949.845000", "171951.335000", "171952.825000", "171954.315000", "171955.805000", "171957.295000", "171958.785000", "172000.275000", "172001.765000", "172003.255000", "172004.745000", "172006.235000", "172007.725000", "172009.215000", "172010.705000", "172012.195000", "172013.685000", "172015.175000", "172016.665000", "172018.155000", "172019.645000", "172021.135000", "172022.625000", "172024.115000", "172025.605000", "172027.095000", "172028.585000", "172030.075000", "172031.565000", "172033.055000", "172034.545000", "172036.035000", "172037.525000", "172039.015000", "172040.505000", "172041.995000", "172043.485000", "172044.975000", "172046.465000", "172047.955000", "172049.445000", "172050.935000", "172052.425000", "172053.915000", "172055.405000", "172056.895000", "172058.385000", "172059.875000", "172101.365000", "172102.855000", "172104.345000", "172105.835000", "172107.325000", "172108.815000", "172110.305000", "172111.795000", "172113.285000", "172114.775000", "172116.265000", "172117.755000", "172119.245000", "172120.735000", "172122.225000", "172123.715000", "172125.205000", "172126.695000", "172128.185000", "172129.675000", "172131.165000", "172132.655000", "172134.145000", "172135.635000", "172137.125000", "172138.615000", "172140.105000", "172141.595000", "172143.085000", "172144.575000", "172146.065000", "172147.555000", "172149.045000", "172150.535000", "172152.025000", "172153.515000", "172155.005000", "172156.495000", "172157.985000", "172159.475000", "172200.965000", "172202.455000", "172203.945000", "172205.435000", "172206.925000", "172208.415000", "172209.905000", "172211.395000", "172212.885000", "172214.375000", "172215.865000", "172217.355000", "172218.845000", "172220.335000", "172221.825000", "172223.315000", "172224.805000", "172226.295000", "172227.785000", "172229.275000", "172230.765000", "172232.255000", "172233.745000", "172235.235000", "172236.725000", "172238.215000", "172239.705000", "172241.195000", "172242.685000", "172244.175000", "172245.665000", "172247.155000", "172248.645000", "172250.135000", "172251.625000", "172253.115000", "172254.605000", "172256.095000", "172257.585000", "172259.075000", "172300.565000", "172302.055000", "172303.545000", "172305.035000", "172306.525000", "172308.015000", "172309.505000", "172310.995000", "172312.485000", "172313.975000", "172315.465000", "172316.955000", "172318.445000", "172319.935000", "172321.425000", "172322.915000", "172324.405000", "172325.895000", "172327.385000", "172328.875000", "172330.365000", "172331.855000", "172333.345000"],
      "ContentTime": ["171238.259000", "171238.261000", "171238.264000", "171238.266000", "171238.274000", "171238.276000", "171238.278000", "171238.281000", "171238.284000", "171238.286000", "171238.297000", "171238.299000", "171238.302000", "171238.304000", "171238.307000", "171238.309000", "171238.312000", "171238.314000", "171238.317000", "171238.319000", "171238.322000", "171238.324000", "171238.327000", "171238.329000", "171238.332000", "171238.334000", "171238.337000", "171238.339000", "171238.342000", "171238.344000", "171238.347000", "171238.349000", "171238.352000", "171238.356000", "171238.358000", "171238.361000", "171258.175000", "171258.178000", "171258.181000", "171258.183000", "171258.186000", "171258.188000", "171258.191000", "171258.193000", "171258.196000", "171258.198000", "171258.201000", "171258.203000", "171258.206000", "171258.208000", "171258.211000", "171258.213000", "171258.216000", "171258.218000", "171258.221000", "171258.223000", "171318.157000", "171318.160000", "171318.162000", "171318.165000", "171318.168000", "171318.170000", "171318.172000", "171318.175000", "171318.177000", "171318.180000", "171318.182000", "171318.185000", "171318.187000", "171318.190000", "171318.192000", "171318.195000", "171318.197000", "171318.200000", "171318.202000", "171318.205000", "171338.168000", "171338.171000", "171338.173000", "171338.176000", "171338.178000", "171338.186000", "171338.189000", "171338.191000", "171338.194000", "171338.197000", "171338.199000", "171338.202000", "171338.204000", "171338.207000", "171338.209000", "171338.212000", "171338.214000", "171338.216000", "171338.219000", "171338.222000", "171418.199000", "171418.202000", "171418.204000", "171418.207000", "171418.209000", "171418.212000", "171418.214000", "171418.217000", "171418.219000", "171418.222000", "171418.224000", "171418.227000", "171418.229000", "171418.232000", "171418.234000", "171418.237000", "171418.239000", "171418.242000", "171418.244000", "171418.247000", "171418.249000", "171418.252000", "171418.254000", "171418.257000", "171418.259000", "171418.262000", "171418.264000", "171418.267000", "171458.201000", "171458.204000", "171458.206000", "171458.209000", "171458.220000", "171458.223000", "171458.225000", "171458.228000", "171458.230000", "171458.233000", "171458.235000", "171458.238000", "171458.240000", "171458.243000", "171458.245000", "171458.248000", "171458.250000", "171458.253000", "171458.255000", "171458.258000", "171458.260000", "171458.263000", "171458.265000", "171458.268000", "171458.270000", "171458.273000", "171458.275000", "171538.191000", "171538.194000", "171538.196000", "171538.199000", "171538.201000", "171538.204000", "171538.206000", "171538.209000", "171538.211000", "171538.214000", "171538.216000", "171538.219000", "171538.221000", "171538.224000", "171538.227000", "171538.229000", "171538.232000", "171538.234000", "171538.237000", "171538.240000", "171538.242000", "171538.245000", "171538.248000", "171538.250000", "171538.252000", "171538.255000", "171618.200000", "171618.202000", "171618.205000", "171618.207000", "171618.210000", "171618.212000", "171618.215000", "171618.218000", "171618.220000", "171618.222000", "171618.225000", "171618.228000", "171618.230000", "171618.232000", "171618.235000", "171618.238000", "171618.240000", "171618.242000", "171618.245000", "171618.248000", "171618.250000", "171618.252000", "171618.255000", "171618.258000", "171618.260000", "171618.263000", "171618.265000", "171658.195000", "171658.198000", "171658.201000", "171658.203000", "171658.206000", "171658.208000", "171658.211000", "171658.213000", "171658.216000", "171658.218000", "171658.221000", "171658.223000", "171658.226000", "171658.228000", "171658.231000", "171658.233000", "171658.236000", "171658.238000", "171658.241000", "171658.243000", "171658.246000", "171658.249000", "171658.251000", "171658.253000", "171658.256000", "171658.259000", "171658.261000", "171738.197000", "171738.200000", "171738.203000", "171738.205000", "171738.208000", "171738.210000", "171738.213000", "171738.216000", "171738.218000", "171738.220000", "171738.223000", "171738.226000", "171738.228000", "171738.230000", "171738.233000", "171738.236000", "171738.238000", "171738.240000", "171738.243000", "171738.245000", "171738.248000", "171738.250000", "171738.253000", "171738.256000", "171738.258000", "171738.260000", "171738.263000", "171818.183000", "171818.185000", "171818.188000", "171818.190000", "171818.193000", "171818.196000", "171818.198000", "171818.201000", "171818.203000", "171818.206000", "171818.208000", "171818.211000", "171818.213000", "171818.216000", "171818.218000", "171818.221000", "171818.223000", "171818.226000", "171818.228000", "171818.231000", "171818.233000", "171818.236000", "171818.238000", "171818.241000", "171818.243000", "171818.246000", "171818.248000", "171858.184000", "171858.187000", "171858.190000", "171858.192000", "171858.194000", "171858.197000", "171858.200000", "171858.202000", "171858.205000", "171858.207000", "171858.210000", "171858.212000", "171858.215000", "171858.217000", "171858.220000", "171858.222000", "171858.225000", "171858.227000", "171858.230000", "171858.232000", "171858.235000", "171858.237000", "171858.240000", "171858.242000", "171858.245000", "171858.247000", "171858.250000", "171918.126000", "171918.128000", "171918.131000", "171918.133000", "171918.136000", "171918.138000", "171918.141000", "171918.143000", "171918.146000", "171918.148000", "171918.151000", "171918.153000", "171918.156000", "171958.197000", "171958.201000", "171958.209000", "171958.212000", "171958.214000", "171958.217000", "171958.219000", "171958.222000", "171958.224000", "171958.227000", "171958.229000", "171958.232000", "171958.234000", "171958.237000", "171958.239000", "171958.242000", "171958.244000", "171958.247000", "171958.249000", "171958.252000", "171958.254000", "171958.257000", "171958.259000", "171958.262000", "171958.264000", "171958.267000", "171958.270000", "172038.530000", "172038.533000", "172038.535000", "172038.538000", "172038.540000", "172038.543000", "172038.545000", "172038.548000", "172038.550000", "172038.553000", "172038.555000", "172038.558000", "172038.561000", "172038.563000", "172038.565000", "172038.568000", "172038.571000", "172038.573000", "172038.576000", "172038.578000", "172038.581000", "172038.583000", "172038.586000", "172038.588000", "172038.591000", "172038.593000", "172038.596000", "172118.214000", "172118.216000", "172118.219000", "172118.222000", "172118.224000", "172118.227000", "172118.229000", "172118.232000", "172118.234000", "172118.237000", "172118.239000", "172118.242000", "172118.244000", "172118.247000", "172118.249000", "172118.252000", "172118.254000", "172118.257000", "172118.259000", "172118.262000", "172118.264000", "172118.267000", "172118.269000", "172118.272000", "172118.274000", "172118.277000", "172118.279000", "172158.199000", "172158.202000", "172158.204000", "172158.207000", "172158.209000", "172158.212000", "172158.215000", "172158.217000", "172158.219000", "172158.222000", "172158.225000", "172158.227000", "172158.230000", "172158.236000", "172158.238000", "172158.241000", "172158.244000", "172158.246000", "172158.249000", "172158.251000", "172158.254000", "172158.256000", "172158.259000", "172158.261000", "172158.264000", "172158.267000", "172238.202000", "172238.204000", "172238.207000", "172238.209000", "172238.212000", "172238.214000", "172238.217000", "172238.219000", "172238.222000", "172238.224000", "172238.227000", "172238.229000", "172238.232000", "172238.235000", "172238.237000", "172238.240000", "172238.242000", "172238.245000", "172238.247000", "172238.250000", "172238.252000", "172238.255000", "172238.257000", "172238.260000", "172238.262000", "172238.265000", "172238.267000", "172318.188000", "172318.191000", "172318.194000", "172318.196000", "172318.199000", "172318.201000", "172318.204000", "172318.206000", "172318.209000", "172318.211000", "172318.214000", "172318.216000", "172318.219000", "172318.221000", "172318.224000", "172318.226000", "172318.229000", "172318.231000", "172318.234000", "172318.236000", "172318.239000", "172318.241000", "172318.244000", "172318.246000", "172318.249000", "172318.251000", "172318.254000", "172335.637000", "172335.640000", "172335.643000", "172335.645000", "172335.648000", "172335.651000", "172335.654000", "172335.657000", "172335.659000", "172335.662000", "172335.664000", "172335.667000"],
