{
  "AcquisitionMatrixPE": 104,
  "AcquisitionNumber": 1,
  "AcquisitionTime": "17:25:1.322500",
  "BandwidthPerPixelPhaseEncode": 17.17,
  "BaseResolution": 104,
  "BodyPartExamined": "BRAIN",
  "CoilCombinationMethod": "Sum of Squares",
  "ConsistencyInfo": "N4_VE11C_LATEST_20160120",
  "ConversionSoftware": "dcm2niix",
  "ConversionSoftwareVersion": "v1.0.20211006",
  "DerivedVendorReportedEchoSpacing": 0.000560011,
  "DeviceSerialNumber": "167006",
  "DwellTime": 2.1e-06,
  "EchoTime": 0.037,
  "EchoTrainLength": 104,
  "EffectiveEchoSpacing": 0.000560011,
  "FlipAngle": 52,
  "HeudiconvVersion": "0.11.3.post9+gc939bf8",
  "ImageComments": "Unaliased MB4/PE3/LB",
  "ImageOrientationPatientDICOM": [0.999788, -0.0194161, 0.00690668, 0.0205934, 0.928702, -0.370254],
  "ImageOrientationText": "Tra>Cor(-21.7)>Sag(-0.0)",
  "ImageType": [
    "ORIGINAL",
    "PRIMARY",
    "M",
    "MB",
    "ND",
    "MOSAIC"
],
  "ImagingFrequency": 123.259,
  "InPlanePhaseEncodingDirectionDICOM": "COL",
  "InstitutionAddress": "Chemin Queen-Mary 4565,Montreal,District,CA,H3W 1W5",
  "InstitutionName": "IUGM",
  "InstitutionalDepartmentName": "Department",
  "MRAcquisitionType": "2D",
  "MagneticFieldStrength": 3,
  "Manufacturer": "Siemens",
  "ManufacturersModelName": "Prisma_fit",
  "MatrixCoilMode": "SENSE",
  "Modality": "MR",
  "MultibandAccelerationFactor": 4,
  "PartialFourier": 1,
  "PatientPosition": "HFS",
  "PercentPhaseFOV": 100,
  "PercentSampling": 100,
  "PhaseEncodingDirection": "j",
  "PhaseEncodingSteps": 104,
  "PhaseResolution": 1,
  "PixelBandwidth": 2290,
  "ProcedureStepDescription": "games^mario",
  "ProtocolName": "func_task-mario_run-05",
  "PulseSequenceDetails": "%CustomerSeq%\\cmrr_mbep2d_bold",
  "ReceiveCoilActiveElements": "HC1-7;NC1,2",
  "ReceiveCoilName": "HeadNeck_64",
  "ReconMatrixPE": 104,
  "RepetitionTime": 1.49,
  "SAR": 0.0786194,
  "ScanOptions": "FS",
  "ScanningSequence": "EP",
  "SequenceName": "epfid2d1_104",
  "SequenceVariant": "SK\\SS",
  "SeriesDescription": "func_task-mario_run-05",
  "SeriesNumber": 22,
  "ShimSetting": [615, -7246, -8842, 398, 54, -350, -9, 34],
  "SliceThickness": 2,
  "SliceTiming": [0, 0.785, 0.1, 0.8825, 0.1975, 0.98, 0.295, 1.08, 0.3925, 1.1775, 0.49, 1.275, 0.59, 1.3725, 0.6875, 0, 0.785, 0.1, 0.8825, 0.1975, 0.98, 0.295, 1.08, 0.3925, 1.1775, 0.49, 1.275, 0.59, 1.3725, 0.6875, 0, 0.785, 0.1, 0.8825, 0.1975, 0.98, 0.295, 1.08, 0.3925, 1.1775, 0.49, 1.275, 0.59, 1.3725, 0.6875, 0, 0.785, 0.1, 0.8825, 0.1975, 0.98, 0.295, 1.08, 0.3925, 1.1775, 0.49, 1.275, 0.59, 1.3725, 0.6875],
  "SoftwareVersions": "syngo MR E11",
  "SpacingBetweenSlices": 2,
  "StationName": "MRC35049",
  "TaskName": "mario",
  "TotalReadoutTime": 0.0576811,
  "TxRefAmp": 316.401,
  "WipMemBlock": "be4cf799-f1b2-4018-9d18-93de4e0b684c||Sequence: R017 ve11c/master r/75a17815+; Jun 28 2022 16:32:11 by eja",
  "dcmmeta_affine": [
    [-1.9995752573013306, 0.04118677228689194, -0.0015493023674935102, 102.08631134033203],
    [0.03883222118020058, 1.8574042320251465, -0.7406360507011414, -63.88533020019531],
    [0.013813363388180733, 0.7405088543891907, 1.8578094244003296, -71.01478576660156],
    [0.0, 0.0, 0.0, 1.0]
],
  "dcmmeta_reorient_transform": [
    [0.0, -1.0, 0.0, 103.0],
    [1.0, 0.0, 0.0, 0.0],
    [0.0, 0.0, 1.0, 0.0],
    [0.0, 0.0, 0.0, 1.0]
],
  "dcmmeta_shape": [104, 104, 60, 450],
  "dcmmeta_slice_dim": 2,
  "dcmmeta_version": 0.6,
  "global": {
    "const": {
      "AcquisitionMatrix": [104, 0, 0, 104],
      "AngioFlag": "N",
      "BitsAllocated": 16,
      "BitsStored": 16,
      "BodyPartExamined": "BRAIN",
      "Columns": 832,
      "EchoNumbers": 1,
      "EchoTime": 37.0,
      "EchoTrainLength": 104,
      "FlipAngle": 52.0,
      "HighBit": 15,
      "ImageOrientationPatient": [0.99978763364779, -0.0194161105972, 0.00690668185407, 0.02059338535842, 0.92870208737923, -0.3702544332982],
      "ImagePositionPatient": [-849.16593247922, -789.38748968945, 269.77478873517],
      "ImageType": [
        "ORIGINAL",
        "PRIMARY",
        "M",
        "MB",
        "ND",
        "MOSAIC"
],
      "ImagedNucleus": "1H",
      "ImagingFrequency": 123.258742,
      "InPlanePhaseEncodingDirection": "COL",
      "MRAcquisitionType": "2D",
      "MagneticFieldStrength": 3.0,
      "Manufacturer": "SIEMENS",
      "ManufacturerModelName": "Prisma_fit",
      "Modality": "MR",
      "NumberOfAverages": 1.0,
      "NumberOfPhaseEncodingSteps": 104,
      "PercentPhaseFieldOfView": 100.0,
      "PercentSampling": 100.0,
      "PerformedProcedureStepStartTime": "162712.285000",
      "PhotometricInterpretation": "MONOCHROME2",
      "PixelBandwidth": 2290.0,
      "PixelRepresentation": 0,
      "PixelSpacing": [2.0, 2.0],
      "ProtocolName": "func_task-mario_run-05",
      "RepetitionTime": 1490.0,
      "Rows": 832,
      "SAR": 0.07861941939428,
      "SamplesPerPixel": 1,
      "ScanOptions": "FS",
      "ScanningSequence": "EP",
      "SequenceName": "epfid2d1_104",
      "SequenceVariant": [
        "SK",
        "SS"
],
      "SeriesDescription": "func_task-mario_run-05",
      "SeriesNumber": 22,
      "SeriesTime": "172616.918000",
      "SliceLocation": -42.387161203576,
      "SliceThickness": 2.0,
      "SmallestImagePixelValue": 0,
      "SoftwareVersions": "syngo MR E11",
      "SpacingBetweenSlices": 2.0000000080699,
      "SpecificCharacterSet": "ISO_IR 100",
      "StudyID": "1",
      "StudyTime": "162712.210000",
      "TransmitCoilName": "Body",
      "VariableFlipAngleFlag": "N",
      "WindowCenterWidthExplanation": "Algo1",
      "dBdt": 0.0},
    "slices": {}
  },
  "time": {
    "samples": {
      "AcquisitionNumber": [1, 2, 3, 4, 5, 6, 7, 8, 9, 10, 11, 12, 13, 14, 15, 16, 17, 18, 19, 20, 21, 22, 23, 24, 25, 26, 27, 28, 29, 30, 31, 32, 33, 34, 35, 36, 37, 38, 39, 40, 41, 42, 43, 44, 45, 46, 47, 48, 49, 50, 51, 52, 53, 54, 55, 56, 57, 58, 59, 60, 61, 62, 63, 64, 65, 66, 67, 68, 69, 70, 71, 72, 73, 74, 75, 76, 77, 78, 79, 80, 81, 82, 83, 84, 85, 86, 87, 88, 89, 90, 91, 92, 93, 94, 95, 96, 97, 98, 99, 100, 101, 102, 103, 104, 105, 106, 107, 108, 109, 110, 111, 112, 113, 114, 115, 116, 117, 118, 119, 120, 121, 122, 123, 124, 125, 126, 127, 128, 129, 130, 131, 132, 133, 134, 135, 136, 137, 138, 139, 140, 141, 142, 143, 144, 145, 146, 147, 148, 149, 150, 151, 152, 153, 154, 155, 156, 157, 158, 159, 160, 161, 162, 163, 164, 165, 166, 167, 168, 169, 170, 171, 172, 173, 174, 175, 176, 177, 178, 179, 180, 181, 182, 183, 184, 185, 186, 187, 188, 189, 190, 191, 192, 193, 194, 195, 196, 197, 198, 199, 200, 201, 202, 203, 204, 205, 206, 207, 208, 209, 210, 211, 212, 213, 214, 215, 216, 217, 218, 219, 220, 221, 222, 223, 224, 225, 226, 227, 228, 229, 230, 231, 232, 233, 234, 235, 236, 237, 238, 239, 240, 241, 242, 243, 244, 245, 246, 247, 248, 249, 250, 251, 252, 253, 254, 255, 256, 257, 258, 259, 260, 261, 262, 263, 264, 265, 266, 267, 268, 269, 270, 271, 272, 273, 274, 275, 276, 277, 278, 279, 280, 281, 282, 283, 284, 285, 286, 287, 288, 289, 290, 291, 292, 293, 294, 295, 296, 297, 298, 299, 300, 301, 302, 303, 304, 305, 306, 307, 308, 309, 310, 311, 312, 313, 314, 315, 316, 317, 318, 319, 320, 321, 322, 323, 324, 325, 326, 327, 328, 329, 330, 331, 332, 333, 334, 335, 336, 337, 338, 339, 340, 341, 342, 343, 344, 345, 346, 347, 348, 349, 350, 351, 352, 353, 354, 355, 356, 357, 358, 359, 360, 361, 362, 363, 364, 365, 366, 367, 368, 369, 370, 371, 372, 373, 374, 375, 376, 377, 378, 379, 380, 381, 382, 383, 384, 385, 386, 387, 388, 389, 390, 391, 392, 393, 394, 395, 396, 397, 398, 399, 400, 401, 402, 403, 404, 405, 406, 407, 408, 409, 410, 411, 412, 413, 414, 415, 416, 417, 418, 419, 420, 421, 422, 423, 424, 425, 426, 427, 428, 429, 430, 431, 432, 433, 434, 435, 436, 437, 438, 439, 440, 441, 442, 443, 444, 445, 446, 447, 448, 449, 450],
      "AcquisitionTime": ["172501.322500", "172502.812500", "172504.302500", "172505.792500", "172507.282500", "172508.772500", "172510.262500", "172511.752500", "172513.242500", "172514.732500", "172516.222500", "172517.712500", "172519.202500", "172520.692500", "172522.182500", "172523.672500", "172525.162500", "172526.652500", "172528.142500", "172529.632500", "172531.122500", "172532.612500", "172534.102500", "172535.592500", "172537.082500", "172538.572500", "172540.062500", "172541.552500", "172543.042500", "172544.532500", "172546.022500", "172547.512500", "172549.002500", "172550.492500", "172551.982500", "172553.472500", "172554.962500", "172556.452500", "172557.942500", "172559.432500", "172600.922500", "172602.412500", "172603.902500", "172605.392500", "172606.882500", "172608.372500", "172609.862500", "172611.352500", "172612.842500", "172614.332500", "172615.822500", "172617.312500", "172618.802500", "172620.292500", "172621.782500", "172623.272500", "172624.762500", "172626.252500", "172627.742500", "172629.232500", "172630.722500", "172632.212500", "172633.702500", "172635.192500", "172636.682500", "172638.172500", "172639.662500", "172641.152500", "172642.642500", "172644.132500", "172645.622500", "172647.112500", "172648.602500", "172650.092500", "172651.582500", "172653.072500", "172654.562500", "172656.052500", "172657.542500", "172659.032500", "172700.522500", "172702.012500", "172703.502500", "172704.992500", "172706.482500", "172707.972500", "172709.462500", "172710.952500", "172712.442500", "172713.932500", "172715.422500", "172716.912500", "172718.402500", "172719.892500", "172721.382500", "172722.872500", "172724.362500", "172725.852500", "172727.342500", "172728.832500", "172730.322500", "172731.812500", "172733.302500", "172734.792500", "172736.282500", "172737.772500", "172739.262500", "172740.752500", "172742.242500", "172743.732500", "172745.222500", "172746.712500", "172748.202500", "172749.692500", "172751.182500", "172752.672500", "172754.162500", "172755.652500", "172757.142500", "172758.632500", "172800.122500", "172801.612500", "172803.102500", "172804.592500", "172806.082500", "172807.572500", "172809.062500", "172810.552500", "172812.042500", "172813.532500", "172815.022500", "172816.512500", "172818.002500", "172819.492500", "172820.982500", "172822.472500", "172823.962500", "172825.452500", "172826.942500", "172828.432500", "172829.922500", "172831.412500", "172832.902500", "172834.392500", "172835.882500", "172837.372500", "172838.862500", "172840.352500", "172841.842500", "172843.332500", "172844.822500", "172846.312500", "172847.802500", "172849.292500", "172850.782500", "172852.272500", "172853.762500", "172855.252500", "172856.742500", "172858.232500", "172859.722500", "172901.212500", "172902.702500", "172904.192500", "172905.682500", "172907.172500", "172908.662500", "172910.152500", "172911.642500", "172913.132500", "172914.622500", "172916.112500", "172917.602500", "172919.092500", "172920.582500", "172922.072500", "172923.562500", "172925.052500", "172926.542500", "172928.032500", "172929.522500", "172931.012500", "172932.502500", "172933.992500", "172935.482500", "172936.972500", "172938.462500", "172939.952500", "172941.442500", "172942.932500", "172944.422500", "172945.912500", "172947.402500", "172948.892500", "172950.382500", "172951.872500", "172953.362500", "172954.852500", "172956.342500", "172957.832500", "172959.322500", "173000.812500", "173002.302500", "173003.792500", "173005.282500", "173006.772500", "173008.262500", "173009.752500", "173011.242500", "173012.732500", "173014.222500", "173015.712500", "173017.202500", "173018.692500", "173020.182500", "173021.672500", "173023.162500", "173024.652500", "173026.142500", "173027.632500", "173029.122500", "173030.612500", "173032.102500", "173033.592500", "173035.082500", "173036.572500", "173038.062500", "173039.552500", "173041.042500", "173042.532500", "173044.022500", "173045.512500", "173047.002500", "173048.492500", "173049.982500", "173051.472500", "173052.962500", "173054.452500", "173055.942500", "173057.432500", "173058.922500", "173100.412500", "173101.902500", "173103.392500", "173104.882500", "173106.372500", "173107.862500", "173109.352500", "173110.842500", "173112.332500", "173113.822500", "173115.312500", "173116.802500", "173118.292500", "173119.782500", "173121.272500", "173122.762500", "173124.252500", "173125.742500", "173127.232500", "173128.722500", "173130.212500", "173131.702500", "173133.192500", "173134.682500", "173136.172500", "173137.662500", "173139.152500", "173140.642500", "173142.132500", "173143.622500", "173145.112500", "173146.602500", "173148.092500", "173149.582500", "173151.072500", "173152.562500", "173154.052500", "173155.542500", "173157.032500", "173158.522500", "173200.012500", "173201.502500", "173202.992500", "173204.482500", "173205.972500", "173207.462500", "173208.952500", "173210.442500", "173211.932500", "173213.422500", "173214.912500", "173216.402500", "173217.892500", "173219.382500", "173220.872500", "173222.362500", "173223.852500", "173225.342500", "173226.832500", "173228.322500", "173229.812500", "173231.302500", "173232.792500", "173234.282500", "173235.772500", "173237.262500", "173238.752500", "173240.242500", "173241.732500", "173243.222500", "173244.712500", "173246.202500", "173247.692500", "173249.182500", "173250.672500", "173252.162500", "173253.652500", "173255.142500", "173256.632500", "173258.122500", "173259.612500", "173301.102500", "173302.592500", "173304.082500", "173305.572500", "173307.062500", "173308.552500", "173310.042500", "173311.532500", "173313.022500", "173314.512500", "173316.002500", "173317.492500", "173318.982500", "173320.472500", "173321.962500", "173323.452500", "173324.942500", "173326.432500", "173327.922500", "173329.412500", "173330.902500", "173332.392500", "173333.882500", "173335.372500", "173336.862500", "173338.352500", "173339.842500", "173341.332500", "173342.822500", "173344.312500", "173345.802500", "173347.292500", "173348.782500", "173350.272500", "173351.762500", "173353.252500", "173354.742500", "173356.232500", "173357.722500", "173359.212500", "173400.702500", "173402.192500", "173403.682500", "173405.172500", "173406.662500", "173408.152500", "173409.642500", "173411.132500", "173412.622500", "173414.112500", "173415.602500", "173417.092500", "173418.582500", "173420.072500", "173421.562500", "173423.052500", "173424.542500", "173426.032500", "173427.522500", "173429.012500", "173430.502500", "173431.992500", "173433.482500", "173434.972500", "173436.462500", "173437.952500", "173439.442500", "173440.932500", "173442.422500", "173443.912500", "173445.402500", "173446.892500", "173448.382500", "173449.872500", "173451.362500", "173452.852500", "173454.342500", "173455.832500", "173457.322500", "173458.812500", "173500.302500", "173501.792500", "173503.282500", "173504.772500", "173506.262500", "173507.752500", "173509.242500", "173510.732500", "173512.222500", "173513.712500", "173515.202500", "173516.692500", "173518.182500", "173519.672500", "173521.162500", "173522.652500", "173524.142500", "173525.632500", "173527.122500", "173528.612500", "173530.102500", "173531.592500", "173533.082500", "173534.572500", "173536.062500", "173537.552500", "173539.042500", "173540.532500", "173542.022500", "173543.512500", "173545.002500", "173546.492500", "173547.982500", "173549.472500", "173550.962500", "173552.452500", "173553.942500", "173555.432500", "173556.922500", "173558.412500", "173559.902500", "173601.392500", "173602.882500", "173604.372500", "173605.862500", "173607.352500", "173608.842500", "173610.332500"],
      "ContentTime": ["172616.921000", "172616.925000", "172616.928000", "172616.932000", "172616.941000", "172616.944000", "172616.971000", "172616.974000", "172616.978000", "172616.981000", "172616.984000", "172616.988000", "172616.991000", "172616.994000", "172616.998000", "172617.002000", "172617.005000", "172617.008000", "172617.012000", "172617.015000", "172617.018000", "172617.022000", "172617.025000", "172617.028000", "172617.031000", "172617.035000", "172636.879000", "172636.886000", "172636.890000", "172636.893000", "172636.896000", "172636.899000", "172636.903000", "172636.906000", "172636.910000", "172636.913000", "172636.916000", "172636.920000", "172636.923000", "172636.926000", "172636.930000", "172636.933000", "172636.936000", "172636.940000", "172636.943000", "172636.946000", "172636.949000", "172656.879000", "172656.883000", "172656.886000", "172656.889000", "172656.893000", "172656.896000", "172656.899000", "172656.903000", "172656.906000", "172656.909000", "172656.912000", "172656.915000", "172656.919000", "172656.922000", "172656.925000", "172656.929000", "172656.932000", "172656.935000", "172656.938000", "172656.942000", "172716.879000", "172716.883000", "172716.886000", "172716.889000", "172716.893000", "172716.896000", "172716.899000", "172716.902000", "172716.906000", "172716.909000", "172716.912000", "172716.916000", "172716.919000", "172716.922000", "172716.925000", "172716.929000", "172716.934000", "172716.937000", "172716.940000", "172716.944000", "172756.879000", "172756.883000", "172756.886000", "172756.889000", "172756.893000", "172756.896000", "172756.899000", "172756.911000", "172756.915000", "172756.918000", "172756.921000", "172756.925000", "172756.928000", "172756.932000", "172756.935000", "172756.938000", "172756.942000", "172756.945000", "172756.948000", "172756.952000", "172756.955000", "172756.966000", "172756.969000", "172756.973000", "172756.976000", "172756.979000", "172756.982000", "172756.986000", "172756.989000", "172756.992000", "172836.879000", "172836.883000", "172836.886000", "172836.889000", "172836.893000", "172836.896000", "172836.899000", "172836.903000", "172836.906000", "172836.909000", "172836.912000", "172836.916000", "172836.919000", "172836.922000", "172836.925000", "172836.929000", "172836.932000", "172836.936000", "172836.939000", "172836.942000", "172836.945000", "172836.949000", "172836.952000", "172836.955000", "172836.959000", "172836.962000", "172836.965000", "172916.879000", "172916.883000", "172916.886000", "172916.890000", "172916.894000", "172916.899000", "172916.902000", "172916.906000", "172916.910000", "172916.914000", "172916.918000", "172916.922000", "172916.925000", "172916.928000", "172916.931000", "172916.935000", "172916.938000", "172916.942000", "172916.945000", "172916.948000", "172916.951000", "172916.955000", "172916.958000", "172916.961000", "172916.965000", "172916.968000", "172956.879000", "172956.883000", "172956.886000", "172956.890000", "172956.893000", "172956.896000", "172956.900000", "172956.903000", "172956.906000", "172956.909000", "172956.913000", "172956.916000", "172956.919000", "172956.923000", "172956.926000", "172956.929000", "172956.933000", "172956.936000", "172956.939000", "172956.943000", "172956.946000", "172956.949000", "172956.953000", "172956.956000", "172956.959000", "172956.962000", "172956.966000", "173036.879000", "173036.883000", "173036.886000", "173036.890000", "173036.893000", "173036.896000", "173036.900000", "173036.903000", "173036.906000", "173036.909000", "173036.913000", "173036.916000", "173036.919000", "173036.923000", "173036.926000", "173036.930000", "173036.933000", "173036.957000", "173036.960000", "173036.964000", "173036.967000", "173036.970000", "173036.974000", "173036.977000", "173036.980000", "173036.983000", "173036.987000", "173116.879000", "173116.883000", "173116.886000", "173116.889000", "173116.893000", "173116.896000", "173116.899000", "173116.902000", "173116.906000", "173116.909000", "173116.912000", "173116.916000", "173116.919000", "173116.922000", "173116.926000", "173116.929000", "173116.932000", "173116.936000", "173116.939000", "173116.942000", "173116.946000", "173116.949000", "173116.952000", "173116.955000", "173116.959000", "173116.962000", "173116.965000", "173156.879000", "173156.883000", "173156.886000", "173156.890000", "173156.893000", "173156.896000", "173156.900000", "173156.903000", "173156.906000", "173156.910000", "173156.913000", "173156.917000", "173156.920000", "173156.923000", "173156.927000", "173156.930000", "173156.933000", "173156.937000", "173156.940000", "173156.943000", "173156.947000", "173156.950000", "173156.953000", "173156.957000", "173156.960000", "173156.963000", "173156.967000", "173236.879000", "173236.883000", "173236.886000", "173236.890000", "173236.893000", "173236.896000", "173236.899000", "173236.903000", "173236.906000", "173236.909000", "173236.913000", "173236.916000", "173236.919000", "173236.922000", "173236.926000", "173236.929000", "173236.932000", "173236.936000", "173236.939000", "173236.942000", "173236.946000", "173236.949000", "173236.952000", "173236.955000", "173236.959000", "173236.962000", "173236.965000", "173316.879000", "173316.891000", "173316.895000", "173316.898000", "173316.901000", "173316.905000", "173316.908000", "173316.911000", "173316.915000", "173316.918000", "173316.921000", "173316.924000", "173316.928000", "173316.931000", "173316.934000", "173316.938000", "173316.941000", "173316.944000", "173316.948000", "173316.951000", "173316.954000", "173316.958000", "173316.961000", "173316.964000", "173316.968000", "173316.971000", "173316.974000", "173356.879000", "173356.884000", "173356.888000", "173356.891000", "173356.895000", "173356.898000", "173356.901000", "173356.905000", "173356.908000", "173356.911000", "173356.915000", "173356.918000", "173356.921000", "173356.925000", "173356.928000", "173356.931000", "173356.935000", "173356.938000", "173356.941000", "173356.945000", "173356.948000", "173356.951000", "173356.954000", "173356.958000", "173356.961000", "173356.965000", "173436.879000", "173436.883000", "173436.888000", "173436.892000", "173436.895000", "173436.898000", "173436.901000", "173436.905000", "173436.908000", "173436.912000", "173436.915000", "173436.918000", "173436.922000", "173436.925000", "173436.928000", "173436.931000", "173436.935000", "173436.938000", "173436.941000", "173436.945000", "173436.948000", "173436.951000", "173436.954000", "173436.958000", "173436.961000", "173436.965000", "173436.968000", "173516.879000", "173516.883000", "173516.886000", "173516.890000", "173516.893000", "173516.896000", "173516.899000", "173516.903000", "173516.906000", "173516.922000", "173516.925000", "173516.928000", "173516.932000", "173516.935000", "173516.938000", "173516.942000", "173516.945000", "173516.948000", "173516.951000", "173516.955000", "173516.958000", "173516.961000", "173516.965000", "173516.968000", "173516.971000", "173516.975000", "173516.978000", "173556.879000", "173556.883000", "173556.886000", "173556.890000", "173556.893000", "173556.896000", "173556.899000", "173556.903000", "173556.906000", "173556.910000", "173556.913000", "173556.916000", "173556.919000", "173556.923000", "173556.926000", "173556.929000", "173556.933000", "173556.936000", "173556.939000", "173556.943000", "173556.946000", "173556.949000", "173556.953000", "173556.956000", "173556.959000", "173556.962000", "173556.966000", "173613.233000", "173613.244000", "173613.247000", "173613.250000", "173613.253000", "173613.257000", "173613.260000", "173613.263000", "173613.267000", "173613.270000", "173613.273000"],
