{
  "AcquisitionMatrixPE": 104,
  "AcquisitionNumber": 1,
  "AcquisitionTime": "16:31:49.617500",
  "BandwidthPerPixelPhaseEncode": 17.17,
  "BaseResolution": 104,
  "BodyPartExamined": "BRAIN",
  "CoilCombinationMethod": "Sum of Squares",
  "ConsistencyInfo": "N4_VE11C_LATEST_20160120",
  "ConversionSoftware": "dcm2niix",
  "ConversionSoftwareVersion": "v1.0.20211006",
  "DerivedVendorReportedEchoSpacing": 0.000560011,
  "DeviceSerialNumber": "167006",
  "DwellTime": 2.1e-06,
  "EchoTime": 0.037,
  "EchoTrainLength": 104,
  "EffectiveEchoSpacing": 0.000560011,
  "FlipAngle": 52,
  "HeudiconvVersion": "0.5.3.post569+g418601f",
  "ImageComments": "Unaliased MB4/PE3/LB",
  "ImageOrientationPatientDICOM": [0.999573, -0.0274278, -0.0100295, 0.022858, 0.948532, -0.315855],
  "ImageOrientationText": "Tra>Cor(-18.4)>Sag(-1.0)",
  "ImageType": [
    "ORIGINAL",
    "PRIMARY",
    "M",
    "MB",
    "ND",
    "MOSAIC"
],
  "ImagingFrequency": 123.259,
  "InPlanePhaseEncodingDirectionDICOM": "COL",
  "InstitutionAddress": "Chemin Queen-Mary 4565,Montreal,District,CA,H3W 1W5",
  "InstitutionName": "IUGM",
  "InstitutionalDepartmentName": "Department",
  "MRAcquisitionType": "2D",
  "MagneticFieldStrength": 3,
  "Manufacturer": "Siemens",
  "ManufacturersModelName": "Prisma_fit",
  "MatrixCoilMode": "SENSE",
  "Modality": "MR",
  "MultibandAccelerationFactor": 4,
  "PartialFourier": 1,
  "PatientPosition": "HFS",
  "PercentPhaseFOV": 100,
  "PercentSampling": 100,
  "PhaseEncodingDirection": "j",
  "PhaseEncodingSteps": 104,
  "PhaseResolution": 1,
  "PixelBandwidth": 2290,
  "ProcedureStepDescription": "games^mario",
  "ProtocolName": "func_task-mario_run-04",
  "PulseSequenceDetails": "%CustomerSeq%\\cmrr_mbep2d_bold",
  "ReceiveCoilActiveElements": "HC1-7;NC1,2",
  "ReceiveCoilName": "HeadNeck_64",
  "ReconMatrixPE": 104,
  "RepetitionTime": 1.49,
  "SAR": 0.0619345,
  "ScanOptions": "FS",
  "ScanningSequence": "EP",
  "SequenceName": "epfid2d1_104",
  "SequenceVariant": "SK\\SS",
  "SeriesDescription": "func_task-mario_run-04",
  "SeriesNumber": 19,
  "ShimSetting": [620, -7243, -8845, 593, -29, -191, -56, -30],
  "SliceThickness": 2,
  "SliceTiming": [0, 0.785, 0.1, 0.8825, 0.1975, 0.98, 0.295, 1.08, 0.3925, 1.1775, 0.49, 1.275, 0.59, 1.3725, 0.6875, 0, 0.785, 0.1, 0.8825, 0.1975, 0.98, 0.295, 1.08, 0.3925, 1.1775, 0.49, 1.275, 0.59, 1.3725, 0.6875, 0, 0.785, 0.1, 0.8825, 0.1975, 0.98, 0.295, 1.08, 0.3925, 1.1775, 0.49, 1.275, 0.59, 1.3725, 0.6875, 0, 0.785, 0.1, 0.8825, 0.1975, 0.98, 0.295, 1.08, 0.3925, 1.1775, 0.49, 1.275, 0.59, 1.3725, 0.6875],
  "SoftwareVersions": "syngo MR E11",
  "SpacingBetweenSlices": 2,
  "StationName": "MRC35049",
  "TaskName": "mario",
  "TotalReadoutTime": 0.0576811,
  "TxRefAmp": 274.302,
  "WipMemBlock": "98ffecc5-b72b-4c74-b7f8-efea9706717f||Sequence: R016 ve11c/master r/e634e98; Dec 19 2017 11:00:25 by eja",
  "dcmmeta_affine": [
    [-1.9991469383239746, 0.04571603611111641, -0.03635305538773537, 104.91020202636719],
    [0.0548555962741375, 1.8970638513565063, -0.6309828758239746, -69.1543960571289],
    [-0.020059015601873398, 0.6317108273506165, 1.8975086212158203, -70.5133056640625],
    [0.0, 0.0, 0.0, 1.0]
],
  "dcmmeta_reorient_transform": [
    [0.0, -1.0, 0.0, 103.0],
    [1.0, 0.0, 0.0, 0.0],
    [0.0, 0.0, 1.0, 0.0],
    [0.0, 0.0, 0.0, 1.0]
],
  "dcmmeta_shape": [104, 104, 60, 423],
  "dcmmeta_slice_dim": 2,
  "dcmmeta_version": 0.6,
  "global": {
    "const": {
      "AcquisitionMatrix": [104, 0, 0, 104],
      "AngioFlag": "N",
      "BitsAllocated": 16,
      "BitsStored": 16,
      "BodyPartExamined": "BRAIN",
      "Columns": 832,
      "EchoNumbers": 1,
      "EchoTime": 37.0,
      "EchoTrainLength": 104,
      "FlipAngle": 52.0,
      "HighBit": 15,
      "ImageOrientationPatient": [0.99957347144612, -0.027427798829, -0.0100295080907, 0.02285801878885, 0.94853195425637, -0.3158554142826],
      "ImagePositionPatient": [-853.94907594437, -796.80701203666, 231.79713645708],
      "ImageType": [
        "ORIGINAL",
        "PRIMARY",
        "M",
        "MB",
        "ND",
        "MOSAIC"
],
      "ImagedNucleus": "1H",
      "ImagingFrequency": 123.258845,
      "InPlanePhaseEncodingDirection": "COL",
      "MRAcquisitionType": "2D",
      "MagneticFieldStrength": 3.0,
      "Manufacturer": "SIEMENS",
      "ManufacturerModelName": "Prisma_fit",
      "Modality": "MR",
      "NumberOfAverages": 1.0,
      "NumberOfPhaseEncodingSteps": 104,
      "PercentPhaseFieldOfView": 100.0,
      "PercentSampling": 100.0,
      "PerformedProcedureStepStartTime": "152032.860000",
      "PhotometricInterpretation": "MONOCHROME2",
      "PixelBandwidth": 2290.0,
      "PixelRepresentation": 0,
      "PixelSpacing": [2.0, 2.0],
      "ProtocolName": "func_task-mario_run-04",
      "RepetitionTime": 1490.0,
      "Rows": 832,
      "SAR": 0.06193451321732,
      "SamplesPerPixel": 1,
      "ScanOptions": "FS",
      "ScanningSequence": "EP",
      "SequenceName": "epfid2d1_104",
      "SequenceVariant": [
        "SK",
        "SS"
],
      "SeriesDescription": "func_task-mario_run-04",
      "SeriesNumber": 19,
      "SeriesTime": "163316.081000",
      "SliceLocation": -46.989083866799,
      "SliceThickness": 2.0,
      "SmallestImagePixelValue": 0,
      "SoftwareVersions": "syngo MR E11",
      "SpacingBetweenSlices": 2.0000000040382,
      "SpecificCharacterSet": "ISO_IR 100",
      "StudyID": "1",
      "StudyTime": "152032.797000",
      "TransmitCoilName": "Body",
      "VariableFlipAngleFlag": "N",
      "WindowCenterWidthExplanation": "Algo1",
      "dBdt": 0.0},
    "slices": {}
  },
  "time": {
    "samples": {
      "AcquisitionNumber": [1, 2, 3, 4, 5, 6, 7, 8, 9, 10, 11, 12, 13, 14, 15, 16, 17, 18, 19, 20, 21, 22, 23, 24, 25, 26, 27, 28, 29, 30, 31, 32, 33, 34, 35, 36, 37, 38, 39, 40, 41, 42, 43, 44, 45, 46, 47, 48, 49, 50, 51, 52, 53, 54, 55, 56, 57, 58, 59, 60, 61, 62, 63, 64, 65, 66, 67, 68, 69, 70, 71, 72, 73, 74, 75, 76, 77, 78, 79, 80, 81, 82, 83, 84, 85, 86, 87, 88, 89, 90, 91, 92, 93, 94, 95, 96, 97, 98, 99, 100, 101, 102, 103, 104, 105, 106, 107, 108, 109, 110, 111, 112, 113, 114, 115, 116, 117, 118, 119, 120, 121, 122, 123, 124, 125, 126, 127, 128, 129, 130, 131, 132, 133, 134, 135, 136, 137, 138, 139, 140, 141, 142, 143, 144, 145, 146, 147, 148, 149, 150, 151, 152, 153, 154, 155, 156, 157, 158, 159, 160, 161, 162, 163, 164, 165, 166, 167, 168, 169, 170, 171, 172, 173, 174, 175, 176, 177, 178, 179, 180, 181, 182, 183, 184, 185, 186, 187, 188, 189, 190, 191, 192, 193, 194, 195, 196, 197, 198, 199, 200, 201, 202, 203, 204, 205, 206, 207, 208, 209, 210, 211, 212, 213, 214, 215, 216, 217, 218, 219, 220, 221, 222, 223, 224, 225, 226, 227, 228, 229, 230, 231, 232, 233, 234, 235, 236, 237, 238, 239, 240, 241, 242, 243, 244, 245, 246, 247, 248, 249, 250, 251, 252, 253, 254, 255, 256, 257, 258, 259, 260, 261, 262, 263, 264, 265, 266, 267, 268, 269, 270, 271, 272, 273, 274, 275, 276, 277, 278, 279, 280, 281, 282, 283, 284, 285, 286, 287, 288, 289, 290, 291, 292, 293, 294, 295, 296, 297, 298, 299, 300, 301, 302, 303, 304, 305, 306, 307, 308, 309, 310, 311, 312, 313, 314, 315, 316, 317, 318, 319, 320, 321, 322, 323, 324, 325, 326, 327, 328, 329, 330, 331, 332, 333, 334, 335, 336, 337, 338, 339, 340, 341, 342, 343, 344, 345, 346, 347, 348, 349, 350, 351, 352, 353, 354, 355, 356, 357, 358, 359, 360, 361, 362, 363, 364, 365, 366, 367, 368, 369, 370, 371, 372, 373, 374, 375, 376, 377, 378, 379, 380, 381, 382, 383, 384, 385, 386, 387, 388, 389, 390, 391, 392, 393, 394, 395, 396, 397, 398, 399, 400, 401, 402, 403, 404, 405, 406, 407, 408, 409, 410, 411, 412, 413, 414, 415, 416, 417, 418, 419, 420, 421, 422, 423],
      "AcquisitionTime": ["163149.617500", "163151.107500", "163152.597500", "163154.087500", "163155.577500", "163157.067500", "163158.557500", "163200.047500", "163201.537500", "163203.027500", "163204.517500", "163206.007500", "163207.497500", "163208.987500", "163210.477500", "163211.967500", "163213.457500", "163214.947500", "163216.437500", "163217.927500", "163219.417500", "163220.907500", "163222.397500", "163223.887500", "163225.377500", "163226.867500", "163228.357500", "163229.847500", "163231.337500", "163232.827500", "163234.317500", "163235.807500", "163237.297500", "163238.787500", "163240.277500", "163241.767500", "163243.257500", "163244.747500", "163246.237500", "163247.727500", "163249.217500", "163250.707500", "163252.197500", "163253.687500", "163255.177500", "163256.667500", "163258.157500", "163259.647500", "163301.137500", "163302.627500", "163304.117500", "163305.607500", "163307.097500", "163308.587500", "163310.077500", "163311.567500", "163313.057500", "163314.547500", "163316.037500", "163317.527500", "163319.017500", "163320.507500", "163321.997500", "163323.487500", "163324.977500", "163326.467500", "163327.957500", "163329.447500", "163330.937500", "163332.427500", "163333.917500", "163335.407500", "163336.897500", "163338.387500", "163339.877500", "163341.367500", "163342.857500", "163344.347500", "163345.837500", "163347.327500", "163348.817500", "163350.307500", "163351.797500", "163353.287500", "163354.777500", "163356.267500", "163357.757500", "163359.247500", "163400.737500", "163402.227500", "163403.717500", "163405.207500", "163406.697500", "163408.187500", "163409.677500", "163411.167500", "163412.657500", "163414.147500", "163415.637500", "163417.127500", "163418.617500", "163420.107500", "163421.597500", "163423.087500", "163424.577500", "163426.067500", "163427.557500", "163429.047500", "163430.537500", "163432.027500", "163433.517500", "163435.007500", "163436.497500", "163437.987500", "163439.477500", "163440.967500", "163442.457500", "163443.947500", "163445.437500", "163446.927500", "163448.417500", "163449.907500", "163451.397500", "163452.887500", "163454.377500", "163455.867500", "163457.357500", "163458.847500", "163500.337500", "163501.827500", "163503.317500", "163504.807500", "163506.297500", "163507.787500", "163509.277500", "163510.767500", "163512.257500", "163513.747500", "163515.237500", "163516.727500", "163518.217500", "163519.707500", "163521.197500", "163522.687500", "163524.177500", "163525.667500", "163527.157500", "163528.647500", "163530.137500", "163531.627500", "163533.117500", "163534.607500", "163536.097500", "163537.587500", "163539.077500", "163540.567500", "163542.057500", "163543.547500", "163545.037500", "163546.527500", "163548.017500", "163549.507500", "163550.997500", "163552.487500", "163553.977500", "163555.467500", "163556.957500", "163558.447500", "163559.937500", "163601.427500", "163602.917500", "163604.407500", "163605.897500", "163607.387500", "163608.877500", "163610.367500", "163611.857500", "163613.347500", "163614.837500", "163616.327500", "163617.817500", "163619.307500", "163620.797500", "163622.287500", "163623.777500", "163625.267500", "163626.757500", "163628.247500", "163629.737500", "163631.227500", "163632.717500", "163634.207500", "163635.697500", "163637.187500", "163638.677500", "163640.167500", "163641.657500", "163643.147500", "163644.637500", "163646.127500", "163647.617500", "163649.107500", "163650.597500", "163652.087500", "163653.577500", "163655.067500", "163656.557500", "163658.047500", "163659.537500", "163701.027500", "163702.517500", "163704.007500", "163705.497500", "163706.987500", "163708.477500", "163709.967500", "163711.457500", "163712.947500", "163714.437500", "163715.927500", "163717.417500", "163718.907500", "163720.397500", "163721.887500", "163723.377500", "163724.867500", "163726.357500", "163727.847500", "163729.337500", "163730.827500", "163732.317500", "163733.807500", "163735.297500", "163736.787500", "163738.277500", "163739.767500", "163741.257500", "163742.747500", "163744.237500", "163745.727500", "163747.217500", "163748.707500", "163750.197500", "163751.687500", "163753.177500", "163754.667500", "163756.157500", "163757.647500", "163759.137500", "163800.627500", "163802.117500", "163803.607500", "163805.097500", "163806.587500", "163808.077500", "163809.567500", "163811.057500", "163812.547500", "163814.037500", "163815.527500", "163817.017500", "163818.507500", "163819.997500", "163821.487500", "163822.977500", "163824.467500", "163825.957500", "163827.447500", "163828.937500", "163830.427500", "163831.917500", "163833.407500", "163834.897500", "163836.387500", "163837.877500", "163839.367500", "163840.857500", "163842.347500", "163843.837500", "163845.327500", "163846.817500", "163848.307500", "163849.797500", "163851.287500", "163852.777500", "163854.267500", "163855.757500", "163857.247500", "163858.737500", "163900.227500", "163901.717500", "163903.207500", "163904.697500", "163906.187500", "163907.677500", "163909.167500", "163910.657500", "163912.147500", "163913.637500", "163915.127500", "163916.617500", "163918.107500", "163919.597500", "163921.087500", "163922.577500", "163924.067500", "163925.557500", "163927.047500", "163928.537500", "163930.027500", "163931.517500", "163933.007500", "163934.497500", "163935.987500", "163937.477500", "163938.967500", "163940.457500", "163941.947500", "163943.437500", "163944.927500", "163946.417500", "163947.907500", "163949.397500", "163950.887500", "163952.377500", "163953.867500", "163955.357500", "163956.847500", "163958.337500", "163959.827500", "164001.317500", "164002.807500", "164004.297500", "164005.787500", "164007.277500", "164008.767500", "164010.257500", "164011.747500", "164013.237500", "164014.727500", "164016.217500", "164017.707500", "164019.197500", "164020.687500", "164022.177500", "164023.667500", "164025.157500", "164026.647500", "164028.137500", "164029.627500", "164031.117500", "164032.607500", "164034.097500", "164035.587500", "164037.077500", "164038.567500", "164040.057500", "164041.547500", "164043.037500", "164044.527500", "164046.017500", "164047.507500", "164048.997500", "164050.487500", "164051.977500", "164053.467500", "164054.957500", "164056.447500", "164057.937500", "164059.427500", "164100.917500", "164102.407500", "164103.897500", "164105.387500", "164106.877500", "164108.367500", "164109.857500", "164111.347500", "164112.837500", "164114.327500", "164115.817500", "164117.307500", "164118.797500", "164120.287500", "164121.777500", "164123.267500", "164124.757500", "164126.247500", "164127.737500", "164129.227500", "164130.717500", "164132.207500", "164133.697500", "164135.187500", "164136.677500", "164138.167500", "164139.657500", "164141.147500", "164142.637500", "164144.127500", "164145.617500", "164147.107500", "164148.597500", "164150.087500", "164151.577500", "164153.067500", "164154.557500", "164156.047500", "164157.537500", "164159.027500", "164200.517500", "164202.007500", "164203.497500", "164204.987500", "164206.477500", "164207.967500", "164209.457500", "164210.947500", "164212.437500", "164213.927500", "164215.417500", "164216.907500", "164218.397500"],
      "ContentTime": ["163316.084000", "163316.089000", "163316.092000", "163316.096000", "163316.099000", "163316.109000", "163316.113000", "163316.116000", "163316.120000", "163316.123000", "163316.127000", "163316.130000", "163316.133000", "163316.137000", "163316.140000", "163316.143000", "163316.147000", "163316.150000", "163316.153000", "163316.156000", "163316.160000", "163316.163000", "163316.166000", "163316.170000", "163316.173000", "163316.176000", "163316.179000", "163316.183000", "163316.186000", "163316.189000", "163316.193000", "163316.196000", "163316.199000", "163336.042000", "163336.046000", "163336.049000", "163336.053000", "163336.056000", "163336.060000", "163336.063000", "163336.067000", "163336.070000", "163336.074000", "163336.077000", "163336.080000", "163336.083000", "163336.098000", "163336.108000", "163336.112000", "163336.115000", "163336.118000", "163336.122000", "163336.125000", "163356.042000", "163356.046000", "163356.050000", "163356.054000", "163356.057000", "163356.061000", "163356.065000", "163356.068000", "163356.072000", "163356.075000", "163356.079000", "163356.082000", "163356.086000", "163356.091000", "163356.094000", "163356.098000", "163356.101000", "163356.105000", "163356.109000", "163356.112000", "163416.042000", "163416.046000", "163416.049000", "163416.052000", "163416.056000", "163416.059000", "163416.062000", "163416.066000", "163416.069000", "163416.072000", "163416.075000", "163416.079000", "163416.082000", "163416.085000", "163416.089000", "163416.092000", "163416.095000", "163416.099000", "163416.102000", "163416.105000", "163456.042000", "163456.046000", "163456.049000", "163456.053000", "163456.056000", "163456.059000", "163456.063000", "163456.066000", "163456.069000", "163456.073000", "163456.076000", "163456.079000", "163456.083000", "163456.086000", "163456.089000", "163456.093000", "163456.096000", "163456.099000", "163456.103000", "163456.106000", "163456.109000", "163456.112000", "163456.116000", "163456.119000", "163456.122000", "163456.126000", "163456.129000", "163456.132000", "163456.136000", "163456.139000", "163456.142000", "163536.042000", "163536.046000", "163536.049000", "163536.052000", "163536.056000", "163536.059000", "163536.062000", "163536.066000", "163536.073000", "163536.077000", "163536.080000", "163536.083000", "163536.087000", "163536.090000", "163536.093000", "163536.097000", "163536.100000", "163536.103000", "163536.107000", "163536.110000", "163536.113000", "163536.117000", "163536.120000", "163536.123000", "163536.126000", "163536.130000", "163536.133000", "163616.042000", "163616.046000", "163616.049000", "163616.053000", "163616.056000", "163616.060000", "163616.063000", "163616.066000", "163616.069000", "163616.073000", "163616.076000", "163616.080000", "163616.083000", "163616.086000", "163616.090000", "163616.093000", "163616.096000", "163616.100000", "163616.103000", "163616.107000", "163616.110000", "163616.113000", "163616.117000", "163616.120000", "163616.123000", "163616.127000", "163616.130000", "163656.042000", "163656.046000", "163656.049000", "163656.053000", "163656.056000", "163656.059000", "163656.063000", "163656.066000", "163656.069000", "163656.073000", "163656.076000", "163656.079000", "163656.083000", "163656.086000", "163656.089000", "163656.093000", "163656.096000", "163656.099000", "163656.103000", "163656.106000", "163656.109000", "163656.113000", "163656.116000", "163656.120000", "163656.123000", "163656.126000", "163656.130000", "163736.042000", "163736.046000", "163736.049000", "163736.053000", "163736.056000", "163736.060000", "163736.063000", "163736.066000", "163736.070000", "163736.073000", "163736.076000", "163736.080000", "163736.083000", "163736.086000", "163736.090000", "163736.093000", "163736.096000", "163736.100000", "163736.103000", "163736.106000", "163736.110000", "163736.113000", "163736.117000", "163736.120000", "163736.123000", "163736.127000", "163736.130000", "163816.042000", "163816.061000", "163816.064000", "163816.067000", "163816.071000", "163816.074000", "163816.077000", "163816.081000", "163816.084000", "163816.087000", "163816.091000", "163816.094000", "163816.097000", "163816.101000", "163816.104000", "163816.107000", "163816.111000", "163816.114000", "163816.117000", "163816.121000", "163816.124000", "163816.127000", "163816.131000", "163816.135000", "163816.138000", "163816.141000", "163856.042000", "163856.046000", "163856.049000", "163856.053000", "163856.056000", "163856.059000", "163856.063000", "163856.066000", "163856.069000", "163856.073000", "163856.076000", "163856.080000", "163856.083000", "163856.087000", "163856.090000", "163856.093000", "163856.097000", "163856.100000", "163856.104000", "163856.107000", "163856.111000", "163856.114000", "163856.117000", "163856.121000", "163856.124000", "163856.127000", "163856.131000", "163936.042000", "163936.046000", "163936.049000", "163936.053000", "163936.056000", "163936.059000", "163936.063000", "163936.066000", "163936.069000", "163936.073000", "163936.076000", "163936.080000", "163936.083000", "163936.086000", "163936.089000", "163936.093000", "163936.096000", "163936.099000", "163936.103000", "163936.106000", "163936.109000", "163936.113000", "163936.116000", "163936.119000", "163936.123000", "163936.126000", "163936.129000", "164016.042000", "164016.046000", "164016.049000", "164016.053000", "164016.056000", "164016.059000", "164016.073000", "164016.077000", "164016.080000", "164016.083000", "164016.087000", "164016.090000", "164016.093000", "164016.097000", "164016.100000", "164016.103000", "164016.107000", "164016.110000", "164016.113000", "164016.117000", "164016.120000", "164016.123000", "164016.127000", "164016.130000", "164016.133000", "164016.137000", "164016.140000", "164056.042000", "164056.046000", "164056.049000", "164056.053000", "164056.056000", "164056.059000", "164056.063000", "164056.066000", "164056.069000", "164056.073000", "164056.076000", "164056.079000", "164056.083000", "164056.086000", "164056.089000", "164056.093000", "164056.096000", "164056.099000", "164056.103000", "164056.106000", "164056.109000", "164056.113000", "164056.116000", "164056.119000", "164056.124000", "164056.128000", "164056.132000", "164136.042000", "164136.046000", "164136.049000", "164136.053000", "164136.056000", "164136.059000", "164136.063000", "164136.066000", "164136.069000", "164136.073000", "164136.076000", "164136.079000", "164136.083000", "164136.086000", "164136.089000", "164136.093000", "164136.096000", "164136.099000", "164136.103000", "164136.106000", "164136.109000", "164136.113000", "164136.116000", "164136.119000", "164136.122000", "164136.126000", "164136.129000", "164216.042000", "164216.046000", "164216.049000", "164216.053000", "164216.056000", "164216.059000", "164216.063000", "164216.066000", "164216.069000", "164216.073000", "164216.076000", "164216.080000", "164216.083000", "164216.086000", "164216.090000", "164216.093000", "164216.096000", "164216.100000", "164216.116000", "164216.119000", "164216.123000", "164216.126000", "164216.129000", "164216.133000", "164216.136000", "164216.139000", "164222.031000", "164222.035000", "164222.038000", "164222.042000"],
      "InstanceCreationTime": ["163316.084000", "163316.089000", "163316.092000", "163316.096000", "163316.099000", "163316.109000", "163316.113000", "163316.116000", "163316.120000", "163316.123000", "163316.127000", "163316.130000", "163316.133000", "163316.137000", "163316.140000", "163316.143000", "163316.147000", "163316.150000", "163316.153000", "163316.156000", "163316.160000", "163316.163000", "163316.166000", "163316.170000", "163316.173000", "163316.176000", "163316.179000", "163316.183000", "163316.186000", "163316.189000", "163316.193000", "163316.196000", "163316.199000", "163336.042000", "163336.046000", "163336.049000", "163336.053000", "163336.056000", "163336.060000", "163336.063000", "163336.067000", "163336.070000", "163336.074000", "163336.077000", "163336.080000", "163336.083000", "163336.098000", "163336.108000", "163336.112000", "163336.115000", "163336.118000", "163336.122000", "163336.125000", "163356.042000", "163356.046000", "163356.050000", "163356.054000", "163356.057000", "163356.061000", "163356.065000", "163356.068000", "163356.072000", "163356.075000", "163356.079000", "163356.082000", "163356.086000", "163356.091000", "163356.094000", "163356.098000", "163356.101000", "163356.105000", "163356.109000", "163356.112000", "163416.042000", "163416.046000", "163416.049000", "163416.052000", "163416.056000", "163416.059000", "163416.062000", "163416.066000", "163416.069000", "163416.072000", "163416.075000", "163416.079000", "163416.082000", "163416.085000", "163416.089000", "163416.092000", "163416.095000", "163416.099000", "163416.102000", "163416.105000", "163456.042000", "163456.046000", "163456.049000", "163456.053000", "163456.056000", "163456.059000", "163456.063000", "163456.066000", "163456.069000", "163456.073000", "163456.076000", "163456.079000", "163456.083000", "163456.086000", "163456.089000", "163456.093000", "163456.096000", "163456.099000", "163456.103000", "163456.106000", "163456.109000", "163456.112000", "163456.116000", "163456.119000", "163456.122000", "163456.126000", "163456.129000", "163456.132000", "163456.136000", "163456.139000", "163456.142000", "163536.042000", "163536.046000", "163536.049000", "163536.052000", "163536.056000", "163536.059000", "163536.062000", "163536.066000", "163536.073000", "163536.077000", "163536.080000", "163536.083000", "163536.087000", "163536.090000", "163536.093000", "163536.097000", "163536.100000", "163536.103000", "163536.107000", "163536.110000", "163536.113000", "163536.117000", "163536.120000", "163536.123000", "163536.126000", "163536.130000", "163536.133000", "163616.042000", "163616.046000", "163616.049000", "163616.053000", "163616.056000", "163616.060000", "163616.063000", "163616.066000", "163616.069000", "163616.073000", "163616.076000", "163616.080000", "163616.083000", "163616.086000", "163616.090000", "163616.093000", "163616.096000", "163616.100000", "163616.103000", "163616.107000", "163616.110000", "163616.113000", "163616.117000", "163616.120000", "163616.123000", "163616.127000", "163616.130000", "163656.042000", "163656.046000", "163656.049000", "163656.053000", "163656.056000", "163656.059000", "163656.063000", "163656.066000", "163656.069000", "163656.073000", "163656.076000", "163656.079000", "163656.083000", "163656.086000", "163656.089000", "163656.093000", "163656.096000", "163656.099000", "163656.103000", "163656.106000", "163656.109000", "163656.113000", "163656.116000", "163656.120000", "163656.123000", "163656.126000", "163656.130000", "163736.042000", "163736.046000", "163736.049000", "163736.053000", "163736.056000", "163736.060000", "163736.063000", "163736.066000", "163736.070000", "163736.073000", "163736.076000", "163736.080000", "163736.083000", "163736.086000", "163736.090000", "163736.093000", "163736.096000", "163736.100000", "163736.103000", "163736.106000", "163736.110000", "163736.113000", "163736.117000", "163736.120000", "163736.123000", "163736.127000", "163736.130000", "163816.042000", "163816.061000", "163816.064000", "163816.067000", "163816.071000", "163816.074000", "163816.077000", "163816.081000", "163816.084000", "163816.087000", "163816.091000", "163816.094000", "163816.097000", "163816.101000", "163816.104000", "163816.107000", "163816.111000", "163816.114000", "163816.117000", "163816.121000", "163816.124000", "163816.127000", "163816.131000", "163816.135000", "163816.138000", "163816.141000", "163856.042000", "163856.046000", "163856.049000", "163856.053000", "163856.056000", "163856.059000", "163856.063000", "163856.066000", "163856.069000", "163856.073000", "163856.076000", "163856.080000", "163856.083000", "163856.087000", "163856.090000", "163856.093000", "163856.097000", "163856.100000", "163856.104000", "163856.107000", "163856.111000", "163856.114000", "163856.117000", "163856.121000", "163856.124000", "163856.127000", "163856.131000", "163936.042000", "163936.046000", "163936.049000", "163936.053000", "163936.056000", "163936.059000", "163936.063000", "163936.066000", "163936.069000", "163936.073000", "163936.076000", "163936.080000", "163936.083000", "163936.086000", "163936.089000", "163936.093000", "163936.096000", "163936.099000", "163936.103000", "163936.106000", "163936.109000", "163936.113000", "163936.116000", "163936.119000", "163936.123000", "163936.126000", "163936.129000", "164016.042000", "164016.046000", "164016.049000", "164016.053000", "164016.056000", "164016.059000", "164016.073000", "164016.077000", "164016.080000", "164016.083000", "164016.087000", "164016.090000", "164016.093000", "164016.097000", "164016.100000", "164016.103000", "164016.107000", "164016.110000", "164016.113000", "164016.117000", "164016.120000", "164016.123000", "164016.127000", "164016.130000", "164016.133000", "164016.137000", "164016.140000", "164056.042000", "164056.046000", "164056.049000", "164056.053000", "164056.056000", "164056.059000", "164056.063000", "164056.066000", "164056.069000", "164056.073000", "164056.076000", "164056.079000", "164056.083000", "164056.086000", "164056.089000", "164056.093000", "164056.096000", "164056.099000", "164056.103000", "164056.106000", "164056.109000", "164056.113000", "164056.116000", "164056.119000", "164056.124000", "164056.128000", "164056.132000", "164136.042000", "164136.046000", "164136.049000", "164136.053000", "164136.056000", "164136.059000", "164136.063000", "164136.066000", "164136.069000", "164136.073000", "164136.076000", "164136.079000", "164136.083000", "164136.086000", "164136.089000", "164136.093000", "164136.096000", "164136.099000", "164136.103000", "164136.106000", "164136.109000", "164136.113000", "164136.116000", "164136.119000", "164136.122000", "164136.126000", "164136.129000", "164216.042000", "164216.046000", "164216.049000", "164216.053000", "164216.056000", "164216.059000", "164216.063000", "164216.066000", "164216.069000", "164216.073000", "164216.076000", "164216.080000", "164216.083000", "164216.086000", "164216.090000", "164216.093000", "164216.096000", "164216.100000", "164216.116000", "164216.119000", "164216.123000", "164216.126000", "164216.129000", "164216.133000", "164216.136000", "164216.139000", "164222.031000", "164222.035000", "164222.038000", "164222.042000"],
