{
  "AcquisitionMatrixPE": 104,
  "AcquisitionNumber": 1,
  "AcquisitionTime": "16:19:9.147500",
  "BandwidthPerPixelPhaseEncode": 17.17,
  "BaseResolution": 104,
  "BodyPartExamined": "BRAIN",
  "CoilCombinationMethod": "Sum of Squares",
  "ConsistencyInfo": "N4_VE11C_LATEST_20160120",
  "ConversionSoftware": "dcm2niix",
  "ConversionSoftwareVersion": "v1.0.20211006",
  "DerivedVendorReportedEchoSpacing": 0.000560011,
  "DeviceSerialNumber": "167006",
  "DwellTime": 2.1e-06,
  "EchoTime": 0.037,
  "EchoTrainLength": 104,
  "EffectiveEchoSpacing": 0.000560011,
  "FlipAngle": 52,
  "HeudiconvVersion": "0.5.3.post569+g418601f",
  "ImageComments": "Unaliased MB4/PE3/LB",
  "ImageOrientationPatientDICOM": [0.999573, -0.0274278, -0.0100295, 0.022858, 0.948532, -0.315855],
  "ImageOrientationText": "Tra>Cor(-18.4)>Sag(-1.0)",
  "ImageType": [
    "ORIGINAL",
    "PRIMARY",
    "M",
    "MB",
    "ND",
    "MOSAIC"
],
  "ImagingFrequency": 123.259,
  "InPlanePhaseEncodingDirectionDICOM": "COL",
  "InstitutionAddress": "Chemin Queen-Mary 4565,Montreal,District,CA,H3W 1W5",
  "InstitutionName": "IUGM",
  "InstitutionalDepartmentName": "Department",
  "MRAcquisitionType": "2D",
  "MagneticFieldStrength": 3,
  "Manufacturer": "Siemens",
  "ManufacturersModelName": "Prisma_fit",
  "MatrixCoilMode": "SENSE",
  "Modality": "MR",
  "MultibandAccelerationFactor": 4,
  "PartialFourier": 1,
  "PatientPosition": "HFS",
  "PercentPhaseFOV": 100,
  "PercentSampling": 100,
  "PhaseEncodingDirection": "j",
  "PhaseEncodingSteps": 104,
  "PhaseResolution": 1,
  "PixelBandwidth": 2290,
  "ProcedureStepDescription": "games^mario",
  "ProtocolName": "func_task-mario_run-03",
  "PulseSequenceDetails": "%CustomerSeq%\\cmrr_mbep2d_bold",
  "ReceiveCoilActiveElements": "HC1-7;NC1,2",
  "ReceiveCoilName": "HeadNeck_64",
  "ReconMatrixPE": 104,
  "RepetitionTime": 1.49,
  "SAR": 0.0619345,
  "ScanOptions": "FS",
  "ScanningSequence": "EP",
  "SequenceName": "epfid2d1_104",
  "SequenceVariant": "SK\\SS",
  "SeriesDescription": "func_task-mario_run-03",
  "SeriesNumber": 16,
  "ShimSetting": [620, -7243, -8845, 593, -29, -191, -56, -30],
  "SliceThickness": 2,
  "SliceTiming": [0, 0.785, 0.0975, 0.8825, 0.1975, 0.98, 0.295, 1.0775, 0.3925, 1.175, 0.49, 1.275, 0.5875, 1.3725, 0.6875, 0, 0.785, 0.0975, 0.8825, 0.1975, 0.98, 0.295, 1.0775, 0.3925, 1.175, 0.49, 1.275, 0.5875, 1.3725, 0.6875, 0, 0.785, 0.0975, 0.8825, 0.1975, 0.98, 0.295, 1.0775, 0.3925, 1.175, 0.49, 1.275, 0.5875, 1.3725, 0.6875, 0, 0.785, 0.0975, 0.8825, 0.1975, 0.98, 0.295, 1.0775, 0.3925, 1.175, 0.49, 1.275, 0.5875, 1.3725, 0.6875],
  "SoftwareVersions": "syngo MR E11",
  "SpacingBetweenSlices": 2,
  "StationName": "MRC35049",
  "TaskName": "mario",
  "TotalReadoutTime": 0.0576811,
  "TxRefAmp": 274.302,
  "WipMemBlock": "045b0b0e-9267-4893-ab0e-4b7b1ccf09c6||Sequence: R016 ve11c/master r/e634e98; Dec 19 2017 11:00:25 by eja",
  "dcmmeta_affine": [
    [-1.9991469383239746, 0.04571603611111641, -0.03635305538773537, 104.91020202636719],
    [0.0548555962741375, 1.8970638513565063, -0.6309828758239746, -69.1543960571289],
    [-0.020059015601873398, 0.6317108273506165, 1.8975086212158203, -70.5133056640625],
    [0.0, 0.0, 0.0, 1.0]
],
  "dcmmeta_reorient_transform": [
    [0.0, -1.0, 0.0, 103.0],
    [1.0, 0.0, 0.0, 0.0],
    [0.0, 0.0, 1.0, 0.0],
    [0.0, 0.0, 0.0, 1.0]
],
  "dcmmeta_shape": [104, 104, 60, 444],
  "dcmmeta_slice_dim": 2,
  "dcmmeta_version": 0.6,
  "global": {
    "const": {
      "AcquisitionMatrix": [104, 0, 0, 104],
      "AngioFlag": "N",
      "BitsAllocated": 16,
      "BitsStored": 16,
      "BodyPartExamined": "BRAIN",
      "Columns": 832,
      "EchoNumbers": 1,
      "EchoTime": 37.0,
      "EchoTrainLength": 104,
      "FlipAngle": 52.0,
      "HighBit": 15,
      "ImageOrientationPatient": [0.99957347144612, -0.027427798829, -0.0100295080907, 0.02285801878885, 0.94853195425637, -0.3158554142826],
      "ImagePositionPatient": [-853.94907594437, -796.80701203666, 231.79713645708],
      "ImageType": [
        "ORIGINAL",
        "PRIMARY",
        "M",
        "MB",
        "ND",
        "MOSAIC"
],
      "ImagedNucleus": "1H",
      "ImagingFrequency": 123.258842,
      "InPlanePhaseEncodingDirection": "COL",
      "MRAcquisitionType": "2D",
      "MagneticFieldStrength": 3.0,
      "Manufacturer": "SIEMENS",
      "ManufacturerModelName": "Prisma_fit",
      "Modality": "MR",
      "NumberOfAverages": 1.0,
      "NumberOfPhaseEncodingSteps": 104,
      "PercentPhaseFieldOfView": 100.0,
      "PercentSampling": 100.0,
      "PerformedProcedureStepStartTime": "152032.860000",
      "PhotometricInterpretation": "MONOCHROME2",
      "PixelBandwidth": 2290.0,
      "PixelRepresentation": 0,
      "PixelSpacing": [2.0, 2.0],
      "ProtocolName": "func_task-mario_run-03",
      "RepetitionTime": 1490.0,
      "Rows": 832,
      "SAR": 0.06193451321732,
      "SamplesPerPixel": 1,
      "ScanOptions": "FS",
      "ScanningSequence": "EP",
      "SequenceName": "epfid2d1_104",
      "SequenceVariant": [
        "SK",
        "SS"
],
      "SeriesDescription": "func_task-mario_run-03",
      "SeriesNumber": 16,
      "SeriesTime": "162017.503000",
      "SliceLocation": -46.989083866799,
      "SliceThickness": 2.0,
      "SmallestImagePixelValue": 0,
      "SoftwareVersions": "syngo MR E11",
      "SpacingBetweenSlices": 2.0000000040382,
      "SpecificCharacterSet": "ISO_IR 100",
      "StudyID": "1",
      "StudyTime": "152032.797000",
      "TransmitCoilName": "Body",
      "VariableFlipAngleFlag": "N",
      "WindowCenterWidthExplanation": "Algo1",
      "dBdt": 0.0},
    "slices": {}
  },
  "time": {
    "samples": {
      "AcquisitionNumber": [1, 2, 3, 4, 5, 6, 7, 8, 9, 10, 11, 12, 13, 14, 15, 16, 17, 18, 19, 20, 21, 22, 23, 24, 25, 26, 27, 28, 29, 30, 31, 32, 33, 34, 35, 36, 37, 38, 39, 40, 41, 42, 43, 44, 45, 46, 47, 48, 49, 50, 51, 52, 53, 54, 55, 56, 57, 58, 59, 60, 61, 62, 63, 64, 65, 66, 67, 68, 69, 70, 71, 72, 73, 74, 75, 76, 77, 78, 79, 80, 81, 82, 83, 84, 85, 86, 87, 88, 89, 90, 91, 92, 93, 94, 95, 96, 97, 98, 99, 100, 101, 102, 103, 104, 105, 106, 107, 108, 109, 110, 111, 112, 113, 114, 115, 116, 117, 118, 119, 120, 121, 122, 123, 124, 125, 126, 127, 128, 129, 130, 131, 132, 133, 134, 135, 136, 137, 138, 139, 140, 141, 142, 143, 144, 145, 146, 147, 148, 149, 150, 151, 152, 153, 154, 155, 156, 157, 158, 159, 160, 161, 162, 163, 164, 165, 166, 167, 168, 169, 170, 171, 172, 173, 174, 175, 176, 177, 178, 179, 180, 181, 182, 183, 184, 185, 186, 187, 188, 189, 190, 191, 192, 193, 194, 195, 196, 197, 198, 199, 200, 201, 202, 203, 204, 205, 206, 207, 208, 209, 210, 211, 212, 213, 214, 215, 216, 217, 218, 219, 220, 221, 222, 223, 224, 225, 226, 227, 228, 229, 230, 231, 232, 233, 234, 235, 236, 237, 238, 239, 240, 241, 242, 243, 244, 245, 246, 247, 248, 249, 250, 251, 252, 253, 254, 255, 256, 257, 258, 259, 260, 261, 262, 263, 264, 265, 266, 267, 268, 269, 270, 271, 272, 273, 274, 275, 276, 277, 278, 279, 280, 281, 282, 283, 284, 285, 286, 287, 288, 289, 290, 291, 292, 293, 294, 295, 296, 297, 298, 299, 300, 301, 302, 303, 304, 305, 306, 307, 308, 309, 310, 311, 312, 313, 314, 315, 316, 317, 318, 319, 320, 321, 322, 323, 324, 325, 326, 327, 328, 329, 330, 331, 332, 333, 334, 335, 336, 337, 338, 339, 340, 341, 342, 343, 344, 345, 346, 347, 348, 349, 350, 351, 352, 353, 354, 355, 356, 357, 358, 359, 360, 361, 362, 363, 364, 365, 366, 367, 368, 369, 370, 371, 372, 373, 374, 375, 376, 377, 378, 379, 380, 381, 382, 383, 384, 385, 386, 387, 388, 389, 390, 391, 392, 393, 394, 395, 396, 397, 398, 399, 400, 401, 402, 403, 404, 405, 406, 407, 408, 409, 410, 411, 412, 413, 414, 415, 416, 417, 418, 419, 420, 421, 422, 423, 424, 425, 426, 427, 428, 429, 430, 431, 432, 433, 434, 435, 436, 437, 438, 439, 440, 441, 442, 443, 444],
      "AcquisitionTime": ["161909.147500", "161910.637500", "161912.127500", "161913.617500", "161915.107500", "161916.597500", "161918.087500", "161919.577500", "161921.067500", "161922.557500", "161924.047500", "161925.537500", "161927.027500", "161928.517500", "161930.007500", "161931.497500", "161932.987500", "161934.477500", "161935.967500", "161937.457500", "161938.947500", "161940.437500", "161941.927500", "161943.417500", "161944.907500", "161946.397500", "161947.887500", "161949.377500", "161950.867500", "161952.357500", "161953.847500", "161955.337500", "161956.827500", "161958.317500", "161959.807500", "162001.297500", "162002.787500", "162004.277500", "162005.767500", "162007.257500", "162008.747500", "162010.237500", "162011.727500", "162013.217500", "162014.707500", "162016.197500", "162017.687500", "162019.177500", "162020.667500", "162022.157500", "162023.647500", "162025.137500", "162026.627500", "162028.117500", "162029.607500", "162031.097500", "162032.587500", "162034.077500", "162035.567500", "162037.057500", "162038.547500", "162040.037500", "162041.527500", "162043.017500", "162044.507500", "162045.997500", "162047.487500", "162048.977500", "162050.467500", "162051.957500", "162053.447500", "162054.937500", "162056.427500", "162057.917500", "162059.407500", "162100.897500", "162102.387500", "162103.877500", "162105.367500", "162106.857500", "162108.347500", "162109.837500", "162111.327500", "162112.817500", "162114.307500", "162115.797500", "162117.287500", "162118.777500", "162120.267500", "162121.757500", "162123.247500", "162124.737500", "162126.227500", "162127.717500", "162129.207500", "162130.697500", "162132.187500", "162133.677500", "162135.167500", "162136.657500", "162138.147500", "162139.637500", "162141.127500", "162142.617500", "162144.107500", "162145.597500", "162147.087500", "162148.577500", "162150.067500", "162151.557500", "162153.047500", "162154.537500", "162156.027500", "162157.517500", "162159.007500", "162200.497500", "162201.987500", "162203.477500", "162204.967500", "162206.457500", "162207.947500", "162209.437500", "162210.927500", "162212.417500", "162213.907500", "162215.397500", "162216.887500", "162218.377500", "162219.867500", "162221.357500", "162222.847500", "162224.337500", "162225.827500", "162227.317500", "162228.807500", "162230.297500", "162231.787500", "162233.277500", "162234.767500", "162236.257500", "162237.747500", "162239.237500", "162240.727500", "162242.217500", "162243.707500", "162245.197500", "162246.687500", "162248.177500", "162249.667500", "162251.157500", "162252.647500", "162254.137500", "162255.627500", "162257.117500", "162258.607500", "162300.097500", "162301.587500", "162303.077500", "162304.567500", "162306.057500", "162307.547500", "162309.037500", "162310.527500", "162312.017500", "162313.507500", "162314.997500", "162316.487500", "162317.977500", "162319.467500", "162320.957500", "162322.447500", "162323.937500", "162325.427500", "162326.917500", "162328.407500", "162329.897500", "162331.387500", "162332.877500", "162334.367500", "162335.857500", "162337.347500", "162338.837500", "162340.327500", "162341.817500", "162343.307500", "162344.797500", "162346.287500", "162347.777500", "162349.267500", "162350.757500", "162352.247500", "162353.737500", "162355.227500", "162356.717500", "162358.207500", "162359.697500", "162401.187500", "162402.677500", "162404.167500", "162405.657500", "162407.147500", "162408.637500", "162410.127500", "162411.617500", "162413.107500", "162414.597500", "162416.087500", "162417.577500", "162419.067500", "162420.557500", "162422.047500", "162423.537500", "162425.027500", "162426.517500", "162428.007500", "162429.497500", "162430.987500", "162432.477500", "162433.967500", "162435.457500", "162436.947500", "162438.437500", "162439.927500", "162441.417500", "162442.907500", "162444.397500", "162445.887500", "162447.377500", "162448.867500", "162450.357500", "162451.847500", "162453.337500", "162454.827500", "162456.317500", "162457.807500", "162459.297500", "162500.787500", "162502.277500", "162503.767500", "162505.257500", "162506.747500", "162508.237500", "162509.727500", "162511.217500", "162512.707500", "162514.197500", "162515.687500", "162517.177500", "162518.667500", "162520.157500", "162521.647500", "162523.137500", "162524.627500", "162526.117500", "162527.607500", "162529.097500", "162530.587500", "162532.077500", "162533.567500", "162535.057500", "162536.547500", "162538.037500", "162539.527500", "162541.017500", "162542.507500", "162543.997500", "162545.487500", "162546.977500", "162548.467500", "162549.957500", "162551.447500", "162552.937500", "162554.427500", "162555.917500", "162557.407500", "162558.897500", "162600.387500", "162601.877500", "162603.367500", "162604.857500", "162606.347500", "162607.837500", "162609.327500", "162610.817500", "162612.307500", "162613.797500", "162615.287500", "162616.777500", "162618.267500", "162619.757500", "162621.247500", "162622.737500", "162624.227500", "162625.717500", "162627.207500", "162628.697500", "162630.187500", "162631.677500", "162633.167500", "162634.657500", "162636.147500", "162637.637500", "162639.127500", "162640.617500", "162642.107500", "162643.597500", "162645.087500", "162646.577500", "162648.067500", "162649.557500", "162651.047500", "162652.537500", "162654.027500", "162655.517500", "162657.007500", "162658.497500", "162659.987500", "162701.477500", "162702.967500", "162704.457500", "162705.947500", "162707.437500", "162708.927500", "162710.417500", "162711.907500", "162713.397500", "162714.887500", "162716.377500", "162717.867500", "162719.357500", "162720.847500", "162722.337500", "162723.827500", "162725.317500", "162726.807500", "162728.297500", "162729.787500", "162731.277500", "162732.767500", "162734.257500", "162735.747500", "162737.237500", "162738.727500", "162740.217500", "162741.707500", "162743.197500", "162744.687500", "162746.177500", "162747.667500", "162749.157500", "162750.647500", "162752.137500", "162753.627500", "162755.117500", "162756.607500", "162758.097500", "162759.587500", "162801.077500", "162802.567500", "162804.057500", "162805.547500", "162807.037500", "162808.527500", "162810.017500", "162811.507500", "162812.997500", "162814.487500", "162815.977500", "162817.467500", "162818.957500", "162820.447500", "162821.937500", "162823.427500", "162824.917500", "162826.407500", "162827.897500", "162829.387500", "162830.877500", "162832.367500", "162833.857500", "162835.347500", "162836.837500", "162838.327500", "162839.817500", "162841.307500", "162842.797500", "162844.287500", "162845.777500", "162847.267500", "162848.757500", "162850.247500", "162851.737500", "162853.227500", "162854.717500", "162856.207500", "162857.697500", "162859.187500", "162900.677500", "162902.167500", "162903.657500", "162905.147500", "162906.637500", "162908.127500", "162909.617500", "162911.107500", "162912.597500", "162914.087500", "162915.577500", "162917.067500", "162918.557500", "162920.047500", "162921.537500", "162923.027500", "162924.517500", "162926.007500", "162927.497500", "162928.987500", "162930.477500", "162931.967500", "162933.457500", "162934.947500", "162936.437500", "162937.927500", "162939.417500", "162940.907500", "162942.397500", "162943.887500", "162945.377500", "162946.867500", "162948.357500", "162949.847500", "162951.337500", "162952.827500", "162954.317500", "162955.807500", "162957.297500", "162958.787500", "163000.277500", "163001.767500", "163003.257500", "163004.747500", "163006.237500", "163007.727500", "163009.217500"],
      "ContentTime": ["162017.506000", "162017.510000", "162017.513000", "162017.517000", "162017.520000", "162017.523000", "162017.527000", "162017.530000", "162017.533000", "162017.537000", "162017.540000", "162017.543000", "162017.546000", "162017.550000", "162017.553000", "162037.448000", "162037.452000", "162037.455000", "162037.458000", "162037.462000", "162037.465000", "162037.468000", "162037.471000", "162037.475000", "162037.478000", "162037.481000", "162037.485000", "162037.488000", "162037.491000", "162037.495000", "162037.498000", "162037.501000", "162037.504000", "162037.508000", "162037.511000", "162057.448000", "162057.452000", "162057.455000", "162057.458000", "162057.462000", "162057.465000", "162057.468000", "162057.471000", "162057.475000", "162057.478000", "162057.481000", "162057.485000", "162057.488000", "162057.492000", "162057.496000", "162057.499000", "162057.502000", "162057.506000", "162057.509000", "162057.514000", "162117.448000", "162117.452000", "162117.455000", "162117.458000", "162117.462000", "162117.465000", "162117.468000", "162117.472000", "162117.475000", "162117.478000", "162117.482000", "162117.485000", "162117.488000", "162117.492000", "162117.495000", "162117.500000", "162117.503000", "162117.507000", "162117.511000", "162117.515000", "162137.448000", "162137.452000", "162137.468000", "162137.471000", "162137.474000", "162137.480000", "162137.483000", "162137.486000", "162137.490000", "162137.493000", "162137.496000", "162137.500000", "162137.503000", "162137.506000", "162137.510000", "162137.513000", "162137.516000", "162137.520000", "162137.523000", "162137.526000", "162137.529000", "162217.448000", "162217.452000", "162217.455000", "162217.459000", "162217.462000", "162217.465000", "162217.469000", "162217.472000", "162217.475000", "162217.479000", "162217.482000", "162217.485000", "162217.489000", "162217.492000", "162217.495000", "162217.498000", "162217.502000", "162217.505000", "162217.508000", "162217.512000", "162217.515000", "162217.518000", "162217.526000", "162217.530000", "162217.535000", "162217.539000", "162217.542000", "162217.545000", "162217.549000", "162217.552000", "162257.448000", "162257.452000", "162257.455000", "162257.459000", "162257.462000", "162257.465000", "162257.469000", "162257.472000", "162257.475000", "162257.478000", "162257.482000", "162257.485000", "162257.489000", "162257.492000", "162257.495000", "162257.499000", "162257.502000", "162257.505000", "162257.509000", "162257.512000", "162257.515000", "162257.519000", "162257.522000", "162257.525000", "162257.529000", "162257.532000", "162257.535000", "162337.448000", "162337.452000", "162337.455000", "162337.459000", "162337.462000", "162337.465000", "162337.469000", "162337.473000", "162337.478000", "162337.483000", "162337.486000", "162337.490000", "162337.494000", "162337.510000", "162337.514000", "162337.517000", "162337.520000", "162337.524000", "162337.527000", "162337.530000", "162337.534000", "162337.537000", "162337.540000", "162337.543000", "162337.564000", "162337.568000", "162417.448000", "162417.452000", "162417.455000", "162417.459000", "162417.462000", "162417.465000", "162417.469000", "162417.472000", "162417.475000", "162417.479000", "162417.482000", "162417.485000", "162417.489000", "162417.492000", "162417.495000", "162417.498000", "162417.502000", "162417.505000", "162417.509000", "162417.512000", "162417.515000", "162417.518000", "162417.538000", "162417.542000", "162417.545000", "162417.548000", "162417.558000", "162457.448000", "162457.452000", "162457.455000", "162457.459000", "162457.462000", "162457.466000", "162457.469000", "162457.472000", "162457.476000", "162457.479000", "162457.482000", "162457.486000", "162457.489000", "162457.492000", "162457.495000", "162457.499000", "162457.502000", "162457.506000", "162457.509000", "162457.512000", "162457.515000", "162457.519000", "162457.522000", "162457.525000", "162457.529000", "162457.532000", "162457.535000", "162537.448000", "162537.452000", "162537.455000", "162537.459000", "162537.462000", "162537.465000", "162537.469000", "162537.472000", "162537.475000", "162537.479000", "162537.482000", "162537.485000", "162537.489000", "162537.492000", "162537.495000", "162537.499000", "162537.502000", "162537.505000", "162537.509000", "162537.512000", "162537.515000", "162537.519000", "162537.522000", "162537.525000", "162537.529000", "162537.532000", "162537.535000", "162617.448000", "162617.452000", "162617.455000", "162617.459000", "162617.462000", "162617.465000", "162617.480000", "162617.484000", "162617.487000", "162617.491000", "162617.494000", "162617.497000", "162617.501000", "162617.504000", "162617.507000", "162617.511000", "162617.514000", "162617.517000", "162617.521000", "162617.524000", "162617.527000", "162617.531000", "162617.534000", "162617.537000", "162617.541000", "162617.544000", "162617.547000", "162657.448000", "162657.452000", "162657.456000", "162657.459000", "162657.463000", "162657.466000", "162657.469000", "162657.473000", "162657.476000", "162657.480000", "162657.483000", "162657.486000", "162657.490000", "162657.493000", "162657.496000", "162657.500000", "162657.503000", "162657.507000", "162657.510000", "162657.513000", "162657.517000", "162657.520000", "162657.524000", "162657.527000", "162657.530000", "162657.533000", "162657.537000", "162737.448000", "162737.452000", "162737.455000", "162737.459000", "162737.462000", "162737.465000", "162737.469000", "162737.472000", "162737.475000", "162737.479000", "162737.482000", "162737.485000", "162737.489000", "162737.492000", "162737.496000", "162737.499000", "162737.502000", "162737.506000", "162737.509000", "162737.512000", "162737.516000", "162737.519000", "162737.522000", "162737.526000", "162737.529000", "162737.533000", "162737.536000", "162817.448000", "162817.452000", "162817.455000", "162817.459000", "162817.462000", "162817.465000", "162817.470000", "162817.473000", "162817.477000", "162817.480000", "162817.484000", "162817.487000", "162817.490000", "162817.494000", "162817.497000", "162817.500000", "162817.504000", "162817.507000", "162817.518000", "162817.521000", "162817.525000", "162817.528000", "162817.532000", "162817.535000", "162817.538000", "162817.542000", "162857.448000", "162857.452000", "162857.455000", "162857.459000", "162857.462000", "162857.465000", "162857.469000", "162857.472000", "162857.475000", "162857.478000", "162857.482000", "162857.485000", "162857.488000", "162857.492000", "162857.495000", "162857.499000", "162857.502000", "162857.505000", "162857.509000", "162857.512000", "162857.515000", "162857.519000", "162857.522000", "162857.525000", "162857.529000", "162857.532000", "162857.535000", "162937.448000", "162937.452000", "162937.456000", "162937.459000", "162937.462000", "162937.466000", "162937.469000", "162937.473000", "162937.476000", "162937.480000", "162937.483000", "162937.487000", "162937.490000", "162937.494000", "162937.497000", "162937.500000", "162937.504000", "162937.507000", "162937.511000", "162937.514000", "162937.517000", "162937.521000", "162937.524000", "162937.527000", "162937.531000", "162937.535000", "162937.538000", "163011.557000", "163011.562000", "163011.566000", "163011.570000", "163011.573000", "163011.577000", "163011.580000", "163011.583000", "163011.587000", "163011.590000", "163011.593000", "163011.597000", "163011.600000", "163011.603000", "163011.607000", "163011.610000", "163011.613000", "163011.617000", "163011.620000", "163011.623000", "163011.627000", "163011.630000", "163011.633000"],
