{
  "AcquisitionMatrixPE": 104,
  "AcquisitionNumber": 1,
  "AcquisitionTime": "16:06:50.897500",
  "BandwidthPerPixelPhaseEncode": 17.17,
  "BaseResolution": 104,
  "BodyPartExamined": "BRAIN",
  "CoilCombinationMethod": "Sum of Squares",
  "ConsistencyInfo": "N4_VE11C_LATEST_20160120",
  "ConversionSoftware": "dcm2niix",
  "ConversionSoftwareVersion": "v1.0.20211006",
  "DerivedVendorReportedEchoSpacing": 0.000560011,
  "DeviceSerialNumber": "167006",
  "DwellTime": 2.1e-06,
  "EchoTime": 0.037,
  "EchoTrainLength": 104,
  "EffectiveEchoSpacing": 0.000560011,
  "FlipAngle": 52,
  "HeudiconvVersion": "0.5.3.post569+g418601f",
  "ImageComments": "Unaliased MB4/PE3/LB",
  "ImageOrientationPatientDICOM": [0.999573, -0.0274278, -0.0100295, 0.022858, 0.948532, -0.315855],
  "ImageOrientationText": "Tra>Cor(-18.4)>Sag(-1.0)",
  "ImageType": [
    "ORIGINAL",
    "PRIMARY",
    "M",
    "MB",
    "ND",
    "MOSAIC"
],
  "ImagingFrequency": 123.259,
  "InPlanePhaseEncodingDirectionDICOM": "COL",
  "InstitutionAddress": "Chemin Queen-Mary 4565,Montreal,District,CA,H3W 1W5",
  "InstitutionName": "IUGM",
  "InstitutionalDepartmentName": "Department",
  "MRAcquisitionType": "2D",
  "MagneticFieldStrength": 3,
  "Manufacturer": "Siemens",
  "ManufacturersModelName": "Prisma_fit",
  "MatrixCoilMode": "SENSE",
  "Modality": "MR",
  "MultibandAccelerationFactor": 4,
  "PartialFourier": 1,
  "PatientPosition": "HFS",
  "PercentPhaseFOV": 100,
  "PercentSampling": 100,
  "PhaseEncodingDirection": "j",
  "PhaseEncodingSteps": 104,
  "PhaseResolution": 1,
  "PixelBandwidth": 2290,
  "ProcedureStepDescription": "games^mario",
  "ProtocolName": "func_task-mario_run-02",
  "PulseSequenceDetails": "%CustomerSeq%\\cmrr_mbep2d_bold",
  "ReceiveCoilActiveElements": "HC1-7;NC1,2",
  "ReceiveCoilName": "HeadNeck_64",
  "ReconMatrixPE": 104,
  "RepetitionTime": 1.49,
  "SAR": 0.0619345,
  "ScanOptions": "FS",
  "ScanningSequence": "EP",
  "SequenceName": "epfid2d1_104",
  "SequenceVariant": "SK\\SS",
  "SeriesDescription": "func_task-mario_run-02",
  "SeriesNumber": 13,
  "ShimSetting": [620, -7243, -8845, 593, -29, -191, -56, -30],
  "SliceThickness": 2,
  "SliceTiming": [0, 0.785, 0.0975, 0.8825, 0.195, 0.98, 0.295, 1.0775, 0.3925, 1.175, 0.49, 1.275, 0.5875, 1.3725, 0.685, 0, 0.785, 0.0975, 0.8825, 0.195, 0.98, 0.295, 1.0775, 0.3925, 1.175, 0.49, 1.275, 0.5875, 1.3725, 0.685, 0, 0.785, 0.0975, 0.8825, 0.195, 0.98, 0.295, 1.0775, 0.3925, 1.175, 0.49, 1.275, 0.5875, 1.3725, 0.685, 0, 0.785, 0.0975, 0.8825, 0.195, 0.98, 0.295, 1.0775, 0.3925, 1.175, 0.49, 1.275, 0.5875, 1.3725, 0.685],
  "SoftwareVersions": "syngo MR E11",
  "SpacingBetweenSlices": 2,
  "StationName": "MRC35049",
  "TaskName": "mario",
  "TotalReadoutTime": 0.0576811,
  "TxRefAmp": 274.302,
  "WipMemBlock": "4d0cd222-7f1c-422d-8bfe-ec66198df260||Sequence: R016 ve11c/master r/e634e98; Dec 19 2017 11:00:25 by eja",
  "dcmmeta_affine": [
    [-1.9991469383239746, 0.04571603611111641, -0.03635305538773537, 104.91020202636719],
    [0.0548555962741375, 1.8970638513565063, -0.6309828758239746, -69.1543960571289],
    [-0.020059015601873398, 0.6317108273506165, 1.8975086212158203, -70.5133056640625],
    [0.0, 0.0, 0.0, 1.0]
],
  "dcmmeta_reorient_transform": [
    [0.0, -1.0, 0.0, 103.0],
    [1.0, 0.0, 0.0, 0.0],
    [0.0, 0.0, 1.0, 0.0],
    [0.0, 0.0, 0.0, 1.0]
],
  "dcmmeta_shape": [104, 104, 60, 433],
  "dcmmeta_slice_dim": 2,
  "dcmmeta_version": 0.6,
  "global": {
    "const": {
      "AcquisitionMatrix": [104, 0, 0, 104],
      "AngioFlag": "N",
      "BitsAllocated": 16,
      "BitsStored": 16,
      "BodyPartExamined": "BRAIN",
      "Columns": 832,
      "EchoNumbers": 1,
      "EchoTime": 37.0,
      "EchoTrainLength": 104,
      "FlipAngle": 52.0,
      "HighBit": 15,
      "ImageOrientationPatient": [0.99957347144612, -0.027427798829, -0.0100295080907, 0.02285801878885, 0.94853195425637, -0.3158554142826],
      "ImagePositionPatient": [-853.94907594437, -796.80701203666, 231.79713645708],
      "ImageType": [
        "ORIGINAL",
        "PRIMARY",
        "M",
        "MB",
        "ND",
        "MOSAIC"
],
      "ImagedNucleus": "1H",
      "ImagingFrequency": 123.258835,
      "InPlanePhaseEncodingDirection": "COL",
      "MRAcquisitionType": "2D",
      "MagneticFieldStrength": 3.0,
      "Manufacturer": "SIEMENS",
      "ManufacturerModelName": "Prisma_fit",
      "Modality": "MR",
      "NumberOfAverages": 1.0,
      "NumberOfPhaseEncodingSteps": 104,
      "PercentPhaseFieldOfView": 100.0,
      "PercentSampling": 100.0,
      "PerformedProcedureStepStartTime": "152032.860000",
      "PhotometricInterpretation": "MONOCHROME2",
      "PixelBandwidth": 2290.0,
      "PixelRepresentation": 0,
      "PixelSpacing": [2.0, 2.0],
      "ProtocolName": "func_task-mario_run-02",
      "RepetitionTime": 1490.0,
      "Rows": 832,
      "SAR": 0.06193451321732,
      "SamplesPerPixel": 1,
      "ScanOptions": "FS",
      "ScanningSequence": "EP",
      "SequenceName": "epfid2d1_104",
      "SequenceVariant": [
        "SK",
        "SS"
],
      "SeriesDescription": "func_task-mario_run-02",
      "SeriesNumber": 13,
      "SeriesTime": "160802.750000",
      "SliceLocation": -46.989083866799,
      "SliceThickness": 2.0,
      "SmallestImagePixelValue": 0,
      "SoftwareVersions": "syngo MR E11",
      "SpacingBetweenSlices": 2.0000000040382,
      "SpecificCharacterSet": "ISO_IR 100",
      "StudyID": "1",
      "StudyTime": "152032.797000",
      "TransmitCoilName": "Body",
      "VariableFlipAngleFlag": "N",
      "WindowCenterWidthExplanation": "Algo1",
      "dBdt": 0.0},
    "slices": {}
  },
  "time": {
    "samples": {
      "AcquisitionNumber": [1, 2, 3, 4, 5, 6, 7, 8, 9, 10, 11, 12, 13, 14, 15, 16, 17, 18, 19, 20, 21, 22, 23, 24, 25, 26, 27, 28, 29, 30, 31, 32, 33, 34, 35, 36, 37, 38, 39, 40, 41, 42, 43, 44, 45, 46, 47, 48, 49, 50, 51, 52, 53, 54, 55, 56, 57, 58, 59, 60, 61, 62, 63, 64, 65, 66, 67, 68, 69, 70, 71, 72, 73, 74, 75, 76, 77, 78, 79, 80, 81, 82, 83, 84, 85, 86, 87, 88, 89, 90, 91, 92, 93, 94, 95, 96, 97, 98, 99, 100, 101, 102, 103, 104, 105, 106, 107, 108, 109, 110, 111, 112, 113, 114, 115, 116, 117, 118, 119, 120, 121, 122, 123, 124, 125, 126, 127, 128, 129, 130, 131, 132, 133, 134, 135, 136, 137, 138, 139, 140, 141, 142, 143, 144, 145, 146, 147, 148, 149, 150, 151, 152, 153, 154, 155, 156, 157, 158, 159, 160, 161, 162, 163, 164, 165, 166, 167, 168, 169, 170, 171, 172, 173, 174, 175, 176, 177, 178, 179, 180, 181, 182, 183, 184, 185, 186, 187, 188, 189, 190, 191, 192, 193, 194, 195, 196, 197, 198, 199, 200, 201, 202, 203, 204, 205, 206, 207, 208, 209, 210, 211, 212, 213, 214, 215, 216, 217, 218, 219, 220, 221, 222, 223, 224, 225, 226, 227, 228, 229, 230, 231, 232, 233, 234, 235, 236, 237, 238, 239, 240, 241, 242, 243, 244, 245, 246, 247, 248, 249, 250, 251, 252, 253, 254, 255, 256, 257, 258, 259, 260, 261, 262, 263, 264, 265, 266, 267, 268, 269, 270, 271, 272, 273, 274, 275, 276, 277, 278, 279, 280, 281, 282, 283, 284, 285, 286, 287, 288, 289, 290, 291, 292, 293, 294, 295, 296, 297, 298, 299, 300, 301, 302, 303, 304, 305, 306, 307, 308, 309, 310, 311, 312, 313, 314, 315, 316, 317, 318, 319, 320, 321, 322, 323, 324, 325, 326, 327, 328, 329, 330, 331, 332, 333, 334, 335, 336, 337, 338, 339, 340, 341, 342, 343, 344, 345, 346, 347, 348, 349, 350, 351, 352, 353, 354, 355, 356, 357, 358, 359, 360, 361, 362, 363, 364, 365, 366, 367, 368, 369, 370, 371, 372, 373, 374, 375, 376, 377, 378, 379, 380, 381, 382, 383, 384, 385, 386, 387, 388, 389, 390, 391, 392, 393, 394, 395, 396, 397, 398, 399, 400, 401, 402, 403, 404, 405, 406, 407, 408, 409, 410, 411, 412, 413, 414, 415, 416, 417, 418, 419, 420, 421, 422, 423, 424, 425, 426, 427, 428, 429, 430, 431, 432, 433],
      "AcquisitionTime": ["160650.897500", "160652.387500", "160653.877500", "160655.367500", "160656.857500", "160658.347500", "160659.837500", "160701.327500", "160702.817500", "160704.307500", "160705.797500", "160707.287500", "160708.777500", "160710.267500", "160711.757500", "160713.247500", "160714.737500", "160716.227500", "160717.717500", "160719.207500", "160720.697500", "160722.187500", "160723.677500", "160725.167500", "160726.657500", "160728.147500", "160729.637500", "160731.127500", "160732.617500", "160734.107500", "160735.597500", "160737.087500", "160738.577500", "160740.067500", "160741.557500", "160743.047500", "160744.537500", "160746.027500", "160747.517500", "160749.007500", "160750.497500", "160751.987500", "160753.477500", "160754.967500", "160756.457500", "160757.947500", "160759.437500", "160800.927500", "160802.417500", "160803.907500", "160805.397500", "160806.887500", "160808.377500", "160809.867500", "160811.357500", "160812.847500", "160814.337500", "160815.827500", "160817.317500", "160818.807500", "160820.297500", "160821.787500", "160823.277500", "160824.767500", "160826.257500", "160827.747500", "160829.237500", "160830.727500", "160832.217500", "160833.707500", "160835.197500", "160836.687500", "160838.177500", "160839.667500", "160841.157500", "160842.647500", "160844.137500", "160845.627500", "160847.117500", "160848.607500", "160850.097500", "160851.587500", "160853.077500", "160854.567500", "160856.057500", "160857.547500", "160859.037500", "160900.527500", "160902.017500", "160903.507500", "160904.997500", "160906.487500", "160907.977500", "160909.467500", "160910.957500", "160912.447500", "160913.937500", "160915.427500", "160916.917500", "160918.407500", "160919.897500", "160921.387500", "160922.877500", "160924.367500", "160925.857500", "160927.347500", "160928.837500", "160930.327500", "160931.817500", "160933.307500", "160934.797500", "160936.287500", "160937.777500", "160939.267500", "160940.757500", "160942.247500", "160943.737500", "160945.227500", "160946.717500", "160948.207500", "160949.697500", "160951.187500", "160952.677500", "160954.167500", "160955.657500", "160957.147500", "160958.637500", "161000.127500", "161001.617500", "161003.107500", "161004.597500", "161006.087500", "161007.577500", "161009.067500", "161010.557500", "161012.047500", "161013.537500", "161015.027500", "161016.517500", "161018.007500", "161019.497500", "161020.987500", "161022.477500", "161023.967500", "161025.457500", "161026.947500", "161028.437500", "161029.927500", "161031.417500", "161032.907500", "161034.397500", "161035.887500", "161037.377500", "161038.867500", "161040.357500", "161041.847500", "161043.337500", "161044.827500", "161046.317500", "161047.807500", "161049.297500", "161050.787500", "161052.277500", "161053.767500", "161055.257500", "161056.747500", "161058.237500", "161059.727500", "161101.217500", "161102.707500", "161104.197500", "161105.687500", "161107.177500", "161108.667500", "161110.157500", "161111.647500", "161113.137500", "161114.627500", "161116.117500", "161117.607500", "161119.097500", "161120.587500", "161122.077500", "161123.567500", "161125.057500", "161126.547500", "161128.037500", "161129.527500", "161131.017500", "161132.507500", "161133.997500", "161135.487500", "161136.977500", "161138.467500", "161139.957500", "161141.447500", "161142.937500", "161144.427500", "161145.917500", "161147.407500", "161148.897500", "161150.387500", "161151.877500", "161153.367500", "161154.857500", "161156.347500", "161157.837500", "161159.327500", "161200.817500", "161202.307500", "161203.797500", "161205.287500", "161206.777500", "161208.267500", "161209.757500", "161211.247500", "161212.737500", "161214.227500", "161215.717500", "161217.207500", "161218.697500", "161220.187500", "161221.677500", "161223.167500", "161224.657500", "161226.147500", "161227.637500", "161229.127500", "161230.617500", "161232.107500", "161233.597500", "161235.087500", "161236.577500", "161238.067500", "161239.557500", "161241.047500", "161242.537500", "161244.027500", "161245.517500", "161247.007500", "161248.497500", "161249.987500", "161251.477500", "161252.967500", "161254.457500", "161255.947500", "161257.437500", "161258.927500", "161300.417500", "161301.907500", "161303.397500", "161304.887500", "161306.377500", "161307.867500", "161309.357500", "161310.847500", "161312.337500", "161313.827500", "161315.317500", "161316.807500", "161318.297500", "161319.787500", "161321.277500", "161322.767500", "161324.257500", "161325.747500", "161327.237500", "161328.727500", "161330.217500", "161331.707500", "161333.197500", "161334.687500", "161336.177500", "161337.667500", "161339.157500", "161340.647500", "161342.137500", "161343.627500", "161345.117500", "161346.607500", "161348.097500", "161349.587500", "161351.077500", "161352.567500", "161354.057500", "161355.547500", "161357.037500", "161358.527500", "161400.017500", "161401.507500", "161402.997500", "161404.487500", "161405.977500", "161407.467500", "161408.957500", "161410.447500", "161411.937500", "161413.427500", "161414.917500", "161416.407500", "161417.897500", "161419.387500", "161420.877500", "161422.367500", "161423.857500", "161425.347500", "161426.837500", "161428.327500", "161429.817500", "161431.307500", "161432.797500", "161434.287500", "161435.777500", "161437.267500", "161438.757500", "161440.247500", "161441.737500", "161443.227500", "161444.717500", "161446.207500", "161447.697500", "161449.187500", "161450.677500", "161452.167500", "161453.657500", "161455.147500", "161456.637500", "161458.127500", "161459.617500", "161501.107500", "161502.597500", "161504.087500", "161505.577500", "161507.067500", "161508.557500", "161510.047500", "161511.537500", "161513.027500", "161514.517500", "161516.007500", "161517.497500", "161518.987500", "161520.477500", "161521.967500", "161523.457500", "161524.947500", "161526.437500", "161527.927500", "161529.417500", "161530.907500", "161532.397500", "161533.887500", "161535.377500", "161536.867500", "161538.357500", "161539.847500", "161541.337500", "161542.827500", "161544.317500", "161545.807500", "161547.297500", "161548.787500", "161550.277500", "161551.767500", "161553.257500", "161554.747500", "161556.237500", "161557.727500", "161559.217500", "161600.707500", "161602.197500", "161603.687500", "161605.177500", "161606.667500", "161608.157500", "161609.647500", "161611.137500", "161612.627500", "161614.117500", "161615.607500", "161617.097500", "161618.587500", "161620.077500", "161621.567500", "161623.057500", "161624.547500", "161626.037500", "161627.527500", "161629.017500", "161630.507500", "161631.997500", "161633.487500", "161634.977500", "161636.467500", "161637.957500", "161639.447500", "161640.937500", "161642.427500", "161643.917500", "161645.407500", "161646.897500", "161648.387500", "161649.877500", "161651.367500", "161652.857500", "161654.347500", "161655.837500", "161657.327500", "161658.817500", "161700.307500", "161701.797500", "161703.287500", "161704.777500", "161706.267500", "161707.757500", "161709.247500", "161710.737500", "161712.227500", "161713.717500", "161715.207500", "161716.697500", "161718.187500", "161719.677500", "161721.167500", "161722.657500", "161724.147500", "161725.637500", "161727.127500", "161728.617500", "161730.107500", "161731.597500", "161733.087500", "161734.577500"],
      "ContentTime": ["160802.754000", "160802.757000", "160802.761000", "160802.764000", "160802.767000", "160802.771000", "160802.774000", "160802.781000", "160802.784000", "160802.787000", "160802.790000", "160802.794000", "160802.797000", "160802.800000", "160802.804000", "160802.807000", "160802.810000", "160802.813000", "160802.817000", "160822.719000", "160822.723000", "160822.726000", "160822.729000", "160822.733000", "160822.736000", "160822.739000", "160822.742000", "160822.746000", "160822.749000", "160822.752000", "160822.756000", "160822.759000", "160822.762000", "160822.766000", "160822.769000", "160822.772000", "160822.776000", "160822.779000", "160822.782000", "160842.718000", "160842.722000", "160842.725000", "160842.728000", "160842.732000", "160842.735000", "160842.769000", "160842.772000", "160842.775000", "160842.778000", "160842.782000", "160842.785000", "160842.788000", "160842.792000", "160842.795000", "160842.798000", "160842.802000", "160842.805000", "160842.808000", "160842.812000", "160842.815000", "160902.719000", "160902.723000", "160902.726000", "160902.729000", "160902.733000", "160902.736000", "160902.739000", "160902.743000", "160902.746000", "160902.749000", "160902.753000", "160902.756000", "160902.760000", "160902.763000", "160902.766000", "160902.770000", "160902.773000", "160902.776000", "160902.780000", "160902.783000", "160922.719000", "160922.723000", "160922.726000", "160922.729000", "160922.733000", "160922.736000", "160922.739000", "160922.743000", "160922.746000", "160922.749000", "160922.752000", "160922.756000", "160922.759000", "160922.762000", "160922.766000", "160922.769000", "160922.772000", "160922.776000", "160922.779000", "160922.782000", "161002.719000", "161002.723000", "161002.726000", "161002.730000", "161002.733000", "161002.736000", "161002.740000", "161002.743000", "161002.746000", "161002.749000", "161002.753000", "161002.756000", "161002.759000", "161002.763000", "161002.766000", "161002.769000", "161002.773000", "161002.776000", "161002.779000", "161002.783000", "161002.786000", "161002.789000", "161002.793000", "161002.796000", "161002.799000", "161002.803000", "161002.806000", "161002.809000", "161042.719000", "161042.723000", "161042.726000", "161042.730000", "161042.733000", "161042.736000", "161042.750000", "161042.753000", "161042.757000", "161042.760000", "161042.763000", "161042.767000", "161042.770000", "161042.773000", "161042.776000", "161042.780000", "161042.794000", "161042.797000", "161042.800000", "161042.804000", "161042.807000", "161042.810000", "161042.813000", "161042.817000", "161042.820000", "161042.823000", "161042.827000", "161122.719000", "161122.723000", "161122.726000", "161122.730000", "161122.733000", "161122.736000", "161122.739000", "161122.743000", "161122.746000", "161122.750000", "161122.754000", "161122.757000", "161122.761000", "161122.764000", "161122.767000", "161122.771000", "161122.785000", "161122.788000", "161122.791000", "161122.794000", "161122.798000", "161122.801000", "161122.804000", "161122.808000", "161122.811000", "161122.815000", "161202.719000", "161202.723000", "161202.726000", "161202.730000", "161202.733000", "161202.736000", "161202.739000", "161202.743000", "161202.746000", "161202.750000", "161202.753000", "161202.766000", "161202.769000", "161202.772000", "161202.776000", "161202.779000", "161202.783000", "161202.786000", "161202.789000", "161202.793000", "161202.796000", "161202.799000", "161202.803000", "161202.806000", "161202.809000", "161202.813000", "161202.816000", "161242.719000", "161242.723000", "161242.726000", "161242.730000", "161242.733000", "161242.736000", "161242.740000", "161242.743000", "161242.746000", "161242.753000", "161242.757000", "161242.760000", "161242.763000", "161242.767000", "161242.771000", "161242.774000", "161242.777000", "161242.781000", "161242.784000", "161242.787000", "161242.791000", "161242.794000", "161242.798000", "161242.801000", "161242.804000", "161242.808000", "161242.811000", "161322.718000", "161322.722000", "161322.725000", "161322.729000", "161322.732000", "161322.744000", "161322.748000", "161322.751000", "161322.754000", "161322.758000", "161322.761000", "161322.764000", "161322.768000", "161322.771000", "161322.774000", "161322.778000", "161322.781000", "161322.784000", "161322.787000", "161322.791000", "161322.794000", "161322.797000", "161322.801000", "161322.804000", "161322.807000", "161322.811000", "161322.814000", "161402.719000", "161402.723000", "161402.726000", "161402.730000", "161402.733000", "161402.736000", "161402.740000", "161402.743000", "161402.746000", "161402.750000", "161402.753000", "161402.756000", "161402.760000", "161402.763000", "161402.766000", "161402.770000", "161402.773000", "161402.776000", "161402.780000", "161402.783000", "161402.786000", "161402.790000", "161402.793000", "161402.796000", "161402.800000", "161402.803000", "161402.806000", "161442.719000", "161442.723000", "161442.726000", "161442.730000", "161442.733000", "161442.736000", "161442.740000", "161442.743000", "161442.746000", "161442.750000", "161442.753000", "161442.756000", "161442.760000", "161442.763000", "161442.766000", "161442.769000", "161442.773000", "161442.776000", "161442.779000", "161442.783000", "161442.786000", "161442.790000", "161442.793000", "161442.796000", "161442.800000", "161442.803000", "161442.806000", "161522.719000", "161522.723000", "161522.726000", "161522.730000", "161522.733000", "161522.744000", "161522.748000", "161522.752000", "161522.757000", "161522.760000", "161522.764000", "161522.768000", "161522.772000", "161522.776000", "161522.779000", "161522.783000", "161522.786000", "161522.802000", "161522.806000", "161522.809000", "161522.812000", "161522.816000", "161522.819000", "161522.822000", "161522.826000", "161522.829000", "161602.719000", "161602.723000", "161602.726000", "161602.730000", "161602.733000", "161602.736000", "161602.740000", "161602.743000", "161602.746000", "161602.750000", "161602.753000", "161602.757000", "161602.760000", "161602.763000", "161602.766000", "161602.770000", "161602.773000", "161602.776000", "161602.780000", "161602.783000", "161602.786000", "161602.790000", "161602.793000", "161602.796000", "161602.800000", "161602.812000", "161602.815000", "161642.719000", "161642.723000", "161642.726000", "161642.730000", "161642.733000", "161642.736000", "161642.740000", "161642.743000", "161642.746000", "161642.750000", "161642.753000", "161642.756000", "161642.760000", "161642.763000", "161642.766000", "161642.770000", "161642.773000", "161642.776000", "161642.780000", "161642.783000", "161642.786000", "161642.790000", "161642.793000", "161642.796000", "161642.800000", "161642.803000", "161642.806000", "161722.719000", "161722.723000", "161722.726000", "161722.730000", "161722.733000", "161722.736000", "161722.739000", "161722.743000", "161722.746000", "161722.749000", "161722.753000", "161722.756000", "161722.759000", "161722.763000", "161722.766000", "161722.769000", "161722.773000", "161722.776000", "161722.779000", "161722.783000", "161722.786000", "161722.789000", "161722.804000", "161722.808000", "161722.811000", "161722.814000", "161722.818000", "161736.992000", "161736.995000", "161737.000000", "161737.003000", "161737.007000", "161737.010000", "161737.013000", "161737.017000", "161737.020000", "161737.024000"],
      "InstanceCreationTime": ["160802.754000", "160802.757000", "160802.761000", "160802.764000", "160802.767000", "160802.771000", "160802.774000", "160802.781000", "160802.784000", "160802.787000", "160802.790000", "160802.794000", "160802.797000", "160802.800000", "160802.804000", "160802.807000", "160802.810000", "160802.813000", "160802.817000", "160822.719000", "160822.723000", "160822.726000", "160822.729000", "160822.733000", "160822.736000", "160822.739000", "160822.742000", "160822.746000", "160822.749000", "160822.752000", "160822.756000", "160822.759000", "160822.762000", "160822.766000", "160822.769000", "160822.772000", "160822.776000", "160822.779000", "160822.782000", "160842.718000", "160842.722000", "160842.725000", "160842.728000", "160842.732000", "160842.735000", "160842.769000", "160842.772000", "160842.775000", "160842.778000", "160842.782000", "160842.785000", "160842.788000", "160842.792000", "160842.795000", "160842.798000", "160842.802000", "160842.805000", "160842.808000", "160842.812000", "160842.815000", "160902.719000", "160902.723000", "160902.726000", "160902.729000", "160902.733000", "160902.736000", "160902.739000", "160902.743000", "160902.746000", "160902.749000", "160902.753000", "160902.756000", "160902.760000", "160902.763000", "160902.766000", "160902.770000", "160902.773000", "160902.776000", "160902.780000", "160902.783000", "160922.719000", "160922.723000", "160922.726000", "160922.729000", "160922.733000", "160922.736000", "160922.739000", "160922.743000", "160922.746000", "160922.749000", "160922.752000", "160922.756000", "160922.759000", "160922.762000", "160922.766000", "160922.769000", "160922.772000", "160922.776000", "160922.779000", "160922.782000", "161002.719000", "161002.723000", "161002.726000", "161002.730000", "161002.733000", "161002.736000", "161002.740000", "161002.743000", "161002.746000", "161002.749000", "161002.753000", "161002.756000", "161002.759000", "161002.763000", "161002.766000", "161002.769000", "161002.773000", "161002.776000", "161002.779000", "161002.783000", "161002.786000", "161002.789000", "161002.793000", "161002.796000", "161002.799000", "161002.803000", "161002.806000", "161002.809000", "161042.719000", "161042.723000", "161042.726000", "161042.730000", "161042.733000", "161042.736000", "161042.750000", "161042.753000", "161042.757000", "161042.760000", "161042.763000", "161042.767000", "161042.770000", "161042.773000", "161042.776000", "161042.780000", "161042.794000", "161042.797000", "161042.800000", "161042.804000", "161042.807000", "161042.810000", "161042.813000", "161042.817000", "161042.820000", "161042.823000", "161042.827000", "161122.719000", "161122.723000", "161122.726000", "161122.730000", "161122.733000", "161122.736000", "161122.739000", "161122.743000", "161122.746000", "161122.750000", "161122.754000", "161122.757000", "161122.761000", "161122.764000", "161122.767000", "161122.771000", "161122.785000", "161122.788000", "161122.791000", "161122.794000", "161122.798000", "161122.801000", "161122.804000", "161122.808000", "161122.811000", "161122.815000", "161202.719000", "161202.723000", "161202.726000", "161202.730000", "161202.733000", "161202.736000", "161202.739000", "161202.743000", "161202.746000", "161202.750000", "161202.753000", "161202.766000", "161202.769000", "161202.772000", "161202.776000", "161202.779000", "161202.783000", "161202.786000", "161202.789000", "161202.793000", "161202.796000", "161202.799000", "161202.803000", "161202.806000", "161202.809000", "161202.813000", "161202.816000", "161242.719000", "161242.723000", "161242.726000", "161242.730000", "161242.733000", "161242.736000", "161242.740000", "161242.743000", "161242.746000", "161242.753000", "161242.757000", "161242.760000", "161242.763000", "161242.767000", "161242.771000", "161242.774000", "161242.777000", "161242.781000", "161242.784000", "161242.787000", "161242.791000", "161242.794000", "161242.798000", "161242.801000", "161242.804000", "161242.808000", "161242.811000", "161322.718000", "161322.722000", "161322.725000", "161322.729000", "161322.732000", "161322.744000", "161322.748000", "161322.751000", "161322.754000", "161322.758000", "161322.761000", "161322.764000", "161322.768000", "161322.771000", "161322.774000", "161322.778000", "161322.781000", "161322.784000", "161322.787000", "161322.791000", "161322.794000", "161322.797000", "161322.801000", "161322.804000", "161322.807000", "161322.811000", "161322.814000", "161402.719000", "161402.723000", "161402.726000", "161402.730000", "161402.733000", "161402.736000", "161402.740000", "161402.743000", "161402.746000", "161402.750000", "161402.753000", "161402.756000", "161402.760000", "161402.763000", "161402.766000", "161402.770000", "161402.773000", "161402.776000", "161402.780000", "161402.783000", "161402.786000", "161402.790000", "161402.793000", "161402.796000", "161402.800000", "161402.803000", "161402.806000", "161442.719000", "161442.723000", "161442.726000", "161442.730000", "161442.733000", "161442.736000", "161442.740000", "161442.743000", "161442.746000", "161442.750000", "161442.753000", "161442.756000", "161442.760000", "161442.763000", "161442.766000", "161442.769000", "161442.773000", "161442.776000", "161442.779000", "161442.783000", "161442.786000", "161442.790000", "161442.793000", "161442.796000", "161442.800000", "161442.803000", "161442.806000", "161522.719000", "161522.723000", "161522.726000", "161522.730000", "161522.733000", "161522.744000", "161522.748000", "161522.752000", "161522.757000", "161522.760000", "161522.764000", "161522.768000", "161522.772000", "161522.776000", "161522.779000", "161522.783000", "161522.786000", "161522.802000", "161522.806000", "161522.809000", "161522.812000", "161522.816000", "161522.819000", "161522.822000", "161522.826000", "161522.829000", "161602.719000", "161602.723000", "161602.726000", "161602.730000", "161602.733000", "161602.736000", "161602.740000", "161602.743000", "161602.746000", "161602.750000", "161602.753000", "161602.757000", "161602.760000", "161602.763000", "161602.766000", "161602.770000", "161602.773000", "161602.776000", "161602.780000", "161602.783000", "161602.786000", "161602.790000", "161602.793000", "161602.796000", "161602.800000", "161602.812000", "161602.815000", "161642.719000", "161642.723000", "161642.726000", "161642.730000", "161642.733000", "161642.736000", "161642.740000", "161642.743000", "161642.746000", "161642.750000", "161642.753000", "161642.756000", "161642.760000", "161642.763000", "161642.766000", "161642.770000", "161642.773000", "161642.776000", "161642.780000", "161642.783000", "161642.786000", "161642.790000", "161642.793000", "161642.796000", "161642.800000", "161642.803000", "161642.806000", "161722.719000", "161722.723000", "161722.726000", "161722.730000", "161722.733000", "161722.736000", "161722.739000", "161722.743000", "161722.746000", "161722.749000", "161722.753000", "161722.756000", "161722.759000", "161722.763000", "161722.766000", "161722.769000", "161722.773000", "161722.776000", "161722.779000", "161722.783000", "161722.786000", "161722.789000", "161722.804000", "161722.808000", "161722.811000", "161722.814000", "161722.818000", "161736.992000", "161736.995000", "161737.000000", "161737.003000", "161737.007000", "161737.010000", "161737.013000", "161737.017000", "161737.020000", "161737.024000"],
