{
  "AcquisitionMatrixPE": 104,
  "AcquisitionNumber": 1,
  "AcquisitionTime": "15:53:12.845000",
  "BandwidthPerPixelPhaseEncode": 17.17,
  "BaseResolution": 104,
  "BodyPartExamined": "BRAIN",
  "CoilCombinationMethod": "Sum of Squares",
  "ConsistencyInfo": "N4_VE11C_LATEST_20160120",
  "ConversionSoftware": "dcm2niix",
  "ConversionSoftwareVersion": "v1.0.20211006",
  "DerivedVendorReportedEchoSpacing": 0.000560011,
  "DeviceSerialNumber": "167006",
  "DwellTime": 2.1e-06,
  "EchoTime": 0.037,
  "EchoTime1": 0.037,
  "EchoTime2": 0.001,
  "EchoTrainLength": 104,
  "EffectiveEchoSpacing": 0.000560011,
  "FlipAngle": 52,
  "HeudiconvVersion": "0.5.3.post569+g418601f",
  "ImageComments": "Unaliased MB4/PE3/LB",
  "ImageOrientationPatientDICOM": [0.999573, -0.0274278, -0.0100295, 0.022858, 0.948532, -0.315855],
  "ImageOrientationText": "Tra>Cor(-18.4)>Sag(-1.0)",
  "ImageType": [
    "ORIGINAL",
    "PRIMARY",
    "P",
    "MB",
    "ND",
    "MOSAIC",
    "PHASE"
],
  "ImagingFrequency": 123.259,
  "InPlanePhaseEncodingDirectionDICOM": "COL",
  "InstitutionAddress": "Chemin Queen-Mary 4565,Montreal,District,CA,H3W 1W5",
  "InstitutionName": "IUGM",
  "InstitutionalDepartmentName": "Department",
  "MRAcquisitionType": "2D",
  "MagneticFieldStrength": 3,
  "Manufacturer": "Siemens",
  "ManufacturersModelName": "Prisma_fit",
  "MatrixCoilMode": "SENSE",
  "Modality": "MR",
  "MultibandAccelerationFactor": 4,
  "PartialFourier": 1,
  "PatientPosition": "HFS",
  "PercentPhaseFOV": 100,
  "PercentSampling": 100,
  "PhaseEncodingDirection": "j",
  "PhaseEncodingSteps": 104,
  "PhaseResolution": 1,
  "PixelBandwidth": 2290,
  "ProcedureStepDescription": "games^mario",
  "ProtocolName": "func_task-mario_run-01",
  "PulseSequenceDetails": "%CustomerSeq%\\cmrr_mbep2d_bold",
  "ReceiveCoilActiveElements": "HC1-7;NC1,2",
  "ReceiveCoilName": "HeadNeck_64",
  "ReconMatrixPE": 104,
  "RepetitionTime": 1.49,
  "SAR": 0.0619345,
  "ScanOptions": "FS",
  "ScanningSequence": "EP",
  "SequenceName": "epfid2d1_104",
  "SequenceVariant": "SK\\SS",
  "SeriesDescription": "func_task-mario_run-01",
  "SeriesNumber": 11,
  "ShimSetting": [620, -7243, -8845, 593, -29, -191, -56, -30],
  "SliceThickness": 2,
  "SliceTiming": [0, 0.7825, 0.0975, 0.8825, 0.195, 0.98, 0.2925, 1.0775, 0.3925, 1.175, 0.49, 1.2725, 0.5875, 1.3725, 0.685, 0, 0.7825, 0.0975, 0.8825, 0.195, 0.98, 0.2925, 1.0775, 0.3925, 1.175, 0.49, 1.2725, 0.5875, 1.3725, 0.685, 0, 0.7825, 0.0975, 0.8825, 0.195, 0.98, 0.2925, 1.0775, 0.3925, 1.175, 0.49, 1.2725, 0.5875, 1.3725, 0.685, 0, 0.7825, 0.0975, 0.8825, 0.195, 0.98, 0.2925, 1.0775, 0.3925, 1.175, 0.49, 1.2725, 0.5875, 1.3725, 0.685],
  "SoftwareVersions": "syngo MR E11",
  "SpacingBetweenSlices": 2,
  "StationName": "MRC35049",
  "TaskName": "mario",
  "TotalReadoutTime": 0.0576811,
  "TxRefAmp": 274.302,
  "WipMemBlock": "6d0f94b7-4a62-4add-a97a-63e8907a5d06||Sequence: R016 ve11c/master r/e634e98; Dec 19 2017 11:00:25 by eja",
  "dcmmeta_affine": [
    [-1.9991469383239746, 0.04571603611111641, -0.03635305538773537, 104.91020202636719],
    [0.0548555962741375, 1.8970638513565063, -0.6309828758239746, -69.1543960571289],
    [-0.020059015601873398, 0.6317108273506165, 1.8975086212158203, -70.5133056640625],
    [0.0, 0.0, 0.0, 1.0]
],
  "dcmmeta_reorient_transform": [
    [0.0, -1.0, 0.0, 103.0],
    [1.0, 0.0, 0.0, 0.0],
    [0.0, 0.0, 1.0, 0.0],
    [0.0, 0.0, 0.0, 1.0]
],
  "dcmmeta_shape": [104, 104, 60, 487],
  "dcmmeta_slice_dim": 2,
  "dcmmeta_version": 0.6,
  "global": {
    "const": {
      "AcquisitionMatrix": [104, 0, 0, 104],
      "AngioFlag": "N",
      "BitsAllocated": 16,
      "BitsStored": 16,
      "BodyPartExamined": "BRAIN",
      "Columns": 832,
      "EchoNumbers": 1,
      "EchoTime": 37.0,
      "EchoTrainLength": 104,
      "FlipAngle": 52.0,
      "HighBit": 15,
      "ImageOrientationPatient": [0.99957347144612, -0.027427798829, -0.0100295080907, 0.02285801878885, 0.94853195425637, -0.3158554142826],
      "ImagePositionPatient": [-853.94907594437, -796.80701203666, 231.79713645708],
      "ImageType": [
        "ORIGINAL",
        "PRIMARY",
        "P",
        "MB",
        "ND",
        "MOSAIC"
],
      "ImagedNucleus": "1H",
      "ImagingFrequency": 123.258826,
      "InPlanePhaseEncodingDirection": "COL",
      "LargestImagePixelValue": 4095,
      "MRAcquisitionType": "2D",
      "MagneticFieldStrength": 3.0,
      "Manufacturer": "SIEMENS",
      "ManufacturerModelName": "Prisma_fit",
      "Modality": "MR",
      "NumberOfAverages": 1.0,
      "NumberOfPhaseEncodingSteps": 104,
      "PercentPhaseFieldOfView": 100.0,
      "PercentSampling": 100.0,
      "PerformedProcedureStepStartTime": "152032.860000",
      "PhotometricInterpretation": "MONOCHROME2",
      "PixelBandwidth": 2290.0,
      "PixelRepresentation": 0,
      "PixelSpacing": [2.0, 2.0],
      "ProtocolName": "func_task-mario_run-01",
      "RepetitionTime": 1490.0,
      "RescaleIntercept": -4096.0,
      "RescaleSlope": 2.0,
      "RescaleType": "US",
      "Rows": 832,
      "SAR": 0.06193451321732,
      "SamplesPerPixel": 1,
      "ScanOptions": "FS",
      "ScanningSequence": "EP",
      "SequenceName": "epfid2d1_104",
      "SequenceVariant": [
        "SK",
        "SS"
],
      "SeriesDescription": "func_task-mario_run-01",
      "SeriesNumber": 11,
      "SeriesTime": "155436.208000",
      "SliceLocation": -46.989083866799,
      "SliceThickness": 2.0,
      "SmallestImagePixelValue": 0,
      "SoftwareVersions": "syngo MR E11",
      "SpacingBetweenSlices": 2.0000000040382,
      "SpecificCharacterSet": "ISO_IR 100",
      "StudyID": "1",
      "StudyTime": "152032.797000",
      "TransmitCoilName": "Body",
      "VariableFlipAngleFlag": "N",
      "WindowCenterWidthExplanation": "Algo1",
      "dBdt": 0.0},
    "slices": {}
  },
  "time": {
    "samples": {
      "AcquisitionNumber": [1, 2, 3, 4, 5, 6, 7, 8, 9, 10, 11, 12, 13, 14, 15, 16, 17, 18, 19, 20, 21, 22, 23, 24, 25, 26, 27, 28, 29, 30, 31, 32, 33, 34, 35, 36, 37, 38, 39, 40, 41, 42, 43, 44, 45, 46, 47, 48, 49, 50, 51, 52, 53, 54, 55, 56, 57, 58, 59, 60, 61, 62, 63, 64, 65, 66, 67, 68, 69, 70, 71, 72, 73, 74, 75, 76, 77, 78, 79, 80, 81, 82, 83, 84, 85, 86, 87, 88, 89, 90, 91, 92, 93, 94, 95, 96, 97, 98, 99, 100, 101, 102, 103, 104, 105, 106, 107, 108, 109, 110, 111, 112, 113, 114, 115, 116, 117, 118, 119, 120, 121, 122, 123, 124, 125, 126, 127, 128, 129, 130, 131, 132, 133, 134, 135, 136, 137, 138, 139, 140, 141, 142, 143, 144, 145, 146, 147, 148, 149, 150, 151, 152, 153, 154, 155, 156, 157, 158, 159, 160, 161, 162, 163, 164, 165, 166, 167, 168, 169, 170, 171, 172, 173, 174, 175, 176, 177, 178, 179, 180, 181, 182, 183, 184, 185, 186, 187, 188, 189, 190, 191, 192, 193, 194, 195, 196, 197, 198, 199, 200, 201, 202, 203, 204, 205, 206, 207, 208, 209, 210, 211, 212, 213, 214, 215, 216, 217, 218, 219, 220, 221, 222, 223, 224, 225, 226, 227, 228, 229, 230, 231, 232, 233, 234, 235, 236, 237, 238, 239, 240, 241, 242, 243, 244, 245, 246, 247, 248, 249, 250, 251, 252, 253, 254, 255, 256, 257, 258, 259, 260, 261, 262, 263, 264, 265, 266, 267, 268, 269, 270, 271, 272, 273, 274, 275, 276, 277, 278, 279, 280, 281, 282, 283, 284, 285, 286, 287, 288, 289, 290, 291, 292, 293, 294, 295, 296, 297, 298, 299, 300, 301, 302, 303, 304, 305, 306, 307, 308, 309, 310, 311, 312, 313, 314, 315, 316, 317, 318, 319, 320, 321, 322, 323, 324, 325, 326, 327, 328, 329, 330, 331, 332, 333, 334, 335, 336, 337, 338, 339, 340, 341, 342, 343, 344, 345, 346, 347, 348, 349, 350, 351, 352, 353, 354, 355, 356, 357, 358, 359, 360, 361, 362, 363, 364, 365, 366, 367, 368, 369, 370, 371, 372, 373, 374, 375, 376, 377, 378, 379, 380, 381, 382, 383, 384, 385, 386, 387, 388, 389, 390, 391, 392, 393, 394, 395, 396, 397, 398, 399, 400, 401, 402, 403, 404, 405, 406, 407, 408, 409, 410, 411, 412, 413, 414, 415, 416, 417, 418, 419, 420, 421, 422, 423, 424, 425, 426, 427, 428, 429, 430, 431, 432, 433, 434, 435, 436, 437, 438, 439, 440, 441, 442, 443, 444, 445, 446, 447, 448, 449, 450, 451, 452, 453, 454, 455, 456, 457, 458, 459, 460, 461, 462, 463, 464, 465, 466, 467, 468, 469, 470, 471, 472, 473, 474, 475, 476, 477, 478, 479, 480, 481, 482, 483, 484, 485, 486, 487],
      "AcquisitionTime": ["155312.845000", "155314.335000", "155315.825000", "155317.315000", "155318.805000", "155320.295000", "155321.785000", "155323.275000", "155324.765000", "155326.255000", "155327.745000", "155329.235000", "155330.725000", "155332.215000", "155333.705000", "155335.195000", "155336.685000", "155338.175000", "155339.665000", "155341.155000", "155342.645000", "155344.135000", "155345.625000", "155347.115000", "155348.605000", "155350.095000", "155351.585000", "155353.075000", "155354.565000", "155356.055000", "155357.545000", "155359.035000", "155400.525000", "155402.015000", "155403.505000", "155404.995000", "155406.485000", "155407.975000", "155409.465000", "155410.955000", "155412.445000", "155413.935000", "155415.425000", "155416.915000", "155418.405000", "155419.895000", "155421.385000", "155422.875000", "155424.365000", "155425.855000", "155427.345000", "155428.835000", "155430.325000", "155431.815000", "155433.305000", "155434.795000", "155436.285000", "155437.775000", "155439.265000", "155440.755000", "155442.245000", "155443.735000", "155445.225000", "155446.715000", "155448.205000", "155449.695000", "155451.185000", "155452.675000", "155454.165000", "155455.655000", "155457.145000", "155458.635000", "155500.125000", "155501.615000", "155503.105000", "155504.595000", "155506.085000", "155507.575000", "155509.065000", "155510.555000", "155512.045000", "155513.535000", "155515.025000", "155516.515000", "155518.005000", "155519.495000", "155520.985000", "155522.475000", "155523.965000", "155525.455000", "155526.945000", "155528.435000", "155529.925000", "155531.415000", "155532.905000", "155534.395000", "155535.885000", "155537.375000", "155538.865000", "155540.355000", "155541.845000", "155543.335000", "155544.825000", "155546.315000", "155547.805000", "155549.295000", "155550.785000", "155552.275000", "155553.765000", "155555.255000", "155556.745000", "155558.235000", "155559.725000", "155601.215000", "155602.705000", "155604.195000", "155605.685000", "155607.175000", "155608.665000", "155610.155000", "155611.645000", "155613.135000", "155614.625000", "155616.115000", "155617.605000", "155619.095000", "155620.585000", "155622.075000", "155623.565000", "155625.055000", "155626.545000", "155628.035000", "155629.525000", "155631.015000", "155632.505000", "155633.995000", "155635.485000", "155636.975000", "155638.465000", "155639.955000", "155641.445000", "155642.935000", "155644.425000", "155645.915000", "155647.405000", "155648.895000", "155650.385000", "155651.875000", "155653.365000", "155654.855000", "155656.345000", "155657.835000", "155659.325000", "155700.815000", "155702.305000", "155703.795000", "155705.285000", "155706.775000", "155708.265000", "155709.755000", "155711.245000", "155712.735000", "155714.225000", "155715.715000", "155717.205000", "155718.695000", "155720.185000", "155721.675000", "155723.165000", "155724.655000", "155726.145000", "155727.635000", "155729.125000", "155730.615000", "155732.105000", "155733.595000", "155735.085000", "155736.575000", "155738.065000", "155739.555000", "155741.045000", "155742.535000", "155744.025000", "155745.515000", "155747.005000", "155748.495000", "155749.985000", "155751.475000", "155752.965000", "155754.455000", "155755.945000", "155757.435000", "155758.925000", "155800.415000", "155801.905000", "155803.395000", "155804.885000", "155806.375000", "155807.865000", "155809.355000", "155810.845000", "155812.335000", "155813.825000", "155815.315000", "155816.805000", "155818.295000", "155819.785000", "155821.275000", "155822.765000", "155824.255000", "155825.745000", "155827.235000", "155828.725000", "155830.215000", "155831.705000", "155833.195000", "155834.685000", "155836.175000", "155837.665000", "155839.155000", "155840.645000", "155842.135000", "155843.625000", "155845.115000", "155846.605000", "155848.095000", "155849.585000", "155851.075000", "155852.565000", "155854.055000", "155855.545000", "155857.035000", "155858.525000", "155900.015000", "155901.505000", "155902.995000", "155904.485000", "155905.975000", "155907.465000", "155908.955000", "155910.445000", "155911.935000", "155913.425000", "155914.915000", "155916.405000", "155917.895000", "155919.385000", "155920.875000", "155922.365000", "155923.855000", "155925.345000", "155926.835000", "155928.325000", "155929.815000", "155931.305000", "155932.795000", "155934.285000", "155935.775000", "155937.265000", "155938.755000", "155940.245000", "155941.735000", "155943.225000", "155944.715000", "155946.205000", "155947.695000", "155949.185000", "155950.675000", "155952.165000", "155953.655000", "155955.145000", "155956.635000", "155958.125000", "155959.615000", "160001.105000", "160002.595000", "160004.085000", "160005.575000", "160007.065000", "160008.555000", "160010.045000", "160011.535000", "160013.025000", "160014.515000", "160016.005000", "160017.495000", "160018.985000", "160020.475000", "160021.965000", "160023.455000", "160024.945000", "160026.435000", "160027.925000", "160029.415000", "160030.905000", "160032.395000", "160033.885000", "160035.375000", "160036.865000", "160038.355000", "160039.845000", "160041.335000", "160042.825000", "160044.315000", "160045.805000", "160047.295000", "160048.785000", "160050.275000", "160051.765000", "160053.255000", "160054.745000", "160056.235000", "160057.725000", "160059.215000", "160100.705000", "160102.195000", "160103.685000", "160105.175000", "160106.665000", "160108.155000", "160109.645000", "160111.135000", "160112.625000", "160114.115000", "160115.605000", "160117.095000", "160118.585000", "160120.075000", "160121.565000", "160123.055000", "160124.545000", "160126.035000", "160127.525000", "160129.015000", "160130.505000", "160131.995000", "160133.485000", "160134.975000", "160136.465000", "160137.955000", "160139.445000", "160140.935000", "160142.425000", "160143.915000", "160145.405000", "160146.895000", "160148.385000", "160149.875000", "160151.365000", "160152.855000", "160154.345000", "160155.835000", "160157.325000", "160158.815000", "160200.305000", "160201.795000", "160203.285000", "160204.775000", "160206.265000", "160207.755000", "160209.245000", "160210.735000", "160212.225000", "160213.715000", "160215.205000", "160216.695000", "160218.185000", "160219.675000", "160221.165000", "160222.655000", "160224.145000", "160225.635000", "160227.125000", "160228.615000", "160230.105000", "160231.595000", "160233.085000", "160234.575000", "160236.065000", "160237.555000", "160239.045000", "160240.535000", "160242.025000", "160243.515000", "160245.005000", "160246.495000", "160247.985000", "160249.475000", "160250.965000", "160252.455000", "160253.945000", "160255.435000", "160256.925000", "160258.415000", "160259.905000", "160301.395000", "160302.885000", "160304.375000", "160305.865000", "160307.355000", "160308.845000", "160310.335000", "160311.825000", "160313.315000", "160314.805000", "160316.295000", "160317.785000", "160319.275000", "160320.765000", "160322.255000", "160323.745000", "160325.235000", "160326.725000", "160328.215000", "160329.705000", "160331.195000", "160332.685000", "160334.175000", "160335.665000", "160337.155000", "160338.645000", "160340.135000", "160341.625000", "160343.115000", "160344.605000", "160346.095000", "160347.585000", "160349.075000", "160350.565000", "160352.055000", "160353.545000", "160355.035000", "160356.525000", "160358.015000", "160359.505000", "160400.995000", "160402.485000", "160403.975000", "160405.465000", "160406.955000", "160408.445000", "160409.935000", "160411.425000", "160412.915000", "160414.405000", "160415.895000", "160417.385000", "160418.875000", "160420.365000", "160421.855000", "160423.345000", "160424.835000", "160426.325000", "160427.815000", "160429.305000", "160430.795000", "160432.285000", "160433.775000", "160435.265000", "160436.755000", "160438.245000", "160439.735000", "160441.225000", "160442.715000", "160444.205000", "160445.695000", "160447.185000", "160448.675000", "160450.165000", "160451.655000", "160453.145000", "160454.635000", "160456.125000", "160457.615000", "160459.105000", "160500.595000", "160502.085000", "160503.575000", "160505.065000", "160506.555000", "160508.045000", "160509.535000", "160511.025000", "160512.515000", "160514.005000", "160515.495000", "160516.985000"],
      "ContentTime": ["155436.211000", "155436.214000", "155436.216000", "155436.218000", "155436.221000", "155436.223000", "155436.226000", "155436.229000", "155436.231000", "155436.234000", "155436.236000", "155436.239000", "155436.241000", "155436.243000", "155436.246000", "155436.248000", "155436.251000", "155436.253000", "155436.256000", "155436.258000", "155436.261000", "155436.263000", "155436.266000", "155436.268000", "155436.271000", "155436.273000", "155436.276000", "155436.278000", "155436.281000", "155456.145000", "155456.148000", "155456.150000", "155456.153000", "155456.155000", "155456.158000", "155456.160000", "155456.163000", "155456.165000", "155456.168000", "155456.170000", "155456.173000", "155456.175000", "155456.178000", "155456.180000", "155456.183000", "155456.185000", "155456.197000", "155456.200000", "155456.203000", "155516.155000", "155516.158000", "155516.161000", "155516.164000", "155516.177000", "155516.179000", "155516.182000", "155516.184000", "155516.187000", "155516.189000", "155516.192000", "155516.204000", "155516.206000", "155516.209000", "155516.211000", "155516.214000", "155516.216000", "155516.219000", "155516.221000", "155516.224000", "155536.148000", "155536.151000", "155536.154000", "155536.156000", "155536.159000", "155536.161000", "155536.164000", "155536.166000", "155536.169000", "155536.171000", "155536.174000", "155536.176000", "155536.179000", "155536.181000", "155536.184000", "155536.187000", "155536.189000", "155536.192000", "155536.194000", "155536.197000", "155556.160000", "155556.163000", "155556.165000", "155556.168000", "155556.170000", "155556.173000", "155556.175000", "155556.178000", "155556.180000", "155556.191000", "155556.194000", "155556.196000", "155556.199000", "155556.201000", "155556.204000", "155556.206000", "155556.209000", "155556.211000", "155556.214000", "155556.217000", "155636.196000", "155636.199000", "155636.201000", "155636.204000", "155636.207000", "155636.209000", "155636.212000", "155636.214000", "155636.217000", "155636.219000", "155636.222000", "155636.224000", "155636.227000", "155636.229000", "155636.232000", "155636.234000", "155636.237000", "155636.239000", "155636.242000", "155636.244000", "155636.247000", "155636.249000", "155636.252000", "155636.254000", "155636.257000", "155636.259000", "155636.262000", "155716.175000", "155716.178000", "155716.180000", "155716.183000", "155716.185000", "155716.188000", "155716.191000", "155716.193000", "155716.195000", "155716.198000", "155716.200000", "155716.203000", "155716.205000", "155716.208000", "155716.210000", "155716.213000", "155716.216000", "155716.218000", "155716.221000", "155716.223000", "155716.226000", "155716.228000", "155716.231000", "155716.233000", "155716.236000", "155716.238000", "155716.241000", "155756.195000", "155756.197000", "155756.200000", "155756.202000", "155756.205000", "155756.207000", "155756.210000", "155756.212000", "155756.215000", "155756.217000", "155756.220000", "155756.222000", "155756.225000", "155756.228000", "155756.230000", "155756.233000", "155756.235000", "155756.238000", "155756.240000", "155756.243000", "155756.245000", "155756.248000", "155756.257000", "155756.260000", "155756.263000", "155756.265000", "155816.125000", "155816.127000", "155816.130000", "155816.132000", "155816.135000", "155816.138000", "155816.140000", "155816.143000", "155816.145000", "155816.147000", "155816.150000", "155816.152000", "155816.155000", "155816.158000", "155856.184000", "155856.187000", "155856.190000", "155856.192000", "155856.195000", "155856.197000", "155856.200000", "155856.202000", "155856.205000", "155856.207000", "155856.210000", "155856.212000", "155856.215000", "155856.217000", "155856.220000", "155856.222000", "155856.225000", "155856.227000", "155856.230000", "155856.232000", "155856.235000", "155856.238000", "155856.240000", "155856.243000", "155856.245000", "155856.248000", "155856.250000", "155936.192000", "155936.195000", "155936.197000", "155936.200000", "155936.202000", "155936.205000", "155936.207000", "155936.210000", "155936.212000", "155936.215000", "155936.217000", "155936.220000", "155936.222000", "155936.225000", "155936.227000", "155936.230000", "155936.232000", "155936.235000", "155936.237000", "155936.240000", "155936.242000", "155936.245000", "155936.247000", "155936.250000", "155936.252000", "155936.255000", "155936.257000", "160016.182000", "160016.185000", "160016.188000", "160016.190000", "160016.193000", "160016.195000", "160016.198000", "160016.200000", "160016.203000", "160016.206000", "160016.208000", "160016.211000", "160016.213000", "160016.216000", "160016.219000", "160016.222000", "160016.225000", "160016.228000", "160016.230000", "160016.233000", "160016.236000", "160016.239000", "160016.241000", "160016.244000", "160016.247000", "160016.249000", "160056.180000", "160056.183000", "160056.185000", "160056.188000", "160056.190000", "160056.193000", "160056.195000", "160056.198000", "160056.200000", "160056.203000", "160056.205000", "160056.208000", "160056.210000", "160056.213000", "160056.215000", "160056.218000", "160056.220000", "160056.223000", "160056.225000", "160056.228000", "160056.230000", "160056.233000", "160056.235000", "160056.238000", "160056.240000", "160056.243000", "160056.245000", "160136.182000", "160136.185000", "160136.188000", "160136.190000", "160136.193000", "160136.195000", "160136.198000", "160136.200000", "160136.203000", "160136.205000", "160136.208000", "160136.210000", "160136.213000", "160136.215000", "160136.218000", "160136.220000", "160136.223000", "160136.225000", "160136.228000", "160136.230000", "160136.233000", "160136.235000", "160136.238000", "160136.240000", "160136.243000", "160136.245000", "160136.248000", "160216.668000", "160216.671000", "160216.673000", "160216.676000", "160216.679000", "160216.681000", "160216.684000", "160216.686000", "160216.689000", "160216.691000", "160216.694000", "160216.696000", "160216.699000", "160216.701000", "160216.704000", "160216.706000", "160216.709000", "160216.712000", "160216.714000", "160216.717000", "160216.719000", "160216.722000", "160216.738000", "160216.740000", "160216.743000", "160216.745000", "160216.748000", "160256.187000", "160256.189000", "160256.192000", "160256.194000", "160256.197000", "160256.200000", "160256.202000", "160256.205000", "160256.207000", "160256.210000", "160256.212000", "160256.215000", "160256.217000", "160256.226000", "160256.229000", "160256.232000", "160256.234000", "160256.237000", "160256.239000", "160256.242000", "160256.244000", "160256.247000", "160256.249000", "160256.252000", "160256.255000", "160256.257000", "160256.260000", "160336.183000", "160336.186000", "160336.189000", "160336.196000", "160336.198000", "160336.201000", "160336.203000", "160336.206000", "160336.208000", "160336.211000", "160336.213000", "160336.216000", "160336.218000", "160336.221000", "160336.223000", "160336.226000", "160336.229000", "160336.231000", "160336.234000", "160336.236000", "160336.239000", "160336.241000", "160336.244000", "160336.246000", "160336.249000", "160336.251000", "160336.254000", "160416.192000", "160416.194000", "160416.197000", "160416.199000", "160416.202000", "160416.204000", "160416.207000", "160416.210000", "160416.212000", "160416.215000", "160416.217000", "160416.220000", "160416.222000", "160416.225000", "160416.227000", "160416.230000", "160416.232000", "160416.235000", "160416.237000", "160416.240000", "160416.242000", "160416.245000", "160416.247000", "160416.250000", "160416.252000", "160416.255000", "160456.195000", "160456.198000", "160456.201000", "160456.203000", "160456.206000", "160456.217000", "160456.219000", "160456.222000", "160456.224000", "160456.227000", "160456.229000", "160456.232000", "160456.235000", "160456.237000", "160456.240000", "160456.242000", "160456.245000", "160456.247000", "160456.250000", "160456.252000", "160456.255000", "160456.258000", "160456.260000", "160456.263000", "160456.265000", "160456.268000", "160456.270000", "160519.708000", "160519.711000", "160519.713000", "160519.716000", "160519.718000", "160519.721000", "160519.723000", "160519.726000", "160519.733000", "160519.736000", "160519.738000", "160519.741000", "160519.743000", "160519.746000", "160519.749000", "160519.751000"],
