{
  "AcquisitionMatrixPE": 104,
  "AcquisitionNumber": 1,
  "AcquisitionTime": "16:37:46.545000",
  "BandwidthPerPixelPhaseEncode": 17.17,
  "BaseResolution": 104,
  "BodyPartExamined": "BRAIN",
  "CoilCombinationMethod": "Sum of Squares",
  "ConsistencyInfo": "N4_VE11C_LATEST_20160120",
  "ConversionSoftware": "dcm2niix",
  "ConversionSoftwareVersion": "v1.0.20211006",
  "DerivedVendorReportedEchoSpacing": 0.000560011,
  "DeviceSerialNumber": "167006",
  "DwellTime": 2.1e-06,
  "EchoTime": 0.037,
  "EchoTrainLength": 104,
  "EffectiveEchoSpacing": 0.000560011,
  "FlipAngle": 52,
  "HeudiconvVersion": "0.11.3.post9+gc939bf8",
  "ImageComments": "Unaliased MB4/PE3/LB",
  "ImageOrientationPatientDICOM": [0.999878, -0.0156049, -0.00119442, 0.0139619, 0.923874, -0.382443],
  "ImageOrientationText": "Tra>Cor(-22.5)>Sag(-0.4)",
  "ImageType": [
    "ORIGINAL",
    "PRIMARY",
    "M",
    "MB",
    "ND",
    "MOSAIC"
],
  "ImagingFrequency": 123.259,
  "InPlanePhaseEncodingDirectionDICOM": "COL",
  "InstitutionAddress": "Chemin Queen-Mary 4565,Montreal,District,CA,H3W 1W5",
  "InstitutionName": "IUGM",
  "InstitutionalDepartmentName": "Department",
  "MRAcquisitionType": "2D",
  "MagneticFieldStrength": 3,
  "Manufacturer": "Siemens",
  "ManufacturersModelName": "Prisma_fit",
  "MatrixCoilMode": "SENSE",
  "Modality": "MR",
  "MultibandAccelerationFactor": 4,
  "PartialFourier": 1,
  "PatientPosition": "HFS",
  "PercentPhaseFOV": 100,
  "PercentSampling": 100,
  "PhaseEncodingDirection": "j",
  "PhaseEncodingSteps": 104,
  "PhaseResolution": 1,
  "PixelBandwidth": 2290,
  "ProcedureStepDescription": "games^mario",
  "ProtocolName": "func_task-mario_run-02",
  "PulseSequenceDetails": "%CustomerSeq%\\cmrr_mbep2d_bold",
  "ReceiveCoilActiveElements": "HC1-7;NC1,2",
  "ReceiveCoilName": "HeadNeck_64",
  "ReconMatrixPE": 104,
  "RepetitionTime": 1.49,
  "SAR": 0.0630849,
  "ScanOptions": "FS",
  "ScanningSequence": "EP",
  "SequenceName": "epfid2d1_104",
  "SequenceVariant": "SK\\SS",
  "SeriesDescription": "func_task-mario_run-02",
  "SeriesNumber": 13,
  "ShimSetting": [617, -7248, -8837, 371, 47, -325, 11, 20],
  "SliceThickness": 2,
  "SliceTiming": [0, 0.7825, 0.0975, 0.8825, 0.195, 0.98, 0.2925, 1.0775, 0.3925, 1.175, 0.49, 1.2725, 0.5875, 1.3725, 0.685, 0, 0.7825, 0.0975, 0.8825, 0.195, 0.98, 0.2925, 1.0775, 0.3925, 1.175, 0.49, 1.2725, 0.5875, 1.3725, 0.685, 0, 0.7825, 0.0975, 0.8825, 0.195, 0.98, 0.2925, 1.0775, 0.3925, 1.175, 0.49, 1.2725, 0.5875, 1.3725, 0.685, 0, 0.7825, 0.0975, 0.8825, 0.195, 0.98, 0.2925, 1.0775, 0.3925, 1.175, 0.49, 1.2725, 0.5875, 1.3725, 0.685],
  "SoftwareVersions": "syngo MR E11",
  "SpacingBetweenSlices": 2,
  "StationName": "MRC35049",
  "TaskName": "mario",
  "TotalReadoutTime": 0.0576811,
  "TxRefAmp": 277.005,
  "WipMemBlock": "f71c5150-3fe4-40be-b183-64c170bd0f6a||Sequence: R017 ve11c/master r/75a17815+; Jun 28 2022 16:32:11 by eja",
  "dcmmeta_affine": [
    [-1.9997550249099731, 0.027923734858632088, -0.014142932370305061, 102.2411880493164],
    [0.031209789216518402, 1.847747564315796, -0.7647581100463867, -62.15938949584961],
    [-0.002388832625001669, 0.7648851275444031, 1.8479570150375366, -71.06721496582031],
    [0.0, 0.0, 0.0, 1.0]
],
  "dcmmeta_reorient_transform": [
    [0.0, -1.0, 0.0, 103.0],
    [1.0, 0.0, 0.0, 0.0],
    [0.0, 0.0, 1.0, 0.0],
    [0.0, 0.0, 0.0, 1.0]
],
  "dcmmeta_shape": [104, 104, 60, 481],
  "dcmmeta_slice_dim": 2,
  "dcmmeta_version": 0.6,
  "global": {
    "const": {
      "AcquisitionMatrix": [104, 0, 0, 104],
      "AngioFlag": "N",
      "BitsAllocated": 16,
      "BitsStored": 16,
      "BodyPartExamined": "BRAIN",
      "Columns": 832,
      "EchoNumbers": 1,
      "EchoTime": 37.0,
      "EchoTrainLength": 104,
      "FlipAngle": 52.0,
      "HighBit": 15,
      "ImageOrientationPatient": [0.99987752281239, -0.0156048948835, -0.0011944162774, 0.01396186743921, 0.9238737699755, -0.3824425753089],
      "ImagePositionPatient": [-843.19240675648, -789.3783468073, 287.0036840615],
      "ImageType": [
        "ORIGINAL",
        "PRIMARY",
        "M",
        "MB",
        "ND",
        "MOSAIC"
],
      "ImagedNucleus": "1H",
      "ImagingFrequency": 123.258779,
      "InPlanePhaseEncodingDirection": "COL",
      "MRAcquisitionType": "2D",
      "MagneticFieldStrength": 3.0,
      "Manufacturer": "SIEMENS",
      "ManufacturerModelName": "Prisma_fit",
      "Modality": "MR",
      "NumberOfAverages": 1.0,
      "NumberOfPhaseEncodingSteps": 104,
      "PercentPhaseFieldOfView": 100.0,
      "PercentSampling": 100.0,
      "PerformedProcedureStepStartTime": "160807.646000",
      "PhotometricInterpretation": "MONOCHROME2",
      "PixelBandwidth": 2290.0,
      "PixelRepresentation": 0,
      "PixelSpacing": [2.0, 2.0],
      "ProtocolName": "func_task-mario_run-02",
      "RepetitionTime": 1490.0,
      "Rows": 832,
      "SAR": 0.06308494393453,
      "SamplesPerPixel": 1,
      "ScanOptions": "FS",
      "ScanningSequence": "EP",
      "SequenceName": "epfid2d1_104",
      "SequenceVariant": [
        "SK",
        "SS"
],
      "SeriesDescription": "func_task-mario_run-02",
      "SeriesNumber": 13,
      "SeriesTime": "163855.766000",
      "SliceLocation": -42.619124943575,
      "SliceThickness": 2.0,
      "SmallestImagePixelValue": 0,
      "SoftwareVersions": "syngo MR E11",
      "SpacingBetweenSlices": 1.9999999952084,
      "SpecificCharacterSet": "ISO_IR 100",
      "StudyID": "1",
      "StudyTime": "160807.553000",
      "TransmitCoilName": "Body",
      "VariableFlipAngleFlag": "N",
      "WindowCenterWidthExplanation": "Algo1",
      "dBdt": 0.0},
    "slices": {}
  },
  "time": {
    "samples": {
      "AcquisitionNumber": [1, 2, 3, 4, 5, 6, 7, 8, 9, 10, 11, 12, 13, 14, 15, 16, 17, 18, 19, 20, 21, 22, 23, 24, 25, 26, 27, 28, 29, 30, 31, 32, 33, 34, 35, 36, 37, 38, 39, 40, 41, 42, 43, 44, 45, 46, 47, 48, 49, 50, 51, 52, 53, 54, 55, 56, 57, 58, 59, 60, 61, 62, 63, 64, 65, 66, 67, 68, 69, 70, 71, 72, 73, 74, 75, 76, 77, 78, 79, 80, 81, 82, 83, 84, 85, 86, 87, 88, 89, 90, 91, 92, 93, 94, 95, 96, 97, 98, 99, 100, 101, 102, 103, 104, 105, 106, 107, 108, 109, 110, 111, 112, 113, 114, 115, 116, 117, 118, 119, 120, 121, 122, 123, 124, 125, 126, 127, 128, 129, 130, 131, 132, 133, 134, 135, 136, 137, 138, 139, 140, 141, 142, 143, 144, 145, 146, 147, 148, 149, 150, 151, 152, 153, 154, 155, 156, 157, 158, 159, 160, 161, 162, 163, 164, 165, 166, 167, 168, 169, 170, 171, 172, 173, 174, 175, 176, 177, 178, 179, 180, 181, 182, 183, 184, 185, 186, 187, 188, 189, 190, 191, 192, 193, 194, 195, 196, 197, 198, 199, 200, 201, 202, 203, 204, 205, 206, 207, 208, 209, 210, 211, 212, 213, 214, 215, 216, 217, 218, 219, 220, 221, 222, 223, 224, 225, 226, 227, 228, 229, 230, 231, 232, 233, 234, 235, 236, 237, 238, 239, 240, 241, 242, 243, 244, 245, 246, 247, 248, 249, 250, 251, 252, 253, 254, 255, 256, 257, 258, 259, 260, 261, 262, 263, 264, 265, 266, 267, 268, 269, 270, 271, 272, 273, 274, 275, 276, 277, 278, 279, 280, 281, 282, 283, 284, 285, 286, 287, 288, 289, 290, 291, 292, 293, 294, 295, 296, 297, 298, 299, 300, 301, 302, 303, 304, 305, 306, 307, 308, 309, 310, 311, 312, 313, 314, 315, 316, 317, 318, 319, 320, 321, 322, 323, 324, 325, 326, 327, 328, 329, 330, 331, 332, 333, 334, 335, 336, 337, 338, 339, 340, 341, 342, 343, 344, 345, 346, 347, 348, 349, 350, 351, 352, 353, 354, 355, 356, 357, 358, 359, 360, 361, 362, 363, 364, 365, 366, 367, 368, 369, 370, 371, 372, 373, 374, 375, 376, 377, 378, 379, 380, 381, 382, 383, 384, 385, 386, 387, 388, 389, 390, 391, 392, 393, 394, 395, 396, 397, 398, 399, 400, 401, 402, 403, 404, 405, 406, 407, 408, 409, 410, 411, 412, 413, 414, 415, 416, 417, 418, 419, 420, 421, 422, 423, 424, 425, 426, 427, 428, 429, 430, 431, 432, 433, 434, 435, 436, 437, 438, 439, 440, 441, 442, 443, 444, 445, 446, 447, 448, 449, 450, 451, 452, 453, 454, 455, 456, 457, 458, 459, 460, 461, 462, 463, 464, 465, 466, 467, 468, 469, 470, 471, 472, 473, 474, 475, 476, 477, 478, 479, 480, 481],
      "AcquisitionTime": ["163746.545000", "163748.035000", "163749.525000", "163751.015000", "163752.505000", "163753.995000", "163755.485000", "163756.975000", "163758.465000", "163759.955000", "163801.445000", "163802.935000", "163804.425000", "163805.915000", "163807.405000", "163808.895000", "163810.385000", "163811.875000", "163813.365000", "163814.855000", "163816.345000", "163817.835000", "163819.325000", "163820.815000", "163822.305000", "163823.795000", "163825.285000", "163826.775000", "163828.265000", "163829.755000", "163831.245000", "163832.735000", "163834.225000", "163835.715000", "163837.205000", "163838.695000", "163840.185000", "163841.675000", "163843.165000", "163844.655000", "163846.145000", "163847.635000", "163849.125000", "163850.615000", "163852.105000", "163853.595000", "163855.085000", "163856.575000", "163858.065000", "163859.555000", "163901.045000", "163902.535000", "163904.025000", "163905.515000", "163907.005000", "163908.495000", "163909.985000", "163911.475000", "163912.965000", "163914.455000", "163915.945000", "163917.435000", "163918.925000", "163920.415000", "163921.905000", "163923.395000", "163924.885000", "163926.375000", "163927.865000", "163929.355000", "163930.845000", "163932.335000", "163933.825000", "163935.315000", "163936.805000", "163938.295000", "163939.785000", "163941.275000", "163942.765000", "163944.255000", "163945.745000", "163947.235000", "163948.725000", "163950.215000", "163951.705000", "163953.195000", "163954.685000", "163956.175000", "163957.665000", "163959.155000", "164000.645000", "164002.135000", "164003.625000", "164005.115000", "164006.605000", "164008.095000", "164009.585000", "164011.075000", "164012.565000", "164014.055000", "164015.545000", "164017.035000", "164018.525000", "164020.015000", "164021.505000", "164022.995000", "164024.485000", "164025.975000", "164027.465000", "164028.955000", "164030.445000", "164031.935000", "164033.425000", "164034.915000", "164036.405000", "164037.895000", "164039.385000", "164040.875000", "164042.365000", "164043.855000", "164045.345000", "164046.835000", "164048.325000", "164049.815000", "164051.305000", "164052.795000", "164054.285000", "164055.775000", "164057.265000", "164058.755000", "164100.245000", "164101.735000", "164103.225000", "164104.715000", "164106.205000", "164107.695000", "164109.185000", "164110.675000", "164112.165000", "164113.655000", "164115.145000", "164116.635000", "164118.125000", "164119.615000", "164121.105000", "164122.595000", "164124.085000", "164125.575000", "164127.065000", "164128.555000", "164130.045000", "164131.535000", "164133.025000", "164134.515000", "164136.005000", "164137.495000", "164138.985000", "164140.475000", "164141.965000", "164143.455000", "164144.945000", "164146.435000", "164147.925000", "164149.415000", "164150.905000", "164152.395000", "164153.885000", "164155.375000", "164156.865000", "164158.355000", "164159.845000", "164201.335000", "164202.825000", "164204.315000", "164205.805000", "164207.295000", "164208.785000", "164210.275000", "164211.765000", "164213.255000", "164214.745000", "164216.235000", "164217.725000", "164219.215000", "164220.705000", "164222.195000", "164223.685000", "164225.175000", "164226.665000", "164228.155000", "164229.645000", "164231.135000", "164232.625000", "164234.115000", "164235.605000", "164237.095000", "164238.585000", "164240.075000", "164241.565000", "164243.055000", "164244.545000", "164246.035000", "164247.525000", "164249.015000", "164250.505000", "164251.995000", "164253.485000", "164254.975000", "164256.465000", "164257.955000", "164259.445000", "164300.935000", "164302.425000", "164303.915000", "164305.405000", "164306.895000", "164308.385000", "164309.875000", "164311.365000", "164312.855000", "164314.345000", "164315.835000", "164317.325000", "164318.815000", "164320.305000", "164321.795000", "164323.285000", "164324.775000", "164326.265000", "164327.755000", "164329.245000", "164330.735000", "164332.225000", "164333.715000", "164335.205000", "164336.695000", "164338.185000", "164339.675000", "164341.165000", "164342.655000", "164344.145000", "164345.635000", "164347.125000", "164348.615000", "164350.105000", "164351.595000", "164353.085000", "164354.575000", "164356.065000", "164357.555000", "164359.045000", "164400.535000", "164402.025000", "164403.515000", "164405.005000", "164406.495000", "164407.985000", "164409.475000", "164410.965000", "164412.455000", "164413.945000", "164415.435000", "164416.925000", "164418.415000", "164419.905000", "164421.395000", "164422.885000", "164424.375000", "164425.865000", "164427.355000", "164428.845000", "164430.335000", "164431.825000", "164433.315000", "164434.805000", "164436.295000", "164437.785000", "164439.275000", "164440.765000", "164442.255000", "164443.745000", "164445.235000", "164446.725000", "164448.215000", "164449.705000", "164451.195000", "164452.685000", "164454.175000", "164455.665000", "164457.155000", "164458.645000", "164500.135000", "164501.625000", "164503.115000", "164504.605000", "164506.095000", "164507.585000", "164509.075000", "164510.565000", "164512.055000", "164513.545000", "164515.035000", "164516.525000", "164518.015000", "164519.505000", "164520.995000", "164522.485000", "164523.975000", "164525.465000", "164526.955000", "164528.445000", "164529.935000", "164531.425000", "164532.915000", "164534.405000", "164535.895000", "164537.385000", "164538.875000", "164540.365000", "164541.855000", "164543.345000", "164544.835000", "164546.325000", "164547.815000", "164549.305000", "164550.795000", "164552.285000", "164553.775000", "164555.265000", "164556.755000", "164558.245000", "164559.735000", "164601.225000", "164602.715000", "164604.205000", "164605.695000", "164607.185000", "164608.675000", "164610.165000", "164611.655000", "164613.145000", "164614.635000", "164616.125000", "164617.615000", "164619.105000", "164620.595000", "164622.085000", "164623.575000", "164625.065000", "164626.555000", "164628.045000", "164629.535000", "164631.025000", "164632.515000", "164634.005000", "164635.495000", "164636.985000", "164638.475000", "164639.965000", "164641.455000", "164642.945000", "164644.435000", "164645.925000", "164647.415000", "164648.905000", "164650.395000", "164651.885000", "164653.375000", "164654.865000", "164656.355000", "164657.845000", "164659.335000", "164700.825000", "164702.315000", "164703.805000", "164705.295000", "164706.785000", "164708.275000", "164709.765000", "164711.255000", "164712.745000", "164714.235000", "164715.725000", "164717.215000", "164718.705000", "164720.195000", "164721.685000", "164723.175000", "164724.665000", "164726.155000", "164727.645000", "164729.135000", "164730.625000", "164732.115000", "164733.605000", "164735.095000", "164736.585000", "164738.075000", "164739.565000", "164741.055000", "164742.545000", "164744.035000", "164745.525000", "164747.015000", "164748.505000", "164749.995000", "164751.485000", "164752.975000", "164754.465000", "164755.955000", "164757.445000", "164758.935000", "164800.425000", "164801.915000", "164803.405000", "164804.895000", "164806.385000", "164807.875000", "164809.365000", "164810.855000", "164812.345000", "164813.835000", "164815.325000", "164816.815000", "164818.305000", "164819.795000", "164821.285000", "164822.775000", "164824.265000", "164825.755000", "164827.245000", "164828.735000", "164830.225000", "164831.715000", "164833.205000", "164834.695000", "164836.185000", "164837.675000", "164839.165000", "164840.655000", "164842.145000", "164843.635000", "164845.125000", "164846.615000", "164848.105000", "164849.595000", "164851.085000", "164852.575000", "164854.065000", "164855.555000", "164857.045000", "164858.535000", "164900.025000", "164901.515000", "164903.005000", "164904.495000", "164905.985000", "164907.475000", "164908.965000", "164910.455000", "164911.945000", "164913.435000", "164914.925000", "164916.415000", "164917.905000", "164919.395000", "164920.885000", "164922.375000", "164923.865000", "164925.355000", "164926.845000", "164928.335000", "164929.825000", "164931.315000", "164932.805000", "164934.295000", "164935.785000", "164937.275000", "164938.765000", "164940.255000", "164941.745000"],
      "ContentTime": ["163855.770000", "163855.774000", "163855.777000", "163855.780000", "163855.784000", "163855.787000", "163855.790000", "163855.794000", "163855.797000", "163855.800000", "163855.804000", "163855.807000", "163855.811000", "163855.826000", "163855.829000", "163855.833000", "163855.836000", "163855.839000", "163855.843000", "163855.854000", "163855.857000", "163915.732000", "163915.736000", "163915.739000", "163915.743000", "163915.746000", "163915.749000", "163915.753000", "163915.764000", "163915.767000", "163915.771000", "163915.774000", "163915.777000", "163915.781000", "163915.784000", "163915.787000", "163915.791000", "163915.794000", "163915.798000", "163915.801000", "163915.804000", "163935.733000", "163935.737000", "163935.740000", "163935.744000", "163935.747000", "163935.751000", "163935.754000", "163935.758000", "163935.761000", "163935.764000", "163935.768000", "163935.771000", "163935.775000", "163935.778000", "163935.781000", "163935.785000", "163935.788000", "163935.791000", "163935.795000", "163935.798000", "163955.733000", "163955.737000", "163955.740000", "163955.743000", "163955.747000", "163955.751000", "163955.754000", "163955.758000", "163955.761000", "163955.764000", "163955.768000", "163955.771000", "163955.775000", "163955.778000", "163955.781000", "163955.785000", "163955.788000", "163955.791000", "163955.795000", "163955.798000", "163955.801000", "164035.732000", "164035.736000", "164035.739000", "164035.743000", "164035.746000", "164035.749000", "164035.753000", "164035.756000", "164035.760000", "164035.763000", "164035.766000", "164035.770000", "164035.773000", "164035.776000", "164035.780000", "164035.783000", "164035.786000", "164035.790000", "164035.793000", "164035.797000", "164035.800000", "164035.803000", "164035.807000", "164035.810000", "164035.813000", "164035.817000", "164035.820000", "164035.824000", "164035.833000", "164035.837000", "164035.840000", "164115.732000", "164115.736000", "164115.739000", "164115.743000", "164115.746000", "164115.749000", "164115.763000", "164115.766000", "164115.769000", "164115.773000", "164115.776000", "164115.779000", "164115.783000", "164115.786000", "164115.789000", "164115.793000", "164115.796000", "164115.800000", "164115.803000", "164115.806000", "164115.810000", "164115.813000", "164115.816000", "164115.820000", "164115.823000", "164115.826000", "164115.830000", "164155.733000", "164155.737000", "164155.740000", "164155.744000", "164155.747000", "164155.750000", "164155.754000", "164155.757000", "164155.760000", "164155.764000", "164155.767000", "164155.770000", "164155.774000", "164155.777000", "164155.781000", "164155.784000", "164155.787000", "164155.791000", "164155.794000", "164155.797000", "164155.801000", "164155.804000", "164155.808000", "164155.811000", "164155.814000", "164155.818000", "164155.821000", "164235.733000", "164235.738000", "164235.741000", "164235.744000", "164235.748000", "164235.751000", "164235.755000", "164235.758000", "164235.762000", "164235.765000", "164235.768000", "164235.772000", "164235.775000", "164235.778000", "164235.782000", "164235.785000", "164235.789000", "164235.792000", "164235.795000", "164235.798000", "164235.802000", "164235.805000", "164235.809000", "164235.812000", "164235.815000", "164235.819000", "164315.732000", "164315.736000", "164315.739000", "164315.743000", "164315.746000", "164315.749000", "164315.753000", "164315.756000", "164315.760000", "164315.763000", "164315.766000", "164315.770000", "164315.773000", "164315.776000", "164315.780000", "164315.783000", "164315.787000", "164315.790000", "164315.793000", "164315.797000", "164315.800000", "164315.803000", "164315.807000", "164315.810000", "164315.814000", "164315.817000", "164315.820000", "164355.732000", "164355.736000", "164355.739000", "164355.743000", "164355.746000", "164355.749000", "164355.753000", "164355.756000", "164355.760000", "164355.763000", "164355.766000", "164355.770000", "164355.773000", "164355.776000", "164355.780000", "164355.783000", "164355.786000", "164355.790000", "164355.793000", "164355.796000", "164355.800000", "164355.803000", "164355.807000", "164355.810000", "164355.813000", "164355.817000", "164355.820000", "164435.733000", "164435.737000", "164435.740000", "164435.744000", "164435.747000", "164435.750000", "164435.754000", "164435.757000", "164435.761000", "164435.764000", "164435.767000", "164435.771000", "164435.774000", "164435.778000", "164435.781000", "164435.784000", "164435.788000", "164435.791000", "164435.794000", "164435.798000", "164435.801000", "164435.804000", "164435.808000", "164435.811000", "164435.814000", "164435.818000", "164435.821000", "164515.732000", "164515.736000", "164515.739000", "164515.743000", "164515.746000", "164515.749000", "164515.753000", "164515.756000", "164515.760000", "164515.763000", "164515.766000", "164515.770000", "164515.773000", "164515.776000", "164515.780000", "164515.783000", "164515.787000", "164515.790000", "164515.793000", "164515.797000", "164515.800000", "164515.803000", "164515.807000", "164515.810000", "164515.813000", "164515.817000", "164515.820000", "164555.732000", "164555.736000", "164555.739000", "164555.743000", "164555.746000", "164555.750000", "164555.753000", "164555.756000", "164555.760000", "164555.763000", "164555.767000", "164555.770000", "164555.773000", "164555.795000", "164555.799000", "164555.802000", "164555.805000", "164555.809000", "164555.812000", "164555.815000", "164555.819000", "164555.822000", "164555.825000", "164555.829000", "164555.832000", "164555.836000", "164555.839000", "164635.733000", "164635.737000", "164635.740000", "164635.744000", "164635.747000", "164635.750000", "164635.754000", "164635.757000", "164635.761000", "164635.764000", "164635.767000", "164635.771000", "164635.774000", "164635.778000", "164635.781000", "164635.784000", "164635.788000", "164635.791000", "164635.794000", "164635.798000", "164635.801000", "164635.805000", "164635.808000", "164635.811000", "164635.814000", "164635.818000", "164635.821000", "164715.733000", "164715.737000", "164715.740000", "164715.744000", "164715.747000", "164715.751000", "164715.754000", "164715.757000", "164715.761000", "164715.764000", "164715.767000", "164715.771000", "164715.774000", "164715.777000", "164715.781000", "164715.784000", "164715.788000", "164715.791000", "164715.795000", "164715.798000", "164715.801000", "164715.805000", "164715.808000", "164715.811000", "164715.815000", "164715.818000", "164755.732000", "164755.736000", "164755.739000", "164755.743000", "164755.746000", "164755.749000", "164755.753000", "164755.756000", "164755.759000", "164755.763000", "164755.766000", "164755.770000", "164755.773000", "164755.776000", "164755.780000", "164755.783000", "164755.786000", "164755.790000", "164755.793000", "164755.796000", "164755.800000", "164755.803000", "164755.806000", "164755.810000", "164755.813000", "164755.816000", "164755.820000", "164835.732000", "164835.736000", "164835.739000", "164835.743000", "164835.746000", "164835.750000", "164835.754000", "164835.757000", "164835.760000", "164835.764000", "164835.767000", "164835.771000", "164835.774000", "164835.777000", "164835.781000", "164835.784000", "164835.787000", "164835.791000", "164835.794000", "164835.797000", "164835.801000", "164835.804000", "164835.808000", "164835.811000", "164835.814000", "164835.818000", "164835.821000", "164915.733000", "164915.737000", "164915.740000", "164915.744000", "164915.747000", "164915.751000", "164915.754000", "164915.757000", "164915.761000", "164915.764000", "164915.767000", "164915.771000", "164915.774000", "164915.777000", "164915.781000", "164915.784000", "164915.788000", "164915.791000", "164915.794000", "164915.798000", "164915.801000", "164915.804000", "164915.808000", "164915.811000", "164915.815000", "164915.818000", "164915.821000", "164944.671000", "164944.676000", "164944.679000", "164944.683000", "164944.686000", "164944.690000", "164944.693000", "164944.696000", "164944.700000", "164944.703000", "164944.706000", "164944.710000", "164944.713000", "164944.717000", "164944.720000", "164944.723000", "164944.727000", "164944.730000", "164944.733000"],
