{
  "AcquisitionMatrixPE": 104,
  "AcquisitionNumber": 1,
  "AcquisitionTime": "17:04:33.880000",
  "BandwidthPerPixelPhaseEncode": 17.17,
  "BaseResolution": 104,
  "BodyPartExamined": "BRAIN",
  "CoilCombinationMethod": "Sum of Squares",
  "ConsistencyInfo": "N4_VE11C_LATEST_20160120",
  "ConversionSoftware": "dcm2niix",
  "ConversionSoftwareVersion": "v1.0.20211006",
  "DerivedVendorReportedEchoSpacing": 0.000560011,
  "DeviceSerialNumber": "167006",
  "DwellTime": 2.1e-06,
  "EchoTime": 0.037,
  "EchoTrainLength": 104,
  "EffectiveEchoSpacing": 0.000560011,
  "FlipAngle": 52,
  "HeudiconvVersion": "0.11.3.post9+gc939bf8",
  "ImageComments": "Unaliased MB4/PE3/LB",
  "ImageOrientationPatientDICOM": [0.999878, -0.0156049, -0.00119442, 0.0139619, 0.923874, -0.382443],
  "ImageOrientationText": "Tra>Cor(-22.5)>Sag(-0.4)",
  "ImageType": [
    "ORIGINAL",
    "PRIMARY",
    "M",
    "MB",
    "ND",
    "MOSAIC"
],
  "ImagingFrequency": 123.259,
  "InPlanePhaseEncodingDirectionDICOM": "COL",
  "InstitutionAddress": "Chemin Queen-Mary 4565,Montreal,District,CA,H3W 1W5",
  "InstitutionName": "IUGM",
  "InstitutionalDepartmentName": "Department",
  "MRAcquisitionType": "2D",
  "MagneticFieldStrength": 3,
  "Manufacturer": "Siemens",
  "ManufacturersModelName": "Prisma_fit",
  "MatrixCoilMode": "SENSE",
  "Modality": "MR",
  "MultibandAccelerationFactor": 4,
  "PartialFourier": 1,
  "PatientPosition": "HFS",
  "PercentPhaseFOV": 100,
  "PercentSampling": 100,
  "PhaseEncodingDirection": "j",
  "PhaseEncodingSteps": 104,
  "PhaseResolution": 1,
  "PixelBandwidth": 2290,
  "ProcedureStepDescription": "games^mario",
  "ProtocolName": "func_task-mario_run-04",
  "PulseSequenceDetails": "%CustomerSeq%\\cmrr_mbep2d_bold",
  "ReceiveCoilActiveElements": "HC1-7;NC1,2",
  "ReceiveCoilName": "HeadNeck_64",
  "ReconMatrixPE": 104,
  "RepetitionTime": 1.49,
  "SAR": 0.0630849,
  "ScanOptions": "FS",
  "ScanningSequence": "EP",
  "SequenceName": "epfid2d1_104",
  "SequenceVariant": "SK\\SS",
  "SeriesDescription": "func_task-mario_run-04",
  "SeriesNumber": 19,
  "ShimSetting": [617, -7248, -8837, 371, 47, -325, 11, 20],
  "SliceThickness": 2,
  "SliceTiming": [0, 0.785, 0.0975, 0.8825, 0.195, 0.98, 0.295, 1.0775, 0.3925, 1.175, 0.49, 1.2725, 0.5875, 1.3725, 0.685, 0, 0.785, 0.0975, 0.8825, 0.195, 0.98, 0.295, 1.0775, 0.3925, 1.175, 0.49, 1.2725, 0.5875, 1.3725, 0.685, 0, 0.785, 0.0975, 0.8825, 0.195, 0.98, 0.295, 1.0775, 0.3925, 1.175, 0.49, 1.2725, 0.5875, 1.3725, 0.685, 0, 0.785, 0.0975, 0.8825, 0.195, 0.98, 0.295, 1.0775, 0.3925, 1.175, 0.49, 1.2725, 0.5875, 1.3725, 0.685],
  "SoftwareVersions": "syngo MR E11",
  "SpacingBetweenSlices": 2,
  "StationName": "MRC35049",
  "TaskName": "mario",
  "TotalReadoutTime": 0.0576811,
  "TxRefAmp": 277.005,
  "WipMemBlock": "1bd7289d-9bf7-4fab-aaeb-ad6046c8bb73||Sequence: R017 ve11c/master r/75a17815+; Jun 28 2022 16:32:11 by eja",
  "dcmmeta_affine": [
    [-1.9997550249099731, 0.027923734858632088, -0.014142932370305061, 102.2411880493164],
    [0.031209789216518402, 1.847747564315796, -0.7647581100463867, -62.15938949584961],
    [-0.002388832625001669, 0.7648851275444031, 1.8479570150375366, -71.06721496582031],
    [0.0, 0.0, 0.0, 1.0]
],
  "dcmmeta_reorient_transform": [
    [0.0, -1.0, 0.0, 103.0],
    [1.0, 0.0, 0.0, 0.0],
    [0.0, 0.0, 1.0, 0.0],
    [0.0, 0.0, 0.0, 1.0]
],
  "dcmmeta_shape": [104, 104, 60, 600],
  "dcmmeta_slice_dim": 2,
  "dcmmeta_version": 0.6,
  "global": {
    "const": {
      "AcquisitionMatrix": [104, 0, 0, 104],
      "AngioFlag": "N",
      "BitsAllocated": 16,
      "BitsStored": 16,
      "BodyPartExamined": "BRAIN",
      "Columns": 832,
      "EchoNumbers": 1,
      "EchoTime": 37.0,
      "EchoTrainLength": 104,
      "FlipAngle": 52.0,
      "HighBit": 15,
      "ImageOrientationPatient": [0.99987752281239, -0.0156048948835, -0.0011944162774, 0.01396186743921, 0.9238737699755, -0.3824425753089],
      "ImagePositionPatient": [-843.19240675648, -789.3783468073, 287.0036840615],
      "ImageType": [
        "ORIGINAL",
        "PRIMARY",
        "M",
        "MB",
        "ND",
        "MOSAIC"
],
      "ImagedNucleus": "1H",
      "ImagingFrequency": 123.258791,
      "InPlanePhaseEncodingDirection": "COL",
      "MRAcquisitionType": "2D",
      "MagneticFieldStrength": 3.0,
      "Manufacturer": "SIEMENS",
      "ManufacturerModelName": "Prisma_fit",
      "Modality": "MR",
      "NumberOfAverages": 1.0,
      "NumberOfPhaseEncodingSteps": 104,
      "PercentPhaseFieldOfView": 100.0,
      "PercentSampling": 100.0,
      "PerformedProcedureStepStartTime": "160807.646000",
      "PhotometricInterpretation": "MONOCHROME2",
      "PixelBandwidth": 2290.0,
      "PixelRepresentation": 0,
      "PixelSpacing": [2.0, 2.0],
      "ProtocolName": "func_task-mario_run-04",
      "RepetitionTime": 1490.0,
      "Rows": 832,
      "SAR": 0.06308494393453,
      "SamplesPerPixel": 1,
      "ScanOptions": "FS",
      "ScanningSequence": "EP",
      "SequenceName": "epfid2d1_104",
      "SequenceVariant": [
        "SK",
        "SS"
],
      "SeriesDescription": "func_task-mario_run-04",
      "SeriesNumber": 19,
      "SeriesTime": "170546.222000",
      "SliceLocation": -42.619124943575,
      "SliceThickness": 2.0,
      "SmallestImagePixelValue": 0,
      "SoftwareVersions": "syngo MR E11",
      "SpacingBetweenSlices": 1.9999999952084,
      "SpecificCharacterSet": "ISO_IR 100",
      "StudyID": "1",
      "StudyTime": "160807.553000",
      "TransmitCoilName": "Body",
      "VariableFlipAngleFlag": "N",
      "WindowCenterWidthExplanation": "Algo1",
      "dBdt": 0.0},
    "slices": {}
  },
  "time": {
    "samples": {
      "AcquisitionNumber": [1, 2, 3, 4, 5, 6, 7, 8, 9, 10, 11, 12, 13, 14, 15, 16, 17, 18, 19, 20, 21, 22, 23, 24, 25, 26, 27, 28, 29, 30, 31, 32, 33, 34, 35, 36, 37, 38, 39, 40, 41, 42, 43, 44, 45, 46, 47, 48, 49, 50, 51, 52, 53, 54, 55, 56, 57, 58, 59, 60, 61, 62, 63, 64, 65, 66, 67, 68, 69, 70, 71, 72, 73, 74, 75, 76, 77, 78, 79, 80, 81, 82, 83, 84, 85, 86, 87, 88, 89, 90, 91, 92, 93, 94, 95, 96, 97, 98, 99, 100, 101, 102, 103, 104, 105, 106, 107, 108, 109, 110, 111, 112, 113, 114, 115, 116, 117, 118, 119, 120, 121, 122, 123, 124, 125, 126, 127, 128, 129, 130, 131, 132, 133, 134, 135, 136, 137, 138, 139, 140, 141, 142, 143, 144, 145, 146, 147, 148, 149, 150, 151, 152, 153, 154, 155, 156, 157, 158, 159, 160, 161, 162, 163, 164, 165, 166, 167, 168, 169, 170, 171, 172, 173, 174, 175, 176, 177, 178, 179, 180, 181, 182, 183, 184, 185, 186, 187, 188, 189, 190, 191, 192, 193, 194, 195, 196, 197, 198, 199, 200, 201, 202, 203, 204, 205, 206, 207, 208, 209, 210, 211, 212, 213, 214, 215, 216, 217, 218, 219, 220, 221, 222, 223, 224, 225, 226, 227, 228, 229, 230, 231, 232, 233, 234, 235, 236, 237, 238, 239, 240, 241, 242, 243, 244, 245, 246, 247, 248, 249, 250, 251, 252, 253, 254, 255, 256, 257, 258, 259, 260, 261, 262, 263, 264, 265, 266, 267, 268, 269, 270, 271, 272, 273, 274, 275, 276, 277, 278, 279, 280, 281, 282, 283, 284, 285, 286, 287, 288, 289, 290, 291, 292, 293, 294, 295, 296, 297, 298, 299, 300, 301, 302, 303, 304, 305, 306, 307, 308, 309, 310, 311, 312, 313, 314, 315, 316, 317, 318, 319, 320, 321, 322, 323, 324, 325, 326, 327, 328, 329, 330, 331, 332, 333, 334, 335, 336, 337, 338, 339, 340, 341, 342, 343, 344, 345, 346, 347, 348, 349, 350, 351, 352, 353, 354, 355, 356, 357, 358, 359, 360, 361, 362, 363, 364, 365, 366, 367, 368, 369, 370, 371, 372, 373, 374, 375, 376, 377, 378, 379, 380, 381, 382, 383, 384, 385, 386, 387, 388, 389, 390, 391, 392, 393, 394, 395, 396, 397, 398, 399, 400, 401, 402, 403, 404, 405, 406, 407, 408, 409, 410, 411, 412, 413, 414, 415, 416, 417, 418, 419, 420, 421, 422, 423, 424, 425, 426, 427, 428, 429, 430, 431, 432, 433, 434, 435, 436, 437, 438, 439, 440, 441, 442, 443, 444, 445, 446, 447, 448, 449, 450, 451, 452, 453, 454, 455, 456, 457, 458, 459, 460, 461, 462, 463, 464, 465, 466, 467, 468, 469, 470, 471, 472, 473, 474, 475, 476, 477, 478, 479, 480, 481, 482, 483, 484, 485, 486, 487, 488, 489, 490, 491, 492, 493, 494, 495, 496, 497, 498, 499, 500, 501, 502, 503, 504, 505, 506, 507, 508, 509, 510, 511, 512, 513, 514, 515, 516, 517, 518, 519, 520, 521, 522, 523, 524, 525, 526, 527, 528, 529, 530, 531, 532, 533, 534, 535, 536, 537, 538, 539, 540, 541, 542, 543, 544, 545, 546, 547, 548, 549, 550, 551, 552, 553, 554, 555, 556, 557, 558, 559, 560, 561, 562, 563, 564, 565, 566, 567, 568, 569, 570, 571, 572, 573, 574, 575, 576, 577, 578, 579, 580, 581, 582, 583, 584, 585, 586, 587, 588, 589, 590, 591, 592, 593, 594, 595, 596, 597, 598, 599, 600],
      "AcquisitionTime": ["170433.880000", "170435.370000", "170436.860000", "170438.350000", "170439.840000", "170441.330000", "170442.820000", "170444.310000", "170445.800000", "170447.290000", "170448.780000", "170450.270000", "170451.760000", "170453.250000", "170454.740000", "170456.230000", "170457.720000", "170459.210000", "170500.700000", "170502.190000", "170503.680000", "170505.170000", "170506.660000", "170508.150000", "170509.640000", "170511.130000", "170512.620000", "170514.110000", "170515.600000", "170517.090000", "170518.580000", "170520.070000", "170521.560000", "170523.050000", "170524.540000", "170526.030000", "170527.520000", "170529.010000", "170530.500000", "170531.990000", "170533.480000", "170534.970000", "170536.460000", "170537.950000", "170539.440000", "170540.930000", "170542.420000", "170543.910000", "170545.400000", "170546.890000", "170548.380000", "170549.870000", "170551.360000", "170552.850000", "170554.340000", "170555.830000", "170557.320000", "170558.810000", "170600.300000", "170601.790000", "170603.280000", "170604.770000", "170606.260000", "170607.750000", "170609.240000", "170610.730000", "170612.220000", "170613.710000", "170615.200000", "170616.690000", "170618.180000", "170619.670000", "170621.160000", "170622.650000", "170624.140000", "170625.630000", "170627.120000", "170628.610000", "170630.100000", "170631.590000", "170633.080000", "170634.570000", "170636.060000", "170637.550000", "170639.040000", "170640.530000", "170642.020000", "170643.510000", "170645.000000", "170646.490000", "170647.980000", "170649.470000", "170650.960000", "170652.450000", "170653.940000", "170655.430000", "170656.920000", "170658.410000", "170659.900000", "170701.390000", "170702.880000", "170704.370000", "170705.860000", "170707.350000", "170708.840000", "170710.330000", "170711.820000", "170713.310000", "170714.800000", "170716.290000", "170717.780000", "170719.270000", "170720.760000", "170722.250000", "170723.740000", "170725.230000", "170726.720000", "170728.210000", "170729.700000", "170731.190000", "170732.680000", "170734.170000", "170735.660000", "170737.150000", "170738.640000", "170740.130000", "170741.620000", "170743.110000", "170744.600000", "170746.090000", "170747.580000", "170749.070000", "170750.560000", "170752.050000", "170753.540000", "170755.030000", "170756.520000", "170758.010000", "170759.500000", "170800.990000", "170802.480000", "170803.970000", "170805.460000", "170806.950000", "170808.440000", "170809.930000", "170811.420000", "170812.910000", "170814.400000", "170815.890000", "170817.380000", "170818.870000", "170820.360000", "170821.850000", "170823.340000", "170824.830000", "170826.320000", "170827.810000", "170829.300000", "170830.790000", "170832.280000", "170833.770000", "170835.260000", "170836.750000", "170838.240000", "170839.730000", "170841.220000", "170842.710000", "170844.200000", "170845.690000", "170847.180000", "170848.670000", "170850.160000", "170851.650000", "170853.140000", "170854.630000", "170856.120000", "170857.610000", "170859.100000", "170900.590000", "170902.080000", "170903.570000", "170905.060000", "170906.550000", "170908.040000", "170909.530000", "170911.020000", "170912.510000", "170914.000000", "170915.490000", "170916.980000", "170918.470000", "170919.960000", "170921.450000", "170922.940000", "170924.430000", "170925.920000", "170927.410000", "170928.900000", "170930.390000", "170931.880000", "170933.370000", "170934.860000", "170936.350000", "170937.840000", "170939.330000", "170940.820000", "170942.310000", "170943.800000", "170945.290000", "170946.780000", "170948.270000", "170949.760000", "170951.250000", "170952.740000", "170954.230000", "170955.720000", "170957.210000", "170958.700000", "171000.190000", "171001.680000", "171003.170000", "171004.660000", "171006.150000", "171007.640000", "171009.130000", "171010.620000", "171012.110000", "171013.600000", "171015.090000", "171016.580000", "171018.070000", "171019.560000", "171021.050000", "171022.540000", "171024.030000", "171025.520000", "171027.010000", "171028.500000", "171029.990000", "171031.480000", "171032.970000", "171034.460000", "171035.950000", "171037.440000", "171038.930000", "171040.420000", "171041.910000", "171043.400000", "171044.890000", "171046.380000", "171047.870000", "171049.360000", "171050.850000", "171052.340000", "171053.830000", "171055.320000", "171056.810000", "171058.300000", "171059.790000", "171101.280000", "171102.770000", "171104.260000", "171105.750000", "171107.240000", "171108.730000", "171110.220000", "171111.710000", "171113.200000", "171114.690000", "171116.180000", "171117.670000", "171119.160000", "171120.650000", "171122.140000", "171123.630000", "171125.120000", "171126.610000", "171128.100000", "171129.590000", "171131.080000", "171132.570000", "171134.060000", "171135.550000", "171137.040000", "171138.530000", "171140.020000", "171141.510000", "171143.000000", "171144.490000", "171145.980000", "171147.470000", "171148.960000", "171150.450000", "171151.940000", "171153.430000", "171154.920000", "171156.410000", "171157.900000", "171159.390000", "171200.880000", "171202.370000", "171203.860000", "171205.350000", "171206.840000", "171208.330000", "171209.820000", "171211.310000", "171212.800000", "171214.290000", "171215.780000", "171217.270000", "171218.760000", "171220.250000", "171221.740000", "171223.230000", "171224.720000", "171226.210000", "171227.700000", "171229.190000", "171230.680000", "171232.170000", "171233.660000", "171235.150000", "171236.640000", "171238.130000", "171239.620000", "171241.110000", "171242.600000", "171244.090000", "171245.580000", "171247.070000", "171248.560000", "171250.050000", "171251.540000", "171253.030000", "171254.520000", "171256.010000", "171257.500000", "171258.990000", "171300.480000", "171301.970000", "171303.460000", "171304.950000", "171306.440000", "171307.930000", "171309.420000", "171310.910000", "171312.400000", "171313.890000", "171315.380000", "171316.870000", "171318.360000", "171319.850000", "171321.340000", "171322.830000", "171324.320000", "171325.810000", "171327.300000", "171328.790000", "171330.280000", "171331.770000", "171333.260000", "171334.750000", "171336.240000", "171337.730000", "171339.220000", "171340.710000", "171342.200000", "171343.690000", "171345.180000", "171346.670000", "171348.160000", "171349.650000", "171351.140000", "171352.630000", "171354.120000", "171355.610000", "171357.100000", "171358.590000", "171400.080000", "171401.570000", "171403.060000", "171404.550000", "171406.040000", "171407.530000", "171409.020000", "171410.510000", "171412.000000", "171413.490000", "171414.980000", "171416.470000", "171417.960000", "171419.450000", "171420.940000", "171422.430000", "171423.920000", "171425.410000", "171426.900000", "171428.390000", "171429.880000", "171431.370000", "171432.860000", "171434.350000", "171435.840000", "171437.330000", "171438.820000", "171440.310000", "171441.800000", "171443.290000", "171444.780000", "171446.270000", "171447.760000", "171449.250000", "171450.740000", "171452.230000", "171453.720000", "171455.210000", "171456.700000", "171458.190000", "171459.680000", "171501.170000", "171502.660000", "171504.150000", "171505.640000", "171507.130000", "171508.620000", "171510.110000", "171511.600000", "171513.090000", "171514.580000", "171516.070000", "171517.560000", "171519.050000", "171520.540000", "171522.030000", "171523.520000", "171525.010000", "171526.500000", "171527.990000", "171529.480000", "171530.970000", "171532.460000", "171533.950000", "171535.440000", "171536.930000", "171538.420000", "171539.910000", "171541.400000", "171542.890000", "171544.380000", "171545.870000", "171547.360000", "171548.850000", "171550.340000", "171551.830000", "171553.320000", "171554.810000", "171556.300000", "171557.790000", "171559.280000", "171600.770000", "171602.260000", "171603.750000", "171605.240000", "171606.730000", "171608.220000", "171609.710000", "171611.200000", "171612.690000", "171614.180000", "171615.670000", "171617.160000", "171618.650000", "171620.140000", "171621.630000", "171623.120000", "171624.610000", "171626.100000", "171627.590000", "171629.080000", "171630.570000", "171632.060000", "171633.550000", "171635.040000", "171636.530000", "171638.020000", "171639.510000", "171641.000000", "171642.490000", "171643.980000", "171645.470000", "171646.960000", "171648.450000", "171649.940000", "171651.430000", "171652.920000", "171654.410000", "171655.900000", "171657.390000", "171658.880000", "171700.370000", "171701.860000", "171703.350000", "171704.840000", "171706.330000", "171707.820000", "171709.310000", "171710.800000", "171712.290000", "171713.780000", "171715.270000", "171716.760000", "171718.250000", "171719.740000", "171721.230000", "171722.720000", "171724.210000", "171725.700000", "171727.190000", "171728.680000", "171730.170000", "171731.660000", "171733.150000", "171734.640000", "171736.130000", "171737.620000", "171739.110000", "171740.600000", "171742.090000", "171743.580000", "171745.070000", "171746.560000", "171748.050000", "171749.540000", "171751.030000", "171752.520000", "171754.010000", "171755.500000", "171756.990000", "171758.480000", "171759.970000", "171801.460000", "171802.950000", "171804.440000", "171805.930000", "171807.420000", "171808.910000", "171810.400000", "171811.890000", "171813.380000", "171814.870000", "171816.360000", "171817.850000", "171819.340000", "171820.830000", "171822.320000", "171823.810000", "171825.300000", "171826.790000", "171828.280000", "171829.770000", "171831.260000", "171832.750000", "171834.240000", "171835.730000", "171837.220000", "171838.710000", "171840.200000", "171841.690000", "171843.180000", "171844.670000", "171846.160000", "171847.650000", "171849.140000", "171850.630000", "171852.120000", "171853.610000", "171855.100000", "171856.590000", "171858.080000", "171859.570000", "171901.060000", "171902.550000", "171904.040000", "171905.530000", "171907.020000", "171908.510000", "171910.000000", "171911.490000", "171912.980000", "171914.470000", "171915.960000", "171917.450000", "171918.940000", "171920.430000", "171921.920000", "171923.410000", "171924.900000", "171926.390000"],
      "ContentTime": ["170546.226000", "170546.229000", "170546.233000", "170546.243000", "170546.247000", "170546.250000", "170546.254000", "170546.257000", "170546.261000", "170546.264000", "170546.267000", "170546.271000", "170546.274000", "170546.278000", "170546.281000", "170546.284000", "170546.288000", "170546.291000", "170546.294000", "170546.297000", "170546.301000", "170546.306000", "170546.309000", "170546.313000", "170606.190000", "170606.301000", "170606.304000", "170606.308000", "170606.311000", "170606.314000", "170606.318000", "170606.321000", "170606.324000", "170606.328000", "170606.331000", "170606.334000", "170606.338000", "170606.341000", "170606.344000", "170606.348000", "170606.351000", "170606.354000", "170606.358000", "170606.361000", "170606.364000", "170626.190000", "170626.194000", "170626.198000", "170626.201000", "170626.214000", "170626.217000", "170626.220000", "170626.224000", "170626.227000", "170626.230000", "170626.234000", "170626.237000", "170626.240000", "170626.244000", "170626.247000", "170626.251000", "170626.254000", "170626.257000", "170626.261000", "170626.264000", "170646.190000", "170646.194000", "170646.197000", "170646.200000", "170646.204000", "170646.207000", "170646.211000", "170646.214000", "170646.229000", "170646.232000", "170646.246000", "170646.249000", "170646.252000", "170646.256000", "170646.259000", "170646.262000", "170646.266000", "170646.269000", "170646.272000", "170646.276000", "170726.189000", "170726.193000", "170726.196000", "170726.200000", "170726.203000", "170726.206000", "170726.210000", "170726.213000", "170726.217000", "170726.220000", "170726.223000", "170726.227000", "170726.230000", "170726.233000", "170726.237000", "170726.240000", "170726.243000", "170726.247000", "170726.250000", "170726.253000", "170726.257000", "170726.260000", "170726.263000", "170726.267000", "170726.275000", "170726.278000", "170726.282000", "170726.285000", "170726.288000", "170726.292000", "170806.189000", "170806.193000", "170806.196000", "170806.199000", "170806.203000", "170806.206000", "170806.210000", "170806.213000", "170806.216000", "170806.220000", "170806.223000", "170806.226000", "170806.230000", "170806.233000", "170806.236000", "170806.240000", "170806.243000", "170806.247000", "170806.250000", "170806.253000", "170806.257000", "170806.260000", "170806.263000", "170806.267000", "170806.270000", "170806.273000", "170806.277000", "170846.190000", "170846.194000", "170846.197000", "170846.201000", "170846.204000", "170846.208000", "170846.211000", "170846.214000", "170846.218000", "170846.221000", "170846.224000", "170846.228000", "170846.231000", "170846.235000", "170846.238000", "170846.241000", "170846.245000", "170846.248000", "170846.251000", "170846.256000", "170846.259000", "170846.263000", "170846.266000", "170846.274000", "170846.277000", "170846.280000", "170906.189000", "170906.193000", "170906.196000", "170906.200000", "170906.203000", "170906.223000", "170906.226000", "170906.230000", "170906.233000", "170906.236000", "170906.240000", "170906.243000", "170906.246000", "170906.250000", "170946.189000", "170946.193000", "170946.196000", "170946.200000", "170946.203000", "170946.206000", "170946.210000", "170946.213000", "170946.224000", "170946.228000", "170946.231000", "170946.235000", "170946.238000", "170946.241000", "170946.245000", "170946.248000", "170946.251000", "170946.255000", "170946.258000", "170946.261000", "170946.265000", "170946.268000", "170946.271000", "170946.275000", "170946.278000", "170946.281000", "170946.285000", "171026.189000", "171026.193000", "171026.196000", "171026.200000", "171026.203000", "171026.207000", "171026.210000", "171026.213000", "171026.217000", "171026.221000", "171026.224000", "171026.228000", "171026.231000", "171026.235000", "171026.238000", "171026.241000", "171026.245000", "171026.248000", "171026.251000", "171026.255000", "171026.258000", "171026.261000", "171026.265000", "171026.268000", "171026.271000", "171026.275000", "171106.190000", "171106.194000", "171106.197000", "171106.201000", "171106.204000", "171106.208000", "171106.211000", "171106.215000", "171106.218000", "171106.221000", "171106.225000", "171106.228000", "171106.232000", "171106.235000", "171106.238000", "171106.242000", "171106.245000", "171106.249000", "171106.252000", "171106.255000", "171106.259000", "171106.262000", "171106.266000", "171106.269000", "171106.272000", "171106.276000", "171106.279000", "171146.189000", "171146.193000", "171146.196000", "171146.200000", "171146.223000", "171146.227000", "171146.230000", "171146.234000", "171146.237000", "171146.240000", "171146.244000", "171146.247000", "171146.250000", "171146.254000", "171146.257000", "171146.261000", "171146.264000", "171146.267000", "171146.271000", "171146.274000", "171146.277000", "171146.281000", "171146.284000", "171146.287000", "171146.291000", "171146.294000", "171146.298000", "171226.189000", "171226.193000", "171226.196000", "171226.200000", "171226.203000", "171226.207000", "171226.210000", "171226.213000", "171226.217000", "171226.220000", "171226.223000", "171226.227000", "171226.230000", "171226.234000", "171226.237000", "171226.240000", "171226.244000", "171226.247000", "171226.250000", "171226.254000", "171226.257000", "171226.261000", "171226.264000", "171226.267000", "171226.271000", "171226.274000", "171226.277000", "171306.190000", "171306.194000", "171306.197000", "171306.201000", "171306.204000", "171306.208000", "171306.211000", "171306.214000", "171306.218000", "171306.221000", "171306.224000", "171306.228000", "171306.231000", "171306.234000", "171306.238000", "171306.241000", "171306.244000", "171306.248000", "171306.251000", "171306.254000", "171306.258000", "171306.261000", "171306.265000", "171306.268000", "171306.271000", "171306.275000", "171306.278000", "171346.189000", "171346.193000", "171346.196000", "171346.200000", "171346.203000", "171346.207000", "171346.210000", "171346.214000", "171346.217000", "171346.220000", "171346.224000", "171346.227000", "171346.230000", "171346.234000", "171346.237000", "171346.241000", "171346.244000", "171346.247000", "171346.265000", "171346.268000", "171346.272000", "171346.275000", "171346.278000", "171346.282000", "171346.285000", "171346.288000", "171346.292000", "171426.189000", "171426.193000", "171426.196000", "171426.200000", "171426.203000", "171426.207000", "171426.210000", "171426.213000", "171426.217000", "171426.220000", "171426.223000", "171426.227000", "171426.230000", "171426.234000", "171426.237000", "171426.240000", "171426.244000", "171426.247000", "171426.250000", "171426.254000", "171426.257000", "171426.260000", "171426.264000", "171426.267000", "171426.270000", "171426.274000", "171426.277000", "171506.189000", "171506.193000", "171506.197000", "171506.201000", "171506.204000", "171506.208000", "171506.211000", "171506.215000", "171506.218000", "171506.221000", "171506.225000", "171506.228000", "171506.232000", "171506.235000", "171506.238000", "171506.242000", "171506.245000", "171506.248000", "171506.252000", "171506.255000", "171506.259000", "171506.262000", "171506.266000", "171506.269000", "171506.272000", "171506.276000", "171546.191000", "171546.194000", "171546.197000", "171546.201000", "171546.204000", "171546.208000", "171546.211000", "171546.215000", "171546.218000", "171546.221000", "171546.225000", "171546.228000", "171546.231000", "171546.235000", "171546.238000", "171546.241000", "171546.245000", "171546.248000", "171546.251000", "171546.255000", "171546.258000", "171546.261000", "171546.265000", "171546.268000", "171546.272000", "171546.275000", "171546.289000", "171626.190000", "171626.193000", "171626.197000", "171626.200000", "171626.203000", "171626.207000", "171626.210000", "171626.214000", "171626.217000", "171626.220000", "171626.224000", "171626.227000", "171626.231000", "171626.234000", "171626.237000", "171626.241000", "171626.244000", "171626.248000", "171626.251000", "171626.254000", "171626.258000", "171626.261000", "171626.265000", "171626.268000", "171626.272000", "171626.275000", "171626.278000", "171706.189000", "171706.193000", "171706.196000", "171706.200000", "171706.203000", "171706.206000", "171706.210000", "171706.213000", "171706.216000", "171706.220000", "171706.223000", "171706.227000", "171706.230000", "171706.233000", "171706.237000", "171706.240000", "171706.243000", "171706.247000", "171706.250000", "171706.254000", "171706.257000", "171706.260000", "171706.264000", "171706.267000", "171706.270000", "171706.274000", "171706.277000", "171746.190000", "171746.194000", "171746.197000", "171746.201000", "171746.204000", "171746.208000", "171746.211000", "171746.214000", "171746.218000", "171746.221000", "171746.225000", "171746.228000", "171746.231000", "171746.235000", "171746.238000", "171746.241000", "171746.245000", "171746.248000", "171746.252000", "171746.255000", "171746.258000", "171746.262000", "171746.265000", "171746.268000", "171746.272000", "171746.275000", "171746.278000", "171826.189000", "171826.193000", "171826.196000", "171826.200000", "171826.203000", "171826.206000", "171826.210000", "171826.213000", "171826.226000", "171826.230000", "171826.233000", "171826.237000", "171826.240000", "171826.243000", "171826.247000", "171826.250000", "171826.253000", "171826.257000", "171826.260000", "171826.263000", "171826.267000", "171826.270000", "171826.274000", "171826.277000", "171826.280000", "171826.284000", "171826.287000", "171906.190000", "171906.390000", "171906.394000", "171906.397000", "171906.401000", "171906.404000", "171906.407000", "171906.411000", "171906.414000", "171906.418000", "171906.421000", "171906.424000", "171906.428000", "171906.431000", "171906.434000", "171906.438000", "171906.441000", "171906.445000", "171906.448000", "171906.451000", "171906.455000", "171906.458000", "171906.461000", "171906.465000", "171906.468000", "171906.472000", "171928.653000", "171928.656000", "171928.660000", "171928.663000", "171928.666000", "171928.670000", "171928.674000", "171928.677000", "171928.681000", "171928.684000", "171928.688000", "171928.691000", "171928.695000", "171928.698000", "171928.702000", "171928.706000"],
