{
  "AcquisitionMatrixPE": 104,
  "AcquisitionNumber": 1,
  "AcquisitionTime": "16:25:12.902500",
  "BandwidthPerPixelPhaseEncode": 17.17,
  "BaseResolution": 104,
  "BodyPartExamined": "BRAIN",
  "CoilCombinationMethod": "Sum of Squares",
  "ConsistencyInfo": "N4_VE11C_LATEST_20160120",
  "ConversionSoftware": "dcm2niix",
  "ConversionSoftwareVersion": "v1.0.20211006",
  "DerivedVendorReportedEchoSpacing": 0.000560011,
  "DeviceSerialNumber": "167006",
  "DwellTime": 2.1e-06,
  "EchoTime": 0.037,
  "EchoTrainLength": 104,
  "EffectiveEchoSpacing": 0.000560011,
  "FlipAngle": 52,
  "HeudiconvVersion": "0.11.3.post9+gc939bf8",
  "ImageComments": "Unaliased MB4/PE3/LB",
  "ImageOrientationPatientDICOM": [0.999878, -0.0156049, -0.00119442, 0.0139619, 0.923874, -0.382443],
  "ImageOrientationText": "Tra>Cor(-22.5)>Sag(-0.4)",
  "ImageType": [
    "ORIGINAL",
    "PRIMARY",
    "M",
    "MB",
    "ND",
    "MOSAIC"
],
  "ImagingFrequency": 123.259,
  "InPlanePhaseEncodingDirectionDICOM": "COL",
  "InstitutionAddress": "Chemin Queen-Mary 4565,Montreal,District,CA,H3W 1W5",
  "InstitutionName": "IUGM",
  "InstitutionalDepartmentName": "Department",
  "MRAcquisitionType": "2D",
  "MagneticFieldStrength": 3,
  "Manufacturer": "Siemens",
  "ManufacturersModelName": "Prisma_fit",
  "MatrixCoilMode": "SENSE",
  "Modality": "MR",
  "MultibandAccelerationFactor": 4,
  "PartialFourier": 1,
  "PatientPosition": "HFS",
  "PercentPhaseFOV": 100,
  "PercentSampling": 100,
  "PhaseEncodingDirection": "j",
  "PhaseEncodingSteps": 104,
  "PhaseResolution": 1,
  "PixelBandwidth": 2290,
  "ProcedureStepDescription": "games^mario",
  "ProtocolName": "func_task-mario_run-01",
  "PulseSequenceDetails": "%CustomerSeq%\\cmrr_mbep2d_bold",
  "ReceiveCoilActiveElements": "HC1-7;NC1,2",
  "ReceiveCoilName": "HeadNeck_64",
  "ReconMatrixPE": 104,
  "RepetitionTime": 1.49,
  "SAR": 0.0630849,
  "ScanOptions": "FS",
  "ScanningSequence": "EP",
  "SequenceName": "epfid2d1_104",
  "SequenceVariant": "SK\\SS",
  "SeriesDescription": "func_task-mario_run-01",
  "SeriesNumber": 10,
  "ShimSetting": [617, -7248, -8837, 371, 47, -325, 11, 20],
  "SliceThickness": 2,
  "SliceTiming": [0, 0.7825, 0.0975, 0.88, 0.195, 0.98, 0.2925, 1.0775, 0.39, 1.175, 0.49, 1.2725, 0.5875, 1.37, 0.685, 0, 0.7825, 0.0975, 0.88, 0.195, 0.98, 0.2925, 1.0775, 0.39, 1.175, 0.49, 1.2725, 0.5875, 1.37, 0.685, 0, 0.7825, 0.0975, 0.88, 0.195, 0.98, 0.2925, 1.0775, 0.39, 1.175, 0.49, 1.2725, 0.5875, 1.37, 0.685, 0, 0.7825, 0.0975, 0.88, 0.195, 0.98, 0.2925, 1.0775, 0.39, 1.175, 0.49, 1.2725, 0.5875, 1.37, 0.685],
  "SoftwareVersions": "syngo MR E11",
  "SpacingBetweenSlices": 2,
  "StationName": "MRC35049",
  "TaskName": "mario",
  "TotalReadoutTime": 0.0576811,
  "TxRefAmp": 277.005,
  "WipMemBlock": "e352efb3-1455-47a7-ab3e-b9cfc5db2513||Sequence: R017 ve11c/master r/75a17815+; Jun 28 2022 16:32:11 by eja",
  "dcmmeta_affine": [
    [-1.9997550249099731, 0.027923734858632088, -0.014142932370305061, 102.2411880493164],
    [0.031209789216518402, 1.847747564315796, -0.7647581100463867, -62.15938949584961],
    [-0.002388832625001669, 0.7648851275444031, 1.8479570150375366, -71.06721496582031],
    [0.0, 0.0, 0.0, 1.0]
],
  "dcmmeta_reorient_transform": [
    [0.0, -1.0, 0.0, 103.0],
    [1.0, 0.0, 0.0, 0.0],
    [0.0, 0.0, 1.0, 0.0],
    [0.0, 0.0, 0.0, 1.0]
],
  "dcmmeta_shape": [104, 104, 60, 448],
  "dcmmeta_slice_dim": 2,
  "dcmmeta_version": 0.6,
  "global": {
    "const": {
      "AcquisitionMatrix": [104, 0, 0, 104],
      "AngioFlag": "N",
      "BitsAllocated": 16,
      "BitsStored": 16,
      "BodyPartExamined": "BRAIN",
      "Columns": 832,
      "EchoNumbers": 1,
      "EchoTime": 37.0,
      "EchoTrainLength": 104,
      "FlipAngle": 52.0,
      "HighBit": 15,
      "ImageOrientationPatient": [0.99987752281239, -0.0156048948835, -0.0011944162774, 0.01396186743921, 0.9238737699755, -0.3824425753089],
      "ImagePositionPatient": [-843.19240675648, -789.3783468073, 287.0036840615],
      "ImageType": [
        "ORIGINAL",
        "PRIMARY",
        "M",
        "MB",
        "ND",
        "MOSAIC"
],
      "ImagedNucleus": "1H",
      "ImagingFrequency": 123.258768,
      "InPlanePhaseEncodingDirection": "COL",
      "MRAcquisitionType": "2D",
      "MagneticFieldStrength": 3.0,
      "Manufacturer": "SIEMENS",
      "ManufacturerModelName": "Prisma_fit",
      "Modality": "MR",
      "NumberOfAverages": 1.0,
      "NumberOfPhaseEncodingSteps": 104,
      "PercentPhaseFieldOfView": 100.0,
      "PercentSampling": 100.0,
      "PerformedProcedureStepStartTime": "160807.646000",
      "PhotometricInterpretation": "MONOCHROME2",
      "PixelBandwidth": 2290.0,
      "PixelRepresentation": 0,
      "PixelSpacing": [2.0, 2.0],
      "ProtocolName": "func_task-mario_run-01",
      "RepetitionTime": 1490.0,
      "Rows": 832,
      "SAR": 0.06308494393453,
      "SamplesPerPixel": 1,
      "ScanOptions": "FS",
      "ScanningSequence": "EP",
      "SequenceName": "epfid2d1_104",
      "SequenceVariant": [
        "SK",
        "SS"
],
      "SeriesDescription": "func_task-mario_run-01",
      "SeriesNumber": 10,
      "SeriesTime": "162626.223000",
      "SliceLocation": -42.619124943575,
      "SliceThickness": 2.0,
      "SmallestImagePixelValue": 0,
      "SoftwareVersions": "syngo MR E11",
      "SpacingBetweenSlices": 1.9999999952084,
      "SpecificCharacterSet": "ISO_IR 100",
      "StudyID": "1",
      "StudyTime": "160807.553000",
      "TransmitCoilName": "Body",
      "VariableFlipAngleFlag": "N",
      "WindowCenterWidthExplanation": "Algo1",
      "dBdt": 0.0},
    "slices": {}
  },
  "time": {
    "samples": {
      "AcquisitionNumber": [1, 2, 3, 4, 5, 6, 7, 8, 9, 10, 11, 12, 13, 14, 15, 16, 17, 18, 19, 20, 21, 22, 23, 24, 25, 26, 27, 28, 29, 30, 31, 32, 33, 34, 35, 36, 37, 38, 39, 40, 41, 42, 43, 44, 45, 46, 47, 48, 49, 50, 51, 52, 53, 54, 55, 56, 57, 58, 59, 60, 61, 62, 63, 64, 65, 66, 67, 68, 69, 70, 71, 72, 73, 74, 75, 76, 77, 78, 79, 80, 81, 82, 83, 84, 85, 86, 87, 88, 89, 90, 91, 92, 93, 94, 95, 96, 97, 98, 99, 100, 101, 102, 103, 104, 105, 106, 107, 108, 109, 110, 111, 112, 113, 114, 115, 116, 117, 118, 119, 120, 121, 122, 123, 124, 125, 126, 127, 128, 129, 130, 131, 132, 133, 134, 135, 136, 137, 138, 139, 140, 141, 142, 143, 144, 145, 146, 147, 148, 149, 150, 151, 152, 153, 154, 155, 156, 157, 158, 159, 160, 161, 162, 163, 164, 165, 166, 167, 168, 169, 170, 171, 172, 173, 174, 175, 176, 177, 178, 179, 180, 181, 182, 183, 184, 185, 186, 187, 188, 189, 190, 191, 192, 193, 194, 195, 196, 197, 198, 199, 200, 201, 202, 203, 204, 205, 206, 207, 208, 209, 210, 211, 212, 213, 214, 215, 216, 217, 218, 219, 220, 221, 222, 223, 224, 225, 226, 227, 228, 229, 230, 231, 232, 233, 234, 235, 236, 237, 238, 239, 240, 241, 242, 243, 244, 245, 246, 247, 248, 249, 250, 251, 252, 253, 254, 255, 256, 257, 258, 259, 260, 261, 262, 263, 264, 265, 266, 267, 268, 269, 270, 271, 272, 273, 274, 275, 276, 277, 278, 279, 280, 281, 282, 283, 284, 285, 286, 287, 288, 289, 290, 291, 292, 293, 294, 295, 296, 297, 298, 299, 300, 301, 302, 303, 304, 305, 306, 307, 308, 309, 310, 311, 312, 313, 314, 315, 316, 317, 318, 319, 320, 321, 322, 323, 324, 325, 326, 327, 328, 329, 330, 331, 332, 333, 334, 335, 336, 337, 338, 339, 340, 341, 342, 343, 344, 345, 346, 347, 348, 349, 350, 351, 352, 353, 354, 355, 356, 357, 358, 359, 360, 361, 362, 363, 364, 365, 366, 367, 368, 369, 370, 371, 372, 373, 374, 375, 376, 377, 378, 379, 380, 381, 382, 383, 384, 385, 386, 387, 388, 389, 390, 391, 392, 393, 394, 395, 396, 397, 398, 399, 400, 401, 402, 403, 404, 405, 406, 407, 408, 409, 410, 411, 412, 413, 414, 415, 416, 417, 418, 419, 420, 421, 422, 423, 424, 425, 426, 427, 428, 429, 430, 431, 432, 433, 434, 435, 436, 437, 438, 439, 440, 441, 442, 443, 444, 445, 446, 447, 448],
      "AcquisitionTime": ["162512.902500", "162514.392500", "162515.882500", "162517.372500", "162518.862500", "162520.352500", "162521.842500", "162523.332500", "162524.822500", "162526.312500", "162527.802500", "162529.292500", "162530.782500", "162532.272500", "162533.762500", "162535.252500", "162536.742500", "162538.232500", "162539.722500", "162541.212500", "162542.702500", "162544.192500", "162545.682500", "162547.172500", "162548.662500", "162550.152500", "162551.642500", "162553.132500", "162554.622500", "162556.112500", "162557.602500", "162559.092500", "162600.582500", "162602.072500", "162603.562500", "162605.052500", "162606.542500", "162608.032500", "162609.522500", "162611.012500", "162612.502500", "162613.992500", "162615.482500", "162616.972500", "162618.462500", "162619.952500", "162621.442500", "162622.932500", "162624.422500", "162625.912500", "162627.402500", "162628.892500", "162630.382500", "162631.872500", "162633.362500", "162634.852500", "162636.342500", "162637.832500", "162639.322500", "162640.812500", "162642.302500", "162643.792500", "162645.282500", "162646.772500", "162648.262500", "162649.752500", "162651.242500", "162652.732500", "162654.222500", "162655.712500", "162657.202500", "162658.692500", "162700.182500", "162701.672500", "162703.162500", "162704.652500", "162706.142500", "162707.632500", "162709.122500", "162710.612500", "162712.102500", "162713.592500", "162715.082500", "162716.572500", "162718.062500", "162719.552500", "162721.042500", "162722.532500", "162724.022500", "162725.512500", "162727.002500", "162728.492500", "162729.982500", "162731.472500", "162732.962500", "162734.452500", "162735.942500", "162737.432500", "162738.922500", "162740.412500", "162741.902500", "162743.392500", "162744.882500", "162746.372500", "162747.862500", "162749.352500", "162750.842500", "162752.332500", "162753.822500", "162755.312500", "162756.802500", "162758.292500", "162759.782500", "162801.272500", "162802.762500", "162804.252500", "162805.742500", "162807.232500", "162808.722500", "162810.212500", "162811.702500", "162813.192500", "162814.682500", "162816.172500", "162817.662500", "162819.152500", "162820.642500", "162822.132500", "162823.622500", "162825.112500", "162826.602500", "162828.092500", "162829.582500", "162831.072500", "162832.562500", "162834.052500", "162835.542500", "162837.032500", "162838.522500", "162840.012500", "162841.502500", "162842.992500", "162844.482500", "162845.972500", "162847.462500", "162848.952500", "162850.442500", "162851.932500", "162853.422500", "162854.912500", "162856.402500", "162857.892500", "162859.382500", "162900.872500", "162902.362500", "162903.852500", "162905.342500", "162906.832500", "162908.322500", "162909.812500", "162911.302500", "162912.792500", "162914.282500", "162915.772500", "162917.262500", "162918.752500", "162920.242500", "162921.732500", "162923.222500", "162924.712500", "162926.202500", "162927.692500", "162929.182500", "162930.672500", "162932.162500", "162933.652500", "162935.142500", "162936.632500", "162938.122500", "162939.612500", "162941.102500", "162942.592500", "162944.082500", "162945.572500", "162947.062500", "162948.552500", "162950.042500", "162951.532500", "162953.022500", "162954.512500", "162956.002500", "162957.492500", "162958.982500", "163000.472500", "163001.962500", "163003.452500", "163004.942500", "163006.432500", "163007.922500", "163009.412500", "163010.902500", "163012.392500", "163013.882500", "163015.372500", "163016.862500", "163018.352500", "163019.842500", "163021.332500", "163022.822500", "163024.312500", "163025.802500", "163027.292500", "163028.782500", "163030.272500", "163031.762500", "163033.252500", "163034.742500", "163036.232500", "163037.722500", "163039.212500", "163040.702500", "163042.192500", "163043.682500", "163045.172500", "163046.662500", "163048.152500", "163049.642500", "163051.132500", "163052.622500", "163054.112500", "163055.602500", "163057.092500", "163058.582500", "163100.072500", "163101.562500", "163103.052500", "163104.542500", "163106.032500", "163107.522500", "163109.012500", "163110.502500", "163111.992500", "163113.482500", "163114.972500", "163116.462500", "163117.952500", "163119.442500", "163120.932500", "163122.422500", "163123.912500", "163125.402500", "163126.892500", "163128.382500", "163129.872500", "163131.362500", "163132.852500", "163134.342500", "163135.832500", "163137.322500", "163138.812500", "163140.302500", "163141.792500", "163143.282500", "163144.772500", "163146.262500", "163147.752500", "163149.242500", "163150.732500", "163152.222500", "163153.712500", "163155.202500", "163156.692500", "163158.182500", "163159.672500", "163201.162500", "163202.652500", "163204.142500", "163205.632500", "163207.122500", "163208.612500", "163210.102500", "163211.592500", "163213.082500", "163214.572500", "163216.062500", "163217.552500", "163219.042500", "163220.532500", "163222.022500", "163223.512500", "163225.002500", "163226.492500", "163227.982500", "163229.472500", "163230.962500", "163232.452500", "163233.942500", "163235.432500", "163236.922500", "163238.412500", "163239.902500", "163241.392500", "163242.882500", "163244.372500", "163245.862500", "163247.352500", "163248.842500", "163250.332500", "163251.822500", "163253.312500", "163254.802500", "163256.292500", "163257.782500", "163259.272500", "163300.762500", "163302.252500", "163303.742500", "163305.232500", "163306.722500", "163308.212500", "163309.702500", "163311.192500", "163312.682500", "163314.172500", "163315.662500", "163317.152500", "163318.642500", "163320.132500", "163321.622500", "163323.112500", "163324.602500", "163326.092500", "163327.582500", "163329.072500", "163330.562500", "163332.052500", "163333.542500", "163335.032500", "163336.522500", "163338.012500", "163339.502500", "163340.992500", "163342.482500", "163343.972500", "163345.462500", "163346.952500", "163348.442500", "163349.932500", "163351.422500", "163352.912500", "163354.402500", "163355.892500", "163357.382500", "163358.872500", "163400.362500", "163401.852500", "163403.342500", "163404.832500", "163406.322500", "163407.812500", "163409.302500", "163410.792500", "163412.282500", "163413.772500", "163415.262500", "163416.752500", "163418.242500", "163419.732500", "163421.222500", "163422.712500", "163424.202500", "163425.692500", "163427.182500", "163428.672500", "163430.162500", "163431.652500", "163433.142500", "163434.632500", "163436.122500", "163437.612500", "163439.102500", "163440.592500", "163442.082500", "163443.572500", "163445.062500", "163446.552500", "163448.042500", "163449.532500", "163451.022500", "163452.512500", "163454.002500", "163455.492500", "163456.982500", "163458.472500", "163459.962500", "163501.452500", "163502.942500", "163504.432500", "163505.922500", "163507.412500", "163508.902500", "163510.392500", "163511.882500", "163513.372500", "163514.862500", "163516.352500", "163517.842500", "163519.332500", "163520.822500", "163522.312500", "163523.802500", "163525.292500", "163526.782500", "163528.272500", "163529.762500", "163531.252500", "163532.742500", "163534.232500", "163535.722500", "163537.212500", "163538.702500", "163540.192500", "163541.682500", "163543.172500", "163544.662500", "163546.152500", "163547.642500", "163549.132500", "163550.622500", "163552.112500", "163553.602500", "163555.092500", "163556.582500", "163558.072500", "163559.562500", "163601.052500", "163602.542500", "163604.032500", "163605.522500", "163607.012500", "163608.502500", "163609.992500", "163611.482500", "163612.972500", "163614.462500", "163615.952500", "163617.442500", "163618.932500"],
      "ContentTime": ["162626.227000", "162626.231000", "162626.234000", "162626.237000", "162626.241000", "162626.244000", "162626.247000", "162626.251000", "162626.254000", "162626.257000", "162626.261000", "162626.264000", "162626.267000", "162626.271000", "162626.274000", "162626.277000", "162626.281000", "162626.284000", "162626.294000", "162626.298000", "162626.301000", "162626.305000", "162626.308000", "162626.311000", "162626.315000", "162626.318000", "162646.190000", "162646.226000", "162646.229000", "162646.232000", "162646.236000", "162646.239000", "162646.242000", "162646.246000", "162646.249000", "162646.252000", "162646.256000", "162646.259000", "162646.262000", "162646.266000", "162646.269000", "162646.276000", "162646.280000", "162646.283000", "162646.286000", "162646.290000", "162706.190000", "162706.194000", "162706.197000", "162706.201000", "162706.204000", "162706.208000", "162706.211000", "162706.214000", "162706.218000", "162706.221000", "162706.224000", "162706.228000", "162706.231000", "162706.234000", "162706.238000", "162706.241000", "162706.244000", "162706.248000", "162706.251000", "162706.254000", "162726.189000", "162726.193000", "162726.196000", "162726.200000", "162726.203000", "162726.206000", "162726.210000", "162726.213000", "162726.216000", "162726.220000", "162726.223000", "162726.226000", "162726.230000", "162726.233000", "162726.236000", "162726.239000", "162726.243000", "162726.246000", "162726.249000", "162726.253000", "162806.189000", "162806.193000", "162806.196000", "162806.199000", "162806.203000", "162806.206000", "162806.209000", "162806.224000", "162806.228000", "162806.231000", "162806.234000", "162806.238000", "162806.241000", "162806.245000", "162806.248000", "162806.251000", "162806.255000", "162806.258000", "162806.261000", "162806.265000", "162806.268000", "162806.271000", "162806.275000", "162806.278000", "162806.281000", "162806.285000", "162806.288000", "162806.291000", "162806.295000", "162806.298000", "162846.189000", "162846.193000", "162846.196000", "162846.200000", "162846.203000", "162846.206000", "162846.210000", "162846.213000", "162846.216000", "162846.220000", "162846.223000", "162846.227000", "162846.230000", "162846.233000", "162846.237000", "162846.240000", "162846.243000", "162846.247000", "162846.250000", "162846.254000", "162846.257000", "162846.260000", "162846.264000", "162846.267000", "162846.270000", "162846.274000", "162846.277000", "162906.190000", "162906.194000", "162906.197000", "162906.201000", "162906.204000", "162906.208000", "162906.211000", "162906.214000", "162906.218000", "162906.221000", "162906.224000", "162906.228000", "162906.231000", "162946.189000", "162946.310000", "162946.313000", "162946.317000", "162946.320000", "162946.323000", "162946.327000", "162946.330000", "162946.333000", "162946.337000", "162946.340000", "162946.343000", "162946.347000", "162946.350000", "162946.353000", "162946.357000", "162946.360000", "162946.364000", "162946.367000", "162946.370000", "162946.374000", "162946.377000", "162946.381000", "162946.384000", "162946.387000", "162946.391000", "162946.394000", "163026.189000", "163026.193000", "163026.196000", "163026.200000", "163026.203000", "163026.207000", "163026.210000", "163026.213000", "163026.217000", "163026.220000", "163026.234000", "163026.238000", "163026.241000", "163026.244000", "163026.248000", "163026.251000", "163026.254000", "163026.258000", "163026.261000", "163026.265000", "163026.268000", "163026.271000", "163026.275000", "163026.278000", "163026.281000", "163026.285000", "163026.288000", "163106.189000", "163106.193000", "163106.197000", "163106.200000", "163106.204000", "163106.207000", "163106.210000", "163106.214000", "163106.217000", "163106.220000", "163106.224000", "163106.227000", "163106.231000", "163106.234000", "163106.237000", "163106.241000", "163106.244000", "163106.247000", "163106.251000", "163106.254000", "163106.258000", "163106.261000", "163106.264000", "163106.268000", "163106.276000", "163106.280000", "163106.283000", "163146.190000", "163146.194000", "163146.197000", "163146.201000", "163146.204000", "163146.207000", "163146.211000", "163146.214000", "163146.218000", "163146.221000", "163146.224000", "163146.228000", "163146.231000", "163146.234000", "163146.238000", "163146.241000", "163146.244000", "163146.248000", "163146.251000", "163146.255000", "163146.259000", "163146.262000", "163146.266000", "163146.269000", "163146.273000", "163146.276000", "163226.189000", "163226.193000", "163226.196000", "163226.200000", "163226.203000", "163226.206000", "163226.210000", "163226.213000", "163226.217000", "163226.220000", "163226.223000", "163226.227000", "163226.230000", "163226.233000", "163226.237000", "163226.240000", "163226.244000", "163226.247000", "163226.250000", "163226.254000", "163226.257000", "163226.261000", "163226.264000", "163226.267000", "163226.271000", "163226.274000", "163226.298000", "163306.189000", "163306.193000", "163306.196000", "163306.200000", "163306.203000", "163306.206000", "163306.210000", "163306.213000", "163306.216000", "163306.220000", "163306.223000", "163306.227000", "163306.230000", "163306.233000", "163306.236000", "163306.240000", "163306.243000", "163306.247000", "163306.250000", "163306.253000", "163306.257000", "163306.260000", "163306.263000", "163306.267000", "163306.270000", "163306.274000", "163306.277000", "163346.190000", "163346.194000", "163346.198000", "163346.201000", "163346.204000", "163346.208000", "163346.211000", "163346.214000", "163346.218000", "163346.221000", "163346.224000", "163346.228000", "163346.231000", "163346.235000", "163346.238000", "163346.241000", "163346.245000", "163346.248000", "163346.251000", "163346.255000", "163346.258000", "163346.261000", "163346.265000", "163346.268000", "163346.271000", "163346.275000", "163346.278000", "163426.189000", "163426.193000", "163426.196000", "163426.200000", "163426.203000", "163426.206000", "163426.210000", "163426.213000", "163426.217000", "163426.220000", "163426.223000", "163426.227000", "163426.230000", "163426.234000", "163426.237000", "163426.240000", "163426.244000", "163426.247000", "163426.250000", "163426.254000", "163426.257000", "163426.261000", "163426.264000", "163426.267000", "163426.271000", "163426.274000", "163426.277000", "163506.189000", "163506.193000", "163506.197000", "163506.200000", "163506.203000", "163506.207000", "163506.210000", "163506.213000", "163506.217000", "163506.239000", "163506.243000", "163506.246000", "163506.249000", "163506.254000", "163506.258000", "163506.261000", "163506.264000", "163506.268000", "163506.271000", "163506.274000", "163506.278000", "163506.281000", "163506.285000", "163506.288000", "163506.291000", "163506.295000", "163506.298000", "163546.189000", "163546.362000", "163546.365000", "163546.369000", "163546.372000", "163546.375000", "163546.379000", "163546.382000", "163546.385000", "163546.389000", "163546.392000", "163546.396000", "163546.399000", "163546.402000", "163546.406000", "163546.409000", "163546.412000", "163546.416000", "163546.419000", "163546.422000", "163546.426000", "163546.429000", "163546.432000", "163546.436000", "163546.439000", "163546.442000", "163621.258000", "163621.261000", "163621.265000", "163621.268000", "163621.272000", "163621.275000", "163621.278000", "163621.282000", "163621.285000", "163621.288000", "163621.292000", "163621.295000", "163621.298000", "163621.302000", "163621.305000", "163621.308000", "163621.312000", "163621.315000", "163621.318000", "163621.322000", "163621.325000", "163621.328000", "163621.332000", "163621.335000"],
