{
  "AcquisitionMatrixPE": 104,
  "AcquisitionNumber": 1,
  "AcquisitionTime": "16:25:12.902500",
  "BandwidthPerPixelPhaseEncode": 17.17,
  "BaseResolution": 104,
  "BodyPartExamined": "BRAIN",
  "CoilCombinationMethod": "Sum of Squares",
  "ConsistencyInfo": "N4_VE11C_LATEST_20160120",
  "ConversionSoftware": "dcm2niix",
  "ConversionSoftwareVersion": "v1.0.20211006",
  "DerivedVendorReportedEchoSpacing": 0.000560011,
  "DeviceSerialNumber": "167006",
  "DwellTime": 2.1e-06,
  "EchoTime": 0.037,
  "EchoTime1": 0.037,
  "EchoTime2": 0.001,
  "EchoTrainLength": 104,
  "EffectiveEchoSpacing": 0.000560011,
  "FlipAngle": 52,
  "HeudiconvVersion": "0.11.3.post9+gc939bf8",
  "ImageComments": "Unaliased MB4/PE3/LB",
  "ImageOrientationPatientDICOM": [0.999878, -0.0156049, -0.00119442, 0.0139619, 0.923874, -0.382443],
  "ImageOrientationText": "Tra>Cor(-22.5)>Sag(-0.4)",
  "ImageType": [
    "ORIGINAL",
    "PRIMARY",
    "P",
    "MB",
    "ND",
    "MOSAIC",
    "PHASE"
],
  "ImagingFrequency": 123.259,
  "InPlanePhaseEncodingDirectionDICOM": "COL",
  "InstitutionAddress": "Chemin Queen-Mary 4565,Montreal,District,CA,H3W 1W5",
  "InstitutionName": "IUGM",
  "InstitutionalDepartmentName": "Department",
  "MRAcquisitionType": "2D",
  "MagneticFieldStrength": 3,
  "Manufacturer": "Siemens",
  "ManufacturersModelName": "Prisma_fit",
  "MatrixCoilMode": "SENSE",
  "Modality": "MR",
  "MultibandAccelerationFactor": 4,
  "PartialFourier": 1,
  "PatientPosition": "HFS",
  "PercentPhaseFOV": 100,
  "PercentSampling": 100,
  "PhaseEncodingDirection": "j",
  "PhaseEncodingSteps": 104,
  "PhaseResolution": 1,
  "PixelBandwidth": 2290,
  "ProcedureStepDescription": "games^mario",
  "ProtocolName": "func_task-mario_run-01",
  "PulseSequenceDetails": "%CustomerSeq%\\cmrr_mbep2d_bold",
  "ReceiveCoilActiveElements": "HC1-7;NC1,2",
  "ReceiveCoilName": "HeadNeck_64",
  "ReconMatrixPE": 104,
  "RepetitionTime": 1.49,
  "SAR": 0.0630849,
  "ScanOptions": "FS",
  "ScanningSequence": "EP",
  "SequenceName": "epfid2d1_104",
  "SequenceVariant": "SK\\SS",
  "SeriesDescription": "func_task-mario_run-01",
  "SeriesNumber": 11,
  "ShimSetting": [617, -7248, -8837, 371, 47, -325, 11, 20],
  "SliceThickness": 2,
  "SliceTiming": [0, 0.7825, 0.0975, 0.88, 0.195, 0.98, 0.2925, 1.0775, 0.39, 1.175, 0.49, 1.2725, 0.5875, 1.37, 0.685, 0, 0.7825, 0.0975, 0.88, 0.195, 0.98, 0.2925, 1.0775, 0.39, 1.175, 0.49, 1.2725, 0.5875, 1.37, 0.685, 0, 0.7825, 0.0975, 0.88, 0.195, 0.98, 0.2925, 1.0775, 0.39, 1.175, 0.49, 1.2725, 0.5875, 1.37, 0.685, 0, 0.7825, 0.0975, 0.88, 0.195, 0.98, 0.2925, 1.0775, 0.39, 1.175, 0.49, 1.2725, 0.5875, 1.37, 0.685],
  "SoftwareVersions": "syngo MR E11",
  "SpacingBetweenSlices": 2,
  "StationName": "MRC35049",
  "TaskName": "mario",
  "TotalReadoutTime": 0.0576811,
  "TxRefAmp": 277.005,
  "WipMemBlock": "e352efb3-1455-47a7-ab3e-b9cfc5db2513||Sequence: R017 ve11c/master r/75a17815+; Jun 28 2022 16:32:11 by eja",
  "dcmmeta_affine": [
    [-1.9997550249099731, 0.027923734858632088, -0.014142932370305061, 102.2411880493164],
    [0.031209789216518402, 1.847747564315796, -0.7647581100463867, -62.15938949584961],
    [-0.002388832625001669, 0.7648851275444031, 1.8479570150375366, -71.06721496582031],
    [0.0, 0.0, 0.0, 1.0]
],
  "dcmmeta_reorient_transform": [
    [0.0, -1.0, 0.0, 103.0],
    [1.0, 0.0, 0.0, 0.0],
    [0.0, 0.0, 1.0, 0.0],
    [0.0, 0.0, 0.0, 1.0]
],
  "dcmmeta_shape": [104, 104, 60, 448],
  "dcmmeta_slice_dim": 2,
  "dcmmeta_version": 0.6,
  "global": {
    "const": {
      "AcquisitionMatrix": [104, 0, 0, 104],
      "AngioFlag": "N",
      "BitsAllocated": 16,
      "BitsStored": 16,
      "BodyPartExamined": "BRAIN",
      "Columns": 832,
      "EchoNumbers": 1,
      "EchoTime": 37.0,
      "EchoTrainLength": 104,
      "FlipAngle": 52.0,
      "HighBit": 15,
      "ImageOrientationPatient": [0.99987752281239, -0.0156048948835, -0.0011944162774, 0.01396186743921, 0.9238737699755, -0.3824425753089],
      "ImagePositionPatient": [-843.19240675648, -789.3783468073, 287.0036840615],
      "ImageType": [
        "ORIGINAL",
        "PRIMARY",
        "P",
        "MB",
        "ND",
        "MOSAIC"
],
      "ImagedNucleus": "1H",
      "ImagingFrequency": 123.258768,
      "InPlanePhaseEncodingDirection": "COL",
      "LargestImagePixelValue": 4095,
      "MRAcquisitionType": "2D",
      "MagneticFieldStrength": 3.0,
      "Manufacturer": "SIEMENS",
      "ManufacturerModelName": "Prisma_fit",
      "Modality": "MR",
      "NumberOfAverages": 1.0,
      "NumberOfPhaseEncodingSteps": 104,
      "PercentPhaseFieldOfView": 100.0,
      "PercentSampling": 100.0,
      "PerformedProcedureStepStartTime": "160807.646000",
      "PhotometricInterpretation": "MONOCHROME2",
      "PixelBandwidth": 2290.0,
      "PixelRepresentation": 0,
      "PixelSpacing": [2.0, 2.0],
      "ProtocolName": "func_task-mario_run-01",
      "RepetitionTime": 1490.0,
      "RescaleIntercept": -4096.0,
      "RescaleSlope": 2.0,
      "RescaleType": "US",
      "Rows": 832,
      "SAR": 0.06308494393453,
      "SamplesPerPixel": 1,
      "ScanOptions": "FS",
      "ScanningSequence": "EP",
      "SequenceName": "epfid2d1_104",
      "SequenceVariant": [
        "SK",
        "SS"
],
      "SeriesDescription": "func_task-mario_run-01",
      "SeriesNumber": 11,
      "SeriesTime": "162626.364000",
      "SliceLocation": -42.619124943575,
      "SliceThickness": 2.0,
      "SmallestImagePixelValue": 0,
      "SoftwareVersions": "syngo MR E11",
      "SpacingBetweenSlices": 1.9999999952084,
      "SpecificCharacterSet": "ISO_IR 100",
      "StudyID": "1",
      "StudyTime": "160807.553000",
      "TransmitCoilName": "Body",
      "VariableFlipAngleFlag": "N",
      "WindowCenterWidthExplanation": "Algo1",
      "dBdt": 0.0},
    "slices": {}
  },
  "time": {
    "samples": {
      "AcquisitionNumber": [1, 2, 3, 4, 5, 6, 7, 8, 9, 10, 11, 12, 13, 14, 15, 16, 17, 18, 19, 20, 21, 22, 23, 24, 25, 26, 27, 28, 29, 30, 31, 32, 33, 34, 35, 36, 37, 38, 39, 40, 41, 42, 43, 44, 45, 46, 47, 48, 49, 50, 51, 52, 53, 54, 55, 56, 57, 58, 59, 60, 61, 62, 63, 64, 65, 66, 67, 68, 69, 70, 71, 72, 73, 74, 75, 76, 77, 78, 79, 80, 81, 82, 83, 84, 85, 86, 87, 88, 89, 90, 91, 92, 93, 94, 95, 96, 97, 98, 99, 100, 101, 102, 103, 104, 105, 106, 107, 108, 109, 110, 111, 112, 113, 114, 115, 116, 117, 118, 119, 120, 121, 122, 123, 124, 125, 126, 127, 128, 129, 130, 131, 132, 133, 134, 135, 136, 137, 138, 139, 140, 141, 142, 143, 144, 145, 146, 147, 148, 149, 150, 151, 152, 153, 154, 155, 156, 157, 158, 159, 160, 161, 162, 163, 164, 165, 166, 167, 168, 169, 170, 171, 172, 173, 174, 175, 176, 177, 178, 179, 180, 181, 182, 183, 184, 185, 186, 187, 188, 189, 190, 191, 192, 193, 194, 195, 196, 197, 198, 199, 200, 201, 202, 203, 204, 205, 206, 207, 208, 209, 210, 211, 212, 213, 214, 215, 216, 217, 218, 219, 220, 221, 222, 223, 224, 225, 226, 227, 228, 229, 230, 231, 232, 233, 234, 235, 236, 237, 238, 239, 240, 241, 242, 243, 244, 245, 246, 247, 248, 249, 250, 251, 252, 253, 254, 255, 256, 257, 258, 259, 260, 261, 262, 263, 264, 265, 266, 267, 268, 269, 270, 271, 272, 273, 274, 275, 276, 277, 278, 279, 280, 281, 282, 283, 284, 285, 286, 287, 288, 289, 290, 291, 292, 293, 294, 295, 296, 297, 298, 299, 300, 301, 302, 303, 304, 305, 306, 307, 308, 309, 310, 311, 312, 313, 314, 315, 316, 317, 318, 319, 320, 321, 322, 323, 324, 325, 326, 327, 328, 329, 330, 331, 332, 333, 334, 335, 336, 337, 338, 339, 340, 341, 342, 343, 344, 345, 346, 347, 348, 349, 350, 351, 352, 353, 354, 355, 356, 357, 358, 359, 360, 361, 362, 363, 364, 365, 366, 367, 368, 369, 370, 371, 372, 373, 374, 375, 376, 377, 378, 379, 380, 381, 382, 383, 384, 385, 386, 387, 388, 389, 390, 391, 392, 393, 394, 395, 396, 397, 398, 399, 400, 401, 402, 403, 404, 405, 406, 407, 408, 409, 410, 411, 412, 413, 414, 415, 416, 417, 418, 419, 420, 421, 422, 423, 424, 425, 426, 427, 428, 429, 430, 431, 432, 433, 434, 435, 436, 437, 438, 439, 440, 441, 442, 443, 444, 445, 446, 447, 448],
      "AcquisitionTime": ["162512.902500", "162514.392500", "162515.882500", "162517.372500", "162518.862500", "162520.352500", "162521.842500", "162523.332500", "162524.822500", "162526.312500", "162527.802500", "162529.292500", "162530.782500", "162532.272500", "162533.762500", "162535.252500", "162536.742500", "162538.232500", "162539.722500", "162541.212500", "162542.702500", "162544.192500", "162545.682500", "162547.172500", "162548.662500", "162550.152500", "162551.642500", "162553.132500", "162554.622500", "162556.112500", "162557.602500", "162559.092500", "162600.582500", "162602.072500", "162603.562500", "162605.052500", "162606.542500", "162608.032500", "162609.522500", "162611.012500", "162612.502500", "162613.992500", "162615.482500", "162616.972500", "162618.462500", "162619.952500", "162621.442500", "162622.932500", "162624.422500", "162625.912500", "162627.402500", "162628.892500", "162630.382500", "162631.872500", "162633.362500", "162634.852500", "162636.342500", "162637.832500", "162639.322500", "162640.812500", "162642.302500", "162643.792500", "162645.282500", "162646.772500", "162648.262500", "162649.752500", "162651.242500", "162652.732500", "162654.222500", "162655.712500", "162657.202500", "162658.692500", "162700.182500", "162701.672500", "162703.162500", "162704.652500", "162706.142500", "162707.632500", "162709.122500", "162710.612500", "162712.102500", "162713.592500", "162715.082500", "162716.572500", "162718.062500", "162719.552500", "162721.042500", "162722.532500", "162724.022500", "162725.512500", "162727.002500", "162728.492500", "162729.982500", "162731.472500", "162732.962500", "162734.452500", "162735.942500", "162737.432500", "162738.922500", "162740.412500", "162741.902500", "162743.392500", "162744.882500", "162746.372500", "162747.862500", "162749.352500", "162750.842500", "162752.332500", "162753.822500", "162755.312500", "162756.802500", "162758.292500", "162759.782500", "162801.272500", "162802.762500", "162804.252500", "162805.742500", "162807.232500", "162808.722500", "162810.212500", "162811.702500", "162813.192500", "162814.682500", "162816.172500", "162817.662500", "162819.152500", "162820.642500", "162822.132500", "162823.622500", "162825.112500", "162826.602500", "162828.092500", "162829.582500", "162831.072500", "162832.562500", "162834.052500", "162835.542500", "162837.032500", "162838.522500", "162840.012500", "162841.502500", "162842.992500", "162844.482500", "162845.972500", "162847.462500", "162848.952500", "162850.442500", "162851.932500", "162853.422500", "162854.912500", "162856.402500", "162857.892500", "162859.382500", "162900.872500", "162902.362500", "162903.852500", "162905.342500", "162906.832500", "162908.322500", "162909.812500", "162911.302500", "162912.792500", "162914.282500", "162915.772500", "162917.262500", "162918.752500", "162920.242500", "162921.732500", "162923.222500", "162924.712500", "162926.202500", "162927.692500", "162929.182500", "162930.672500", "162932.162500", "162933.652500", "162935.142500", "162936.632500", "162938.122500", "162939.612500", "162941.102500", "162942.592500", "162944.082500", "162945.572500", "162947.062500", "162948.552500", "162950.042500", "162951.532500", "162953.022500", "162954.512500", "162956.002500", "162957.492500", "162958.982500", "163000.472500", "163001.962500", "163003.452500", "163004.942500", "163006.432500", "163007.922500", "163009.412500", "163010.902500", "163012.392500", "163013.882500", "163015.372500", "163016.862500", "163018.352500", "163019.842500", "163021.332500", "163022.822500", "163024.312500", "163025.802500", "163027.292500", "163028.782500", "163030.272500", "163031.762500", "163033.252500", "163034.742500", "163036.232500", "163037.722500", "163039.212500", "163040.702500", "163042.192500", "163043.682500", "163045.172500", "163046.662500", "163048.152500", "163049.642500", "163051.132500", "163052.622500", "163054.112500", "163055.602500", "163057.092500", "163058.582500", "163100.072500", "163101.562500", "163103.052500", "163104.542500", "163106.032500", "163107.522500", "163109.012500", "163110.502500", "163111.992500", "163113.482500", "163114.972500", "163116.462500", "163117.952500", "163119.442500", "163120.932500", "163122.422500", "163123.912500", "163125.402500", "163126.892500", "163128.382500", "163129.872500", "163131.362500", "163132.852500", "163134.342500", "163135.832500", "163137.322500", "163138.812500", "163140.302500", "163141.792500", "163143.282500", "163144.772500", "163146.262500", "163147.752500", "163149.242500", "163150.732500", "163152.222500", "163153.712500", "163155.202500", "163156.692500", "163158.182500", "163159.672500", "163201.162500", "163202.652500", "163204.142500", "163205.632500", "163207.122500", "163208.612500", "163210.102500", "163211.592500", "163213.082500", "163214.572500", "163216.062500", "163217.552500", "163219.042500", "163220.532500", "163222.022500", "163223.512500", "163225.002500", "163226.492500", "163227.982500", "163229.472500", "163230.962500", "163232.452500", "163233.942500", "163235.432500", "163236.922500", "163238.412500", "163239.902500", "163241.392500", "163242.882500", "163244.372500", "163245.862500", "163247.352500", "163248.842500", "163250.332500", "163251.822500", "163253.312500", "163254.802500", "163256.292500", "163257.782500", "163259.272500", "163300.762500", "163302.252500", "163303.742500", "163305.232500", "163306.722500", "163308.212500", "163309.702500", "163311.192500", "163312.682500", "163314.172500", "163315.662500", "163317.152500", "163318.642500", "163320.132500", "163321.622500", "163323.112500", "163324.602500", "163326.092500", "163327.582500", "163329.072500", "163330.562500", "163332.052500", "163333.542500", "163335.032500", "163336.522500", "163338.012500", "163339.502500", "163340.992500", "163342.482500", "163343.972500", "163345.462500", "163346.952500", "163348.442500", "163349.932500", "163351.422500", "163352.912500", "163354.402500", "163355.892500", "163357.382500", "163358.872500", "163400.362500", "163401.852500", "163403.342500", "163404.832500", "163406.322500", "163407.812500", "163409.302500", "163410.792500", "163412.282500", "163413.772500", "163415.262500", "163416.752500", "163418.242500", "163419.732500", "163421.222500", "163422.712500", "163424.202500", "163425.692500", "163427.182500", "163428.672500", "163430.162500", "163431.652500", "163433.142500", "163434.632500", "163436.122500", "163437.612500", "163439.102500", "163440.592500", "163442.082500", "163443.572500", "163445.062500", "163446.552500", "163448.042500", "163449.532500", "163451.022500", "163452.512500", "163454.002500", "163455.492500", "163456.982500", "163458.472500", "163459.962500", "163501.452500", "163502.942500", "163504.432500", "163505.922500", "163507.412500", "163508.902500", "163510.392500", "163511.882500", "163513.372500", "163514.862500", "163516.352500", "163517.842500", "163519.332500", "163520.822500", "163522.312500", "163523.802500", "163525.292500", "163526.782500", "163528.272500", "163529.762500", "163531.252500", "163532.742500", "163534.232500", "163535.722500", "163537.212500", "163538.702500", "163540.192500", "163541.682500", "163543.172500", "163544.662500", "163546.152500", "163547.642500", "163549.132500", "163550.622500", "163552.112500", "163553.602500", "163555.092500", "163556.582500", "163558.072500", "163559.562500", "163601.052500", "163602.542500", "163604.032500", "163605.522500", "163607.012500", "163608.502500", "163609.992500", "163611.482500", "163612.972500", "163614.462500", "163615.952500", "163617.442500", "163618.932500"],
      "ContentTime": ["162626.366000", "162626.369000", "162626.371000", "162626.374000", "162626.376000", "162626.379000", "162626.381000", "162626.384000", "162626.386000", "162626.389000", "162626.391000", "162626.394000", "162626.396000", "162626.399000", "162626.401000", "162626.404000", "162626.406000", "162626.409000", "162626.411000", "162626.414000", "162626.416000", "162626.419000", "162626.421000", "162626.424000", "162626.427000", "162626.429000", "162646.347000", "162646.350000", "162646.353000", "162646.355000", "162646.358000", "162646.360000", "162646.363000", "162646.365000", "162646.368000", "162646.370000", "162646.373000", "162646.375000", "162646.378000", "162646.380000", "162646.383000", "162646.385000", "162646.388000", "162646.391000", "162646.393000", "162646.396000", "162706.306000", "162706.309000", "162706.311000", "162706.314000", "162706.316000", "162706.319000", "162706.321000", "162706.324000", "162706.326000", "162706.329000", "162706.331000", "162706.334000", "162706.336000", "162706.339000", "162706.341000", "162706.344000", "162706.346000", "162706.349000", "162706.351000", "162706.354000", "162726.298000", "162726.301000", "162726.303000", "162726.306000", "162726.308000", "162726.311000", "162726.323000", "162726.325000", "162726.327000", "162726.330000", "162726.332000", "162726.335000", "162726.337000", "162726.340000", "162726.342000", "162726.345000", "162726.347000", "162726.350000", "162726.352000", "162726.355000", "162806.352000", "162806.354000", "162806.357000", "162806.359000", "162806.362000", "162806.364000", "162806.367000", "162806.369000", "162806.372000", "162806.375000", "162806.377000", "162806.380000", "162806.382000", "162806.385000", "162806.387000", "162806.390000", "162806.392000", "162806.395000", "162806.397000", "162806.400000", "162806.402000", "162806.405000", "162806.407000", "162806.410000", "162806.412000", "162806.415000", "162806.417000", "162806.420000", "162806.422000", "162806.425000", "162846.313000", "162846.316000", "162846.318000", "162846.321000", "162846.323000", "162846.326000", "162846.328000", "162846.331000", "162846.333000", "162846.336000", "162846.338000", "162846.341000", "162846.344000", "162846.346000", "162846.349000", "162846.351000", "162846.354000", "162846.356000", "162846.359000", "162846.361000", "162846.364000", "162846.366000", "162846.369000", "162846.371000", "162846.374000", "162846.376000", "162846.379000", "162906.278000", "162906.280000", "162906.283000", "162906.285000", "162906.288000", "162906.291000", "162906.293000", "162906.296000", "162906.298000", "162906.301000", "162906.303000", "162906.306000", "162906.308000", "162946.451000", "162946.454000", "162946.456000", "162946.459000", "162946.461000", "162946.464000", "162946.466000", "162946.469000", "162946.471000", "162946.474000", "162946.476000", "162946.479000", "162946.481000", "162946.484000", "162946.487000", "162946.489000", "162946.492000", "162946.494000", "162946.497000", "162946.499000", "162946.502000", "162946.504000", "162946.507000", "162946.509000", "162946.512000", "162946.514000", "162946.517000", "163026.339000", "163026.342000", "163026.344000", "163026.347000", "163026.349000", "163026.352000", "163026.354000", "163026.357000", "163026.359000", "163026.362000", "163026.364000", "163026.367000", "163026.369000", "163026.372000", "163026.374000", "163026.377000", "163026.379000", "163026.382000", "163026.384000", "163026.393000", "163026.395000", "163026.398000", "163026.400000", "163026.403000", "163026.406000", "163026.408000", "163026.411000", "163106.358000", "163106.360000", "163106.363000", "163106.366000", "163106.368000", "163106.370000", "163106.373000", "163106.376000", "163106.378000", "163106.381000", "163106.383000", "163106.386000", "163106.388000", "163106.391000", "163106.393000", "163106.396000", "163106.398000", "163106.401000", "163106.403000", "163106.406000", "163106.408000", "163106.411000", "163106.413000", "163106.416000", "163106.418000", "163106.421000", "163146.332000", "163146.335000", "163146.337000", "163146.340000", "163146.342000", "163146.345000", "163146.347000", "163146.350000", "163146.353000", "163146.355000", "163146.358000", "163146.360000", "163146.363000", "163146.365000", "163146.368000", "163146.370000", "163146.373000", "163146.375000", "163146.378000", "163146.381000", "163146.383000", "163146.386000", "163146.388000", "163146.391000", "163146.393000", "163146.396000", "163146.399000", "163226.346000", "163226.348000", "163226.351000", "163226.353000", "163226.356000", "163226.358000", "163226.361000", "163226.363000", "163226.366000", "163226.368000", "163226.371000", "163226.373000", "163226.376000", "163226.378000", "163226.381000", "163226.383000", "163226.386000", "163226.388000", "163226.391000", "163226.394000", "163226.396000", "163226.399000", "163226.401000", "163226.404000", "163226.407000", "163226.409000", "163226.412000", "163306.336000", "163306.339000", "163306.341000", "163306.344000", "163306.346000", "163306.349000", "163306.351000", "163306.354000", "163306.356000", "163306.359000", "163306.361000", "163306.364000", "163306.366000", "163306.369000", "163306.371000", "163306.374000", "163306.376000", "163306.379000", "163306.381000", "163306.384000", "163306.387000", "163306.389000", "163306.392000", "163306.394000", "163306.397000", "163306.399000", "163306.402000", "163346.339000", "163346.342000", "163346.345000", "163346.347000", "163346.350000", "163346.352000", "163346.355000", "163346.357000", "163346.360000", "163346.362000", "163346.365000", "163346.367000", "163346.370000", "163346.372000", "163346.375000", "163346.378000", "163346.380000", "163346.383000", "163346.385000", "163346.388000", "163346.390000", "163346.393000", "163346.395000", "163346.398000", "163346.400000", "163346.403000", "163346.405000", "163426.336000", "163426.339000", "163426.341000", "163426.344000", "163426.346000", "163426.349000", "163426.351000", "163426.354000", "163426.356000", "163426.359000", "163426.361000", "163426.364000", "163426.367000", "163426.369000", "163426.372000", "163426.374000", "163426.377000", "163426.379000", "163426.382000", "163426.384000", "163426.387000", "163426.390000", "163426.393000", "163426.395000", "163426.398000", "163426.400000", "163426.403000", "163506.355000", "163506.358000", "163506.361000", "163506.363000", "163506.366000", "163506.368000", "163506.371000", "163506.373000", "163506.376000", "163506.379000", "163506.381000", "163506.384000", "163506.386000", "163506.389000", "163506.391000", "163506.393000", "163506.396000", "163506.399000", "163506.401000", "163506.404000", "163506.406000", "163506.409000", "163506.411000", "163506.414000", "163506.416000", "163506.419000", "163506.421000", "163546.500000", "163546.503000", "163546.506000", "163546.508000", "163546.511000", "163546.513000", "163546.516000", "163546.518000", "163546.521000", "163546.523000", "163546.526000", "163546.528000", "163546.531000", "163546.533000", "163546.536000", "163546.538000", "163546.541000", "163546.543000", "163546.546000", "163546.548000", "163546.551000", "163546.554000", "163546.556000", "163546.559000", "163546.561000", "163546.564000", "163621.387000", "163621.389000", "163621.392000", "163621.394000", "163621.397000", "163621.400000", "163621.402000", "163621.405000", "163621.407000", "163621.410000", "163621.412000", "163621.415000", "163621.417000", "163621.420000", "163621.422000", "163621.425000", "163621.427000", "163621.430000", "163621.432000", "163621.435000", "163621.437000", "163621.440000", "163621.442000", "163621.445000"],
