{
  "AcquisitionMatrixPE": 104,
  "AcquisitionNumber": 1,
  "AcquisitionTime": "17:21:36.342500",
  "BandwidthPerPixelPhaseEncode": 17.17,
  "BaseResolution": 104,
  "BodyPartExamined": "BRAIN",
  "CoilCombinationMethod": "Sum of Squares",
  "ConsistencyInfo": "N4_VE11C_LATEST_20160120",
  "ConversionSoftware": "dcm2niix",
  "ConversionSoftwareVersion": "v1.0.20211006",
  "DerivedVendorReportedEchoSpacing": 0.000560011,
  "DeviceSerialNumber": "167006",
  "DwellTime": 2.1e-06,
  "EchoTime": 0.037,
  "EchoTrainLength": 104,
  "EffectiveEchoSpacing": 0.000560011,
  "FlipAngle": 52,
  "HeudiconvVersion": "0.11.3.post9+gc939bf8",
  "ImageComments": "Unaliased MB4/PE3/LB",
  "ImageOrientationPatientDICOM": [0.999878, -0.0156049, -0.00119442, 0.0139619, 0.923874, -0.382443],
  "ImageOrientationText": "Tra>Cor(-22.5)>Sag(-0.4)",
  "ImageType": [
    "ORIGINAL",
    "PRIMARY",
    "M",
    "MB",
    "ND",
    "MOSAIC"
],
  "ImagingFrequency": 123.259,
  "InPlanePhaseEncodingDirectionDICOM": "COL",
  "InstitutionAddress": "Chemin Queen-Mary 4565,Montreal,District,CA,H3W 1W5",
  "InstitutionName": "IUGM",
  "InstitutionalDepartmentName": "Department",
  "MRAcquisitionType": "2D",
  "MagneticFieldStrength": 3,
  "Manufacturer": "Siemens",
  "ManufacturersModelName": "Prisma_fit",
  "MatrixCoilMode": "SENSE",
  "Modality": "MR",
  "MultibandAccelerationFactor": 4,
  "PartialFourier": 1,
  "PatientPosition": "HFS",
  "PercentPhaseFOV": 100,
  "PercentSampling": 100,
  "PhaseEncodingDirection": "j",
  "PhaseEncodingSteps": 104,
  "PhaseResolution": 1,
  "PixelBandwidth": 2290,
  "ProcedureStepDescription": "games^mario",
  "ProtocolName": "func_task-mario_run-05",
  "PulseSequenceDetails": "%CustomerSeq%\\cmrr_mbep2d_bold",
  "ReceiveCoilActiveElements": "HC1-7;NC1,2",
  "ReceiveCoilName": "HeadNeck_64",
  "ReconMatrixPE": 104,
  "RepetitionTime": 1.49,
  "SAR": 0.0630849,
  "ScanOptions": "FS",
  "ScanningSequence": "EP",
  "SequenceName": "epfid2d1_104",
  "SequenceVariant": "SK\\SS",
  "SeriesDescription": "func_task-mario_run-05",
  "SeriesNumber": 22,
  "ShimSetting": [617, -7248, -8837, 371, 47, -325, 11, 20],
  "SliceThickness": 2,
  "SliceTiming": [0, 0.785, 0.1, 0.8825, 0.1975, 0.98, 0.295, 1.08, 0.3925, 1.1775, 0.49, 1.275, 0.59, 1.3725, 0.6875, 0, 0.785, 0.1, 0.8825, 0.1975, 0.98, 0.295, 1.08, 0.3925, 1.1775, 0.49, 1.275, 0.59, 1.3725, 0.6875, 0, 0.785, 0.1, 0.8825, 0.1975, 0.98, 0.295, 1.08, 0.3925, 1.1775, 0.49, 1.275, 0.59, 1.3725, 0.6875, 0, 0.785, 0.1, 0.8825, 0.1975, 0.98, 0.295, 1.08, 0.3925, 1.1775, 0.49, 1.275, 0.59, 1.3725, 0.6875],
  "SoftwareVersions": "syngo MR E11",
  "SpacingBetweenSlices": 2,
  "StationName": "MRC35049",
  "TaskName": "mario",
  "TotalReadoutTime": 0.0576811,
  "TxRefAmp": 277.005,
  "WipMemBlock": "d5e2b1cd-e709-4efc-930e-70fbb7f679b8||Sequence: R017 ve11c/master r/75a17815+; Jun 28 2022 16:32:11 by eja",
  "dcmmeta_affine": [
    [-1.9997550249099731, 0.027923734858632088, -0.014142932370305061, 102.2411880493164],
    [0.031209789216518402, 1.847747564315796, -0.7647581100463867, -62.15938949584961],
    [-0.002388832625001669, 0.7648851275444031, 1.8479570150375366, -71.06721496582031],
    [0.0, 0.0, 0.0, 1.0]
],
  "dcmmeta_reorient_transform": [
    [0.0, -1.0, 0.0, 103.0],
    [1.0, 0.0, 0.0, 0.0],
    [0.0, 0.0, 1.0, 0.0],
    [0.0, 0.0, 0.0, 1.0]
],
  "dcmmeta_shape": [104, 104, 60, 449],
  "dcmmeta_slice_dim": 2,
  "dcmmeta_version": 0.6,
  "global": {
    "const": {
      "AcquisitionMatrix": [104, 0, 0, 104],
      "AngioFlag": "N",
      "BitsAllocated": 16,
      "BitsStored": 16,
      "BodyPartExamined": "BRAIN",
      "Columns": 832,
      "EchoNumbers": 1,
      "EchoTime": 37.0,
      "EchoTrainLength": 104,
      "FlipAngle": 52.0,
      "HighBit": 15,
      "ImageOrientationPatient": [0.99987752281239, -0.0156048948835, -0.0011944162774, 0.01396186743921, 0.9238737699755, -0.3824425753089],
      "ImagePositionPatient": [-843.19240675648, -789.3783468073, 287.0036840615],
      "ImageType": [
        "ORIGINAL",
        "PRIMARY",
        "M",
        "MB",
        "ND",
        "MOSAIC"
],
      "ImagedNucleus": "1H",
      "ImagingFrequency": 123.258794,
      "InPlanePhaseEncodingDirection": "COL",
      "MRAcquisitionType": "2D",
      "MagneticFieldStrength": 3.0,
      "Manufacturer": "SIEMENS",
      "ManufacturerModelName": "Prisma_fit",
      "Modality": "MR",
      "NumberOfAverages": 1.0,
      "NumberOfPhaseEncodingSteps": 104,
      "PercentPhaseFieldOfView": 100.0,
      "PercentSampling": 100.0,
      "PerformedProcedureStepStartTime": "160807.646000",
      "PhotometricInterpretation": "MONOCHROME2",
      "PixelBandwidth": 2290.0,
      "PixelRepresentation": 0,
      "PixelSpacing": [2.0, 2.0],
      "ProtocolName": "func_task-mario_run-05",
      "RepetitionTime": 1490.0,
      "Rows": 832,
      "SAR": 0.06308494393453,
      "SamplesPerPixel": 1,
      "ScanOptions": "FS",
      "ScanningSequence": "EP",
      "SequenceName": "epfid2d1_104",
      "SequenceVariant": [
        "SK",
        "SS"
],
      "SeriesDescription": "func_task-mario_run-05",
      "SeriesNumber": 22,
      "SeriesTime": "172255.768000",
      "SliceLocation": -42.619124943575,
      "SliceThickness": 2.0,
      "SmallestImagePixelValue": 0,
      "SoftwareVersions": "syngo MR E11",
      "SpacingBetweenSlices": 1.9999999952084,
      "SpecificCharacterSet": "ISO_IR 100",
      "StudyID": "1",
      "StudyTime": "160807.553000",
      "TransmitCoilName": "Body",
      "VariableFlipAngleFlag": "N",
      "WindowCenterWidthExplanation": "Algo1",
      "dBdt": 0.0},
    "slices": {}
  },
  "time": {
    "samples": {
      "AcquisitionNumber": [1, 2, 3, 4, 5, 6, 7, 8, 9, 10, 11, 12, 13, 14, 15, 16, 17, 18, 19, 20, 21, 22, 23, 24, 25, 26, 27, 28, 29, 30, 31, 32, 33, 34, 35, 36, 37, 38, 39, 40, 41, 42, 43, 44, 45, 46, 47, 48, 49, 50, 51, 52, 53, 54, 55, 56, 57, 58, 59, 60, 61, 62, 63, 64, 65, 66, 67, 68, 69, 70, 71, 72, 73, 74, 75, 76, 77, 78, 79, 80, 81, 82, 83, 84, 85, 86, 87, 88, 89, 90, 91, 92, 93, 94, 95, 96, 97, 98, 99, 100, 101, 102, 103, 104, 105, 106, 107, 108, 109, 110, 111, 112, 113, 114, 115, 116, 117, 118, 119, 120, 121, 122, 123, 124, 125, 126, 127, 128, 129, 130, 131, 132, 133, 134, 135, 136, 137, 138, 139, 140, 141, 142, 143, 144, 145, 146, 147, 148, 149, 150, 151, 152, 153, 154, 155, 156, 157, 158, 159, 160, 161, 162, 163, 164, 165, 166, 167, 168, 169, 170, 171, 172, 173, 174, 175, 176, 177, 178, 179, 180, 181, 182, 183, 184, 185, 186, 187, 188, 189, 190, 191, 192, 193, 194, 195, 196, 197, 198, 199, 200, 201, 202, 203, 204, 205, 206, 207, 208, 209, 210, 211, 212, 213, 214, 215, 216, 217, 218, 219, 220, 221, 222, 223, 224, 225, 226, 227, 228, 229, 230, 231, 232, 233, 234, 235, 236, 237, 238, 239, 240, 241, 242, 243, 244, 245, 246, 247, 248, 249, 250, 251, 252, 253, 254, 255, 256, 257, 258, 259, 260, 261, 262, 263, 264, 265, 266, 267, 268, 269, 270, 271, 272, 273, 274, 275, 276, 277, 278, 279, 280, 281, 282, 283, 284, 285, 286, 287, 288, 289, 290, 291, 292, 293, 294, 295, 296, 297, 298, 299, 300, 301, 302, 303, 304, 305, 306, 307, 308, 309, 310, 311, 312, 313, 314, 315, 316, 317, 318, 319, 320, 321, 322, 323, 324, 325, 326, 327, 328, 329, 330, 331, 332, 333, 334, 335, 336, 337, 338, 339, 340, 341, 342, 343, 344, 345, 346, 347, 348, 349, 350, 351, 352, 353, 354, 355, 356, 357, 358, 359, 360, 361, 362, 363, 364, 365, 366, 367, 368, 369, 370, 371, 372, 373, 374, 375, 376, 377, 378, 379, 380, 381, 382, 383, 384, 385, 386, 387, 388, 389, 390, 391, 392, 393, 394, 395, 396, 397, 398, 399, 400, 401, 402, 403, 404, 405, 406, 407, 408, 409, 410, 411, 412, 413, 414, 415, 416, 417, 418, 419, 420, 421, 422, 423, 424, 425, 426, 427, 428, 429, 430, 431, 432, 433, 434, 435, 436, 437, 438, 439, 440, 441, 442, 443, 444, 445, 446, 447, 448, 449],
      "AcquisitionTime": ["172136.342500", "172137.832500", "172139.322500", "172140.812500", "172142.302500", "172143.792500", "172145.282500", "172146.772500", "172148.262500", "172149.752500", "172151.242500", "172152.732500", "172154.222500", "172155.712500", "172157.202500", "172158.692500", "172200.182500", "172201.672500", "172203.162500", "172204.652500", "172206.142500", "172207.632500", "172209.122500", "172210.612500", "172212.102500", "172213.592500", "172215.082500", "172216.572500", "172218.062500", "172219.552500", "172221.042500", "172222.532500", "172224.022500", "172225.512500", "172227.002500", "172228.492500", "172229.982500", "172231.472500", "172232.962500", "172234.452500", "172235.942500", "172237.432500", "172238.922500", "172240.412500", "172241.902500", "172243.392500", "172244.882500", "172246.372500", "172247.862500", "172249.352500", "172250.842500", "172252.332500", "172253.822500", "172255.312500", "172256.802500", "172258.292500", "172259.782500", "172301.272500", "172302.762500", "172304.252500", "172305.742500", "172307.232500", "172308.722500", "172310.212500", "172311.702500", "172313.192500", "172314.682500", "172316.172500", "172317.662500", "172319.152500", "172320.642500", "172322.132500", "172323.622500", "172325.112500", "172326.602500", "172328.092500", "172329.582500", "172331.072500", "172332.562500", "172334.052500", "172335.542500", "172337.032500", "172338.522500", "172340.012500", "172341.502500", "172342.992500", "172344.482500", "172345.972500", "172347.462500", "172348.952500", "172350.442500", "172351.932500", "172353.422500", "172354.912500", "172356.402500", "172357.892500", "172359.382500", "172400.872500", "172402.362500", "172403.852500", "172405.342500", "172406.832500", "172408.322500", "172409.812500", "172411.302500", "172412.792500", "172414.282500", "172415.772500", "172417.262500", "172418.752500", "172420.242500", "172421.732500", "172423.222500", "172424.712500", "172426.202500", "172427.692500", "172429.182500", "172430.672500", "172432.162500", "172433.652500", "172435.142500", "172436.632500", "172438.122500", "172439.612500", "172441.102500", "172442.592500", "172444.082500", "172445.572500", "172447.062500", "172448.552500", "172450.042500", "172451.532500", "172453.022500", "172454.512500", "172456.002500", "172457.492500", "172458.982500", "172500.472500", "172501.962500", "172503.452500", "172504.942500", "172506.432500", "172507.922500", "172509.412500", "172510.902500", "172512.392500", "172513.882500", "172515.372500", "172516.862500", "172518.352500", "172519.842500", "172521.332500", "172522.822500", "172524.312500", "172525.802500", "172527.292500", "172528.782500", "172530.272500", "172531.762500", "172533.252500", "172534.742500", "172536.232500", "172537.722500", "172539.212500", "172540.702500", "172542.192500", "172543.682500", "172545.172500", "172546.662500", "172548.152500", "172549.642500", "172551.132500", "172552.622500", "172554.112500", "172555.602500", "172557.092500", "172558.582500", "172600.072500", "172601.562500", "172603.052500", "172604.542500", "172606.032500", "172607.522500", "172609.012500", "172610.502500", "172611.992500", "172613.482500", "172614.972500", "172616.462500", "172617.952500", "172619.442500", "172620.932500", "172622.422500", "172623.912500", "172625.402500", "172626.892500", "172628.382500", "172629.872500", "172631.362500", "172632.852500", "172634.342500", "172635.832500", "172637.322500", "172638.812500", "172640.302500", "172641.792500", "172643.282500", "172644.772500", "172646.262500", "172647.752500", "172649.242500", "172650.732500", "172652.222500", "172653.712500", "172655.202500", "172656.692500", "172658.182500", "172659.672500", "172701.162500", "172702.652500", "172704.142500", "172705.632500", "172707.122500", "172708.612500", "172710.102500", "172711.592500", "172713.082500", "172714.572500", "172716.062500", "172717.552500", "172719.042500", "172720.532500", "172722.022500", "172723.512500", "172725.002500", "172726.492500", "172727.982500", "172729.472500", "172730.962500", "172732.452500", "172733.942500", "172735.432500", "172736.922500", "172738.412500", "172739.902500", "172741.392500", "172742.882500", "172744.372500", "172745.862500", "172747.352500", "172748.842500", "172750.332500", "172751.822500", "172753.312500", "172754.802500", "172756.292500", "172757.782500", "172759.272500", "172800.762500", "172802.252500", "172803.742500", "172805.232500", "172806.722500", "172808.212500", "172809.702500", "172811.192500", "172812.682500", "172814.172500", "172815.662500", "172817.152500", "172818.642500", "172820.132500", "172821.622500", "172823.112500", "172824.602500", "172826.092500", "172827.582500", "172829.072500", "172830.562500", "172832.052500", "172833.542500", "172835.032500", "172836.522500", "172838.012500", "172839.502500", "172840.992500", "172842.482500", "172843.972500", "172845.462500", "172846.952500", "172848.442500", "172849.932500", "172851.422500", "172852.912500", "172854.402500", "172855.892500", "172857.382500", "172858.872500", "172900.362500", "172901.852500", "172903.342500", "172904.832500", "172906.322500", "172907.812500", "172909.302500", "172910.792500", "172912.282500", "172913.772500", "172915.262500", "172916.752500", "172918.242500", "172919.732500", "172921.222500", "172922.712500", "172924.202500", "172925.692500", "172927.182500", "172928.672500", "172930.162500", "172931.652500", "172933.142500", "172934.632500", "172936.122500", "172937.612500", "172939.102500", "172940.592500", "172942.082500", "172943.572500", "172945.062500", "172946.552500", "172948.042500", "172949.532500", "172951.022500", "172952.512500", "172954.002500", "172955.492500", "172956.982500", "172958.472500", "172959.962500", "173001.452500", "173002.942500", "173004.432500", "173005.922500", "173007.412500", "173008.902500", "173010.392500", "173011.882500", "173013.372500", "173014.862500", "173016.352500", "173017.842500", "173019.332500", "173020.822500", "173022.312500", "173023.802500", "173025.292500", "173026.782500", "173028.272500", "173029.762500", "173031.252500", "173032.742500", "173034.232500", "173035.722500", "173037.212500", "173038.702500", "173040.192500", "173041.682500", "173043.172500", "173044.662500", "173046.152500", "173047.642500", "173049.132500", "173050.622500", "173052.112500", "173053.602500", "173055.092500", "173056.582500", "173058.072500", "173059.562500", "173101.052500", "173102.542500", "173104.032500", "173105.522500", "173107.012500", "173108.502500", "173109.992500", "173111.482500", "173112.972500", "173114.462500", "173115.952500", "173117.442500", "173118.932500", "173120.422500", "173121.912500", "173123.402500", "173124.892500", "173126.382500", "173127.872500", "173129.362500", "173130.852500", "173132.342500", "173133.832500", "173135.322500", "173136.812500", "173138.302500", "173139.792500", "173141.282500", "173142.772500", "173144.262500", "173145.752500", "173147.242500", "173148.732500", "173150.222500", "173151.712500", "173153.202500", "173154.692500", "173156.182500", "173157.672500", "173159.162500", "173200.652500", "173202.142500", "173203.632500", "173205.122500", "173206.612500", "173208.102500", "173209.592500", "173211.082500", "173212.572500", "173214.062500", "173215.552500", "173217.042500", "173218.532500", "173220.022500", "173221.512500", "173223.002500", "173224.492500", "173225.982500", "173227.472500", "173228.962500", "173230.452500", "173231.942500", "173233.432500", "173234.922500", "173236.412500", "173237.902500", "173239.392500", "173240.882500", "173242.372500", "173243.862500"],
      "ContentTime": ["172255.772000", "172255.775000", "172255.779000", "172255.782000", "172255.785000", "172255.789000", "172255.792000", "172255.796000", "172255.799000", "172255.812000", "172255.815000", "172255.819000", "172255.822000", "172255.834000", "172255.837000", "172255.840000", "172255.844000", "172255.847000", "172255.850000", "172255.854000", "172255.857000", "172255.860000", "172255.864000", "172255.867000", "172255.870000", "172255.874000", "172255.877000", "172255.880000", "172255.894000", "172255.897000", "172255.900000", "172315.732000", "172315.736000", "172315.739000", "172315.742000", "172315.746000", "172315.749000", "172315.753000", "172315.756000", "172315.759000", "172315.763000", "172315.766000", "172315.769000", "172315.773000", "172315.776000", "172315.779000", "172315.783000", "172315.786000", "172315.790000", "172315.793000", "172315.796000", "172335.733000", "172335.737000", "172335.740000", "172335.744000", "172335.747000", "172335.750000", "172335.754000", "172335.757000", "172335.760000", "172335.764000", "172335.767000", "172335.770000", "172335.774000", "172335.777000", "172335.780000", "172335.784000", "172335.787000", "172335.791000", "172335.794000", "172335.797000", "172355.733000", "172355.737000", "172355.740000", "172355.744000", "172355.747000", "172355.750000", "172355.754000", "172355.757000", "172355.760000", "172355.764000", "172355.767000", "172355.778000", "172355.781000", "172355.784000", "172355.788000", "172355.791000", "172355.794000", "172355.798000", "172355.801000", "172355.804000", "172435.732000", "172435.736000", "172435.739000", "172435.743000", "172435.746000", "172435.749000", "172435.753000", "172435.756000", "172435.760000", "172435.764000", "172435.767000", "172435.771000", "172435.774000", "172435.777000", "172435.781000", "172435.784000", "172435.788000", "172435.791000", "172435.794000", "172435.798000", "172435.801000", "172435.804000", "172435.807000", "172435.811000", "172435.814000", "172435.818000", "172435.821000", "172435.824000", "172515.747000", "172515.750000", "172515.754000", "172515.757000", "172515.760000", "172515.764000", "172515.767000", "172515.770000", "172515.774000", "172515.777000", "172515.781000", "172515.784000", "172515.787000", "172515.791000", "172515.794000", "172515.797000", "172515.801000", "172515.804000", "172515.807000", "172515.811000", "172515.814000", "172515.817000", "172515.821000", "172515.824000", "172515.828000", "172515.831000", "172515.834000", "172555.733000", "172555.737000", "172555.740000", "172555.744000", "172555.747000", "172555.750000", "172555.754000", "172555.757000", "172555.761000", "172555.764000", "172555.767000", "172555.771000", "172555.774000", "172555.777000", "172555.781000", "172555.794000", "172555.798000", "172555.801000", "172555.804000", "172555.808000", "172555.811000", "172555.814000", "172555.818000", "172555.821000", "172555.825000", "172555.828000", "172555.831000", "172635.733000", "172635.737000", "172635.740000", "172635.744000", "172635.747000", "172635.750000", "172635.754000", "172635.757000", "172635.761000", "172635.764000", "172635.767000", "172635.771000", "172635.774000", "172635.777000", "172635.781000", "172635.784000", "172635.788000", "172635.791000", "172635.794000", "172635.798000", "172635.801000", "172635.804000", "172635.808000", "172635.811000", "172635.815000", "172635.818000", "172635.821000", "172715.732000", "172715.736000", "172715.739000", "172715.743000", "172715.746000", "172715.749000", "172715.753000", "172715.756000", "172715.760000", "172715.763000", "172715.766000", "172715.770000", "172715.773000", "172715.777000", "172715.780000", "172715.783000", "172715.787000", "172715.790000", "172715.793000", "172715.797000", "172715.800000", "172715.813000", "172715.816000", "172715.820000", "172715.823000", "172715.826000", "172715.830000", "172755.732000", "172755.736000", "172755.739000", "172755.743000", "172755.746000", "172755.749000", "172755.753000", "172755.756000", "172755.760000", "172755.763000", "172755.767000", "172755.770000", "172755.773000", "172755.777000", "172755.780000", "172755.784000", "172755.787000", "172755.790000", "172755.794000", "172755.797000", "172755.800000", "172755.804000", "172755.807000", "172755.811000", "172755.814000", "172755.817000", "172755.821000", "172835.733000", "172835.737000", "172835.741000", "172835.744000", "172835.748000", "172835.751000", "172835.754000", "172835.758000", "172835.761000", "172835.765000", "172835.768000", "172835.772000", "172835.775000", "172835.779000", "172835.789000", "172835.792000", "172835.796000", "172835.799000", "172835.802000", "172835.806000", "172835.809000", "172835.813000", "172835.816000", "172835.819000", "172835.823000", "172835.826000", "172915.732000", "172915.736000", "172915.739000", "172915.743000", "172915.746000", "172915.750000", "172915.753000", "172915.757000", "172915.760000", "172915.763000", "172915.767000", "172915.770000", "172915.773000", "172915.777000", "172915.780000", "172915.784000", "172915.787000", "172915.790000", "172915.794000", "172915.797000", "172915.800000", "172915.804000", "172915.807000", "172915.811000", "172915.814000", "172915.817000", "172915.820000", "172955.732000", "172955.736000", "172955.739000", "172955.743000", "172955.746000", "172955.749000", "172955.764000", "172955.767000", "172955.771000", "172955.774000", "172955.778000", "172955.781000", "172955.784000", "172955.788000", "172955.791000", "172955.795000", "172955.798000", "172955.801000", "172955.805000", "172955.808000", "172955.811000", "172955.815000", "172955.818000", "172955.821000", "172955.825000", "172955.828000", "172955.832000", "173035.733000", "173035.737000", "173035.740000", "173035.744000", "173035.747000", "173035.751000", "173035.754000", "173035.757000", "173035.761000", "173035.764000", "173035.768000", "173035.771000", "173035.774000", "173035.778000", "173035.781000", "173035.785000", "173035.788000", "173035.791000", "173035.795000", "173035.798000", "173035.801000", "173035.805000", "173035.808000", "173035.812000", "173035.815000", "173035.818000", "173035.822000", "173115.733000", "173115.737000", "173115.740000", "173115.744000", "173115.747000", "173115.750000", "173115.754000", "173115.757000", "173115.760000", "173115.764000", "173115.767000", "173115.770000", "173115.774000", "173115.777000", "173115.781000", "173115.784000", "173115.787000", "173115.791000", "173115.794000", "173115.797000", "173115.801000", "173115.804000", "173115.808000", "173115.811000", "173115.814000", "173115.818000", "173115.821000", "173155.732000", "173155.736000", "173155.739000", "173155.743000", "173155.746000", "173155.749000", "173155.753000", "173155.756000", "173155.759000", "173155.763000", "173155.766000", "173155.769000", "173155.773000", "173155.789000", "173155.792000", "173155.796000", "173155.799000", "173155.803000", "173155.806000", "173155.809000", "173155.813000", "173155.816000", "173155.819000", "173155.823000", "173155.826000", "173155.829000", "173155.833000", "173235.732000", "173235.736000", "173235.739000", "173235.743000", "173235.746000", "173235.750000", "173235.753000", "173235.756000", "173235.760000", "173235.763000", "173235.767000", "173235.770000", "173235.773000", "173235.777000", "173235.780000", "173235.783000", "173235.787000", "173235.790000", "173235.793000", "173235.797000", "173235.800000", "173235.804000", "173235.807000", "173235.810000", "173235.814000", "173235.817000", "173235.820000", "173247.394000", "173247.398000", "173247.401000", "173247.405000", "173247.408000", "173247.411000", "173247.415000"],
