{
  "AcquisitionMatrixPE": 104,
  "AcquisitionNumber": 1,
  "AcquisitionTime": "16:11:21.910000",
  "BandwidthPerPixelPhaseEncode": 17.17,
  "BaseResolution": 104,
  "BodyPartExamined": "BRAIN",
  "CoilString": "HC1-7;NC1_2",
  "ConsistencyInfo": "N4_VE11C_LATEST_20160120",
  "ConversionSoftware": "dcm2niix",
  "ConversionSoftwareVersion": "v1.0.20190902",
  "DerivedVendorReportedEchoSpacing": 0.000560011,
  "DeviceSerialNumber": "167006",
  "DwellTime": 2.1e-06,
  "EchoTime": 0.037,
  "EchoTrainLength": 104,
  "EffectiveEchoSpacing": 0.000560011,
  "FlipAngle": 52,
  "HeudiconvVersion": "0.10.0",
  "ImageComments": "Unaliased_MB4_PE3_LB",
  "ImageOrientationPatientDICOM": [0.999632, -0.0269129, -0.00339939, 0.024256, 0.942905, -0.332178],
  "ImageType": [
    "ORIGINAL",
    "PRIMARY",
    "M",
    "MB",
    "ND",
    "MOSAIC"
],
  "ImagingFrequency": 123.259,
  "InPlanePhaseEncodingDirectionDICOM": "COL",
  "InstitutionAddress": "Chemin_Queen-Mary_4565_Montreal_District_CA_H3W_1W5",
  "InstitutionName": "IUGM",
  "InstitutionalDepartmentName": "Department",
  "MRAcquisitionType": "2D",
  "MagneticFieldStrength": 3,
  "Manufacturer": "Siemens",
  "ManufacturersModelName": "Prisma_fit",
  "Modality": "MR",
  "MultibandAccelerationFactor": 4,
  "PartialFourier": 1,
  "PatientPosition": "HFS",
  "PercentPhaseFOV": 100,
  "PhaseEncodingDirection": "j",
  "PhaseEncodingSteps": 104,
  "PhaseResolution": 1,
  "PixelBandwidth": 2290,
  "ProcedureStepDescription": "games_mario",
  "ProtocolName": "func_task-mario_run-02",
  "PulseSequenceDetails": "%CustomerSeq%_cmrr_mbep2d_bold",
  "ReceiveCoilActiveElements": "HC1-7;NC1,2",
  "ReceiveCoilName": "HeadNeck_64",
  "ReconMatrixPE": 104,
  "RepetitionTime": 1.49,
  "SAR": 0.0528463,
  "ScanOptions": "FS",
  "ScanningSequence": "EP",
  "SequenceName": "epfid2d1_104",
  "SequenceVariant": "SK_SS",
  "SeriesDescription": "func_task-mario_run-02",
  "SeriesNumber": 22,
  "ShimSetting": [630, -7243, -8815, 595, -2, -178, -75, -24],
  "SliceThickness": 2,
  "SliceTiming": [0, 0.785, 0.0975, 0.8825, 0.1975, 0.98, 0.295, 1.0775, 0.3925, 1.1775, 0.49, 1.275, 0.5875, 1.3725, 0.6875, 0, 0.785, 0.0975, 0.8825, 0.1975, 0.98, 0.295, 1.0775, 0.3925, 1.1775, 0.49, 1.275, 0.5875, 1.3725, 0.6875, 0, 0.785, 0.0975, 0.8825, 0.1975, 0.98, 0.295, 1.0775, 0.3925, 1.1775, 0.49, 1.275, 0.5875, 1.3725, 0.6875, 0, 0.785, 0.0975, 0.8825, 0.1975, 0.98, 0.295, 1.0775, 0.3925, 1.1775, 0.49, 1.275, 0.5875, 1.3725, 0.6875],
  "SoftwareVersions": "syngo_MR_E11",
  "SpacingBetweenSlices": 2,
  "StationName": "MRC35049",
  "TaskName": "mario",
  "TotalReadoutTime": 0.0576811,
  "TxRefAmp": 266.579,
  "WipMemBlock": "a2f41928-726a-4190-b392-4772beee7e5c||Sequence: R016 ve11c/master r/e634e98; Dec 19 2017 11:00:25 by eja",
  "dcmmeta_affine": [
    [-1.9992640018463135, 0.048511967062950134, -0.024290306493639946, 104.56217956542969],
    [0.053825706243515015, 1.8858096599578857, -0.6639463305473328, -68.5252456665039],
    [-0.0067987763322889805, 0.6643556952476501, 1.8864212036132812, -59.84366989135742],
    [0.0, 0.0, 0.0, 1.0]
],
  "dcmmeta_reorient_transform": [
    [0.0, -1.0, 0.0, 103.0],
    [1.0, 0.0, 0.0, 0.0],
    [0.0, 0.0, 1.0, 0.0],
    [0.0, 0.0, 0.0, 1.0]
],
  "dcmmeta_shape": [104, 104, 60, 449],
  "dcmmeta_slice_dim": 2,
  "dcmmeta_version": 0.6,
  "global": {
    "const": {
      "AcquisitionMatrix": [104, 0, 0, 104],
      "AngioFlag": "N",
      "BitsAllocated": 16,
      "BitsStored": 16,
      "BodyPartExamined": "BRAIN",
      "Columns": 832,
      "EchoNumbers": 1,
      "EchoTime": 37.0,
      "EchoTrainLength": 104,
      "FlipAngle": 52.0,
      "HighBit": 15,
      "ImageOrientationPatient": [0.99963200353684, -0.0269128531585, -0.0033993881506, 0.02425598381286, 0.94290482825046, -0.3321778621631],
      "ImagePositionPatient": [-854.94937017031, -792.55530687331, 252.8852068771],
      "ImageType": [
        "ORIGINAL",
        "PRIMARY",
        "M",
        "MB",
        "ND",
        "MOSAIC"
],
      "ImagedNucleus": "1H",
      "ImagingFrequency": 123.2589,
      "InPlanePhaseEncodingDirection": "COL",
      "MRAcquisitionType": "2D",
      "MagneticFieldStrength": 3.0,
      "Manufacturer": "SIEMENS",
      "ManufacturerModelName": "Prisma_fit",
      "Modality": "MR",
      "NumberOfAverages": 1.0,
      "NumberOfPhaseEncodingSteps": 104,
      "PercentPhaseFieldOfView": 100.0,
      "PercentSampling": 100.0,
      "PerformedProcedureStepStartTime": "145427.423000",
      "PhotometricInterpretation": "MONOCHROME2",
      "PixelBandwidth": 2290.0,
      "PixelRepresentation": 0,
      "PixelSpacing": [2.0, 2.0],
      "ProtocolName": "func_task-mario_run-02",
      "RepetitionTime": 1490.0,
      "Rows": 832,
      "SAR": 0.0528462536377,
      "SamplesPerPixel": 1,
      "ScanOptions": "FS",
      "ScanningSequence": "EP",
      "SequenceName": "epfid2d1_104",
      "SequenceVariant": [
        "SK",
        "SS"
],
      "SeriesDescription": "func_task-mario_run-02",
      "SeriesNumber": 22,
      "SeriesTime": "161255.753000",
      "SliceLocation": -34.966568202451,
      "SliceThickness": 2.0,
      "SmallestImagePixelValue": 0,
      "SoftwareVersions": "syngo MR E11",
      "SpacingBetweenSlices": 1.9999999564391,
      "SpecificCharacterSet": "ISO_IR 100",
      "StudyID": "1",
      "StudyTime": "145427.339000",
      "TransmitCoilName": "Body",
      "VariableFlipAngleFlag": "N",
      "WindowCenterWidthExplanation": "Algo1",
      "dBdt": 0.0},
    "slices": {}
  },
  "time": {
    "samples": {
      "AcquisitionNumber": [1, 2, 3, 4, 5, 6, 7, 8, 9, 10, 11, 12, 13, 14, 15, 16, 17, 18, 19, 20, 21, 22, 23, 24, 25, 26, 27, 28, 29, 30, 31, 32, 33, 34, 35, 36, 37, 38, 39, 40, 41, 42, 43, 44, 45, 46, 47, 48, 49, 50, 51, 52, 53, 54, 55, 56, 57, 58, 59, 60, 61, 62, 63, 64, 65, 66, 67, 68, 69, 70, 71, 72, 73, 74, 75, 76, 77, 78, 79, 80, 81, 82, 83, 84, 85, 86, 87, 88, 89, 90, 91, 92, 93, 94, 95, 96, 97, 98, 99, 100, 101, 102, 103, 104, 105, 106, 107, 108, 109, 110, 111, 112, 113, 114, 115, 116, 117, 118, 119, 120, 121, 122, 123, 124, 125, 126, 127, 128, 129, 130, 131, 132, 133, 134, 135, 136, 137, 138, 139, 140, 141, 142, 143, 144, 145, 146, 147, 148, 149, 150, 151, 152, 153, 154, 155, 156, 157, 158, 159, 160, 161, 162, 163, 164, 165, 166, 167, 168, 169, 170, 171, 172, 173, 174, 175, 176, 177, 178, 179, 180, 181, 182, 183, 184, 185, 186, 187, 188, 189, 190, 191, 192, 193, 194, 195, 196, 197, 198, 199, 200, 201, 202, 203, 204, 205, 206, 207, 208, 209, 210, 211, 212, 213, 214, 215, 216, 217, 218, 219, 220, 221, 222, 223, 224, 225, 226, 227, 228, 229, 230, 231, 232, 233, 234, 235, 236, 237, 238, 239, 240, 241, 242, 243, 244, 245, 246, 247, 248, 249, 250, 251, 252, 253, 254, 255, 256, 257, 258, 259, 260, 261, 262, 263, 264, 265, 266, 267, 268, 269, 270, 271, 272, 273, 274, 275, 276, 277, 278, 279, 280, 281, 282, 283, 284, 285, 286, 287, 288, 289, 290, 291, 292, 293, 294, 295, 296, 297, 298, 299, 300, 301, 302, 303, 304, 305, 306, 307, 308, 309, 310, 311, 312, 313, 314, 315, 316, 317, 318, 319, 320, 321, 322, 323, 324, 325, 326, 327, 328, 329, 330, 331, 332, 333, 334, 335, 336, 337, 338, 339, 340, 341, 342, 343, 344, 345, 346, 347, 348, 349, 350, 351, 352, 353, 354, 355, 356, 357, 358, 359, 360, 361, 362, 363, 364, 365, 366, 367, 368, 369, 370, 371, 372, 373, 374, 375, 376, 377, 378, 379, 380, 381, 382, 383, 384, 385, 386, 387, 388, 389, 390, 391, 392, 393, 394, 395, 396, 397, 398, 399, 400, 401, 402, 403, 404, 405, 406, 407, 408, 409, 410, 411, 412, 413, 414, 415, 416, 417, 418, 419, 420, 421, 422, 423, 424, 425, 426, 427, 428, 429, 430, 431, 432, 433, 434, 435, 436, 437, 438, 439, 440, 441, 442, 443, 444, 445, 446, 447, 448, 449],
      "AcquisitionTime": ["161121.910000", "161123.400000", "161124.890000", "161126.380000", "161127.870000", "161129.360000", "161130.850000", "161132.340000", "161133.830000", "161135.320000", "161136.810000", "161138.300000", "161139.790000", "161141.280000", "161142.770000", "161144.260000", "161145.750000", "161147.240000", "161148.730000", "161150.220000", "161151.710000", "161153.200000", "161154.690000", "161156.180000", "161157.670000", "161159.160000", "161200.650000", "161202.140000", "161203.630000", "161205.120000", "161206.610000", "161208.100000", "161209.590000", "161211.080000", "161212.570000", "161214.060000", "161215.550000", "161217.040000", "161218.530000", "161220.020000", "161221.510000", "161223.000000", "161224.490000", "161225.980000", "161227.470000", "161228.960000", "161230.450000", "161231.940000", "161233.430000", "161234.920000", "161236.410000", "161237.900000", "161239.390000", "161240.880000", "161242.370000", "161243.860000", "161245.350000", "161246.840000", "161248.330000", "161249.820000", "161251.310000", "161252.800000", "161254.290000", "161255.780000", "161257.270000", "161258.760000", "161300.250000", "161301.740000", "161303.230000", "161304.720000", "161306.210000", "161307.700000", "161309.190000", "161310.680000", "161312.170000", "161313.660000", "161315.150000", "161316.640000", "161318.130000", "161319.620000", "161321.110000", "161322.600000", "161324.090000", "161325.580000", "161327.070000", "161328.560000", "161330.050000", "161331.540000", "161333.030000", "161334.520000", "161336.010000", "161337.500000", "161338.990000", "161340.480000", "161341.970000", "161343.460000", "161344.950000", "161346.440000", "161347.930000", "161349.420000", "161350.910000", "161352.400000", "161353.890000", "161355.380000", "161356.870000", "161358.360000", "161359.850000", "161401.340000", "161402.830000", "161404.320000", "161405.810000", "161407.300000", "161408.790000", "161410.280000", "161411.770000", "161413.260000", "161414.750000", "161416.240000", "161417.730000", "161419.220000", "161420.710000", "161422.200000", "161423.690000", "161425.180000", "161426.670000", "161428.160000", "161429.650000", "161431.140000", "161432.630000", "161434.120000", "161435.610000", "161437.100000", "161438.590000", "161440.080000", "161441.570000", "161443.060000", "161444.550000", "161446.040000", "161447.530000", "161449.020000", "161450.510000", "161452.000000", "161453.490000", "161454.980000", "161456.470000", "161457.960000", "161459.450000", "161500.940000", "161502.430000", "161503.920000", "161505.410000", "161506.900000", "161508.390000", "161509.880000", "161511.370000", "161512.860000", "161514.350000", "161515.840000", "161517.330000", "161518.820000", "161520.310000", "161521.800000", "161523.290000", "161524.780000", "161526.270000", "161527.760000", "161529.250000", "161530.740000", "161532.230000", "161533.720000", "161535.210000", "161536.700000", "161538.190000", "161539.680000", "161541.170000", "161542.660000", "161544.150000", "161545.640000", "161547.130000", "161548.620000", "161550.110000", "161551.600000", "161553.090000", "161554.580000", "161556.070000", "161557.560000", "161559.050000", "161600.540000", "161602.030000", "161603.520000", "161605.010000", "161606.500000", "161607.990000", "161609.480000", "161610.970000", "161612.460000", "161613.950000", "161615.440000", "161616.930000", "161618.420000", "161619.910000", "161621.400000", "161622.890000", "161624.380000", "161625.870000", "161627.360000", "161628.850000", "161630.340000", "161631.830000", "161633.320000", "161634.810000", "161636.300000", "161637.790000", "161639.280000", "161640.770000", "161642.260000", "161643.750000", "161645.240000", "161646.730000", "161648.220000", "161649.710000", "161651.200000", "161652.690000", "161654.180000", "161655.670000", "161657.160000", "161658.650000", "161700.140000", "161701.630000", "161703.120000", "161704.610000", "161706.100000", "161707.590000", "161709.080000", "161710.570000", "161712.060000", "161713.550000", "161715.040000", "161716.530000", "161718.020000", "161719.510000", "161721.000000", "161722.490000", "161723.980000", "161725.470000", "161726.960000", "161728.450000", "161729.940000", "161731.430000", "161732.920000", "161734.410000", "161735.900000", "161737.390000", "161738.880000", "161740.370000", "161741.860000", "161743.350000", "161744.840000", "161746.330000", "161747.820000", "161749.310000", "161750.800000", "161752.290000", "161753.780000", "161755.270000", "161756.760000", "161758.250000", "161759.740000", "161801.230000", "161802.720000", "161804.210000", "161805.700000", "161807.190000", "161808.680000", "161810.170000", "161811.660000", "161813.150000", "161814.640000", "161816.130000", "161817.620000", "161819.110000", "161820.600000", "161822.090000", "161823.580000", "161825.070000", "161826.560000", "161828.050000", "161829.540000", "161831.030000", "161832.520000", "161834.010000", "161835.500000", "161836.990000", "161838.480000", "161839.970000", "161841.460000", "161842.950000", "161844.440000", "161845.930000", "161847.420000", "161848.910000", "161850.400000", "161851.890000", "161853.380000", "161854.870000", "161856.360000", "161857.850000", "161859.340000", "161900.830000", "161902.320000", "161903.810000", "161905.300000", "161906.790000", "161908.280000", "161909.770000", "161911.260000", "161912.750000", "161914.240000", "161915.730000", "161917.220000", "161918.710000", "161920.200000", "161921.690000", "161923.180000", "161924.670000", "161926.160000", "161927.650000", "161929.140000", "161930.630000", "161932.120000", "161933.610000", "161935.100000", "161936.590000", "161938.080000", "161939.570000", "161941.060000", "161942.550000", "161944.040000", "161945.530000", "161947.020000", "161948.510000", "161950.000000", "161951.490000", "161952.980000", "161954.470000", "161955.960000", "161957.450000", "161958.940000", "162000.430000", "162001.920000", "162003.410000", "162004.900000", "162006.390000", "162007.880000", "162009.370000", "162010.860000", "162012.350000", "162013.840000", "162015.330000", "162016.820000", "162018.310000", "162019.800000", "162021.290000", "162022.780000", "162024.270000", "162025.760000", "162027.250000", "162028.740000", "162030.230000", "162031.720000", "162033.210000", "162034.700000", "162036.190000", "162037.680000", "162039.170000", "162040.660000", "162042.150000", "162043.640000", "162045.130000", "162046.620000", "162048.110000", "162049.600000", "162051.090000", "162052.580000", "162054.070000", "162055.560000", "162057.050000", "162058.540000", "162100.030000", "162101.520000", "162103.010000", "162104.500000", "162105.990000", "162107.480000", "162108.970000", "162110.460000", "162111.950000", "162113.440000", "162114.930000", "162116.420000", "162117.910000", "162119.400000", "162120.890000", "162122.380000", "162123.870000", "162125.360000", "162126.850000", "162128.340000", "162129.830000", "162131.320000", "162132.810000", "162134.300000", "162135.790000", "162137.280000", "162138.770000", "162140.260000", "162141.750000", "162143.240000", "162144.730000", "162146.220000", "162147.710000", "162149.200000", "162150.690000", "162152.180000", "162153.670000", "162155.160000", "162156.650000", "162158.140000", "162159.630000", "162201.120000", "162202.610000", "162204.100000", "162205.590000", "162207.080000", "162208.570000", "162210.060000", "162211.550000", "162213.040000", "162214.530000", "162216.020000", "162217.510000", "162219.000000", "162220.490000", "162221.980000", "162223.470000", "162224.960000", "162226.450000", "162227.940000", "162229.430000"],
      "ContentTime": ["161255.757000", "161255.760000", "161255.764000", "161255.767000", "161255.770000", "161255.774000", "161255.777000", "161255.781000", "161255.784000", "161255.787000", "161255.796000", "161255.799000", "161255.803000", "161255.806000", "161255.809000", "161255.813000", "161255.816000", "161255.819000", "161255.823000", "161255.826000", "161255.829000", "161255.833000", "161255.836000", "161255.839000", "161255.842000", "161255.846000", "161255.849000", "161255.852000", "161255.870000", "161255.873000", "161255.877000", "161255.880000", "161255.883000", "161255.887000", "161255.890000", "161255.893000", "161255.896000", "161255.900000", "161255.903000", "161315.714000", "161315.718000", "161315.721000", "161315.724000", "161315.728000", "161315.731000", "161315.734000", "161315.738000", "161315.741000", "161315.744000", "161315.748000", "161315.751000", "161315.754000", "161315.758000", "161315.761000", "161315.764000", "161315.767000", "161315.777000", "161315.780000", "161315.783000", "161335.714000", "161335.718000", "161335.721000", "161335.725000", "161335.728000", "161335.731000", "161335.735000", "161335.738000", "161335.741000", "161335.744000", "161335.748000", "161335.751000", "161335.754000", "161335.758000", "161335.761000", "161335.764000", "161335.768000", "161335.771000", "161335.774000", "161335.777000", "161355.714000", "161355.718000", "161355.721000", "161355.724000", "161355.728000", "161355.731000", "161355.735000", "161355.738000", "161355.741000", "161355.744000", "161355.748000", "161355.751000", "161355.754000", "161355.758000", "161355.761000", "161355.764000", "161355.768000", "161355.771000", "161355.774000", "161355.777000", "161355.781000", "161435.714000", "161435.718000", "161435.721000", "161435.724000", "161435.728000", "161435.731000", "161435.735000", "161435.739000", "161435.742000", "161435.745000", "161435.749000", "161435.752000", "161435.755000", "161435.759000", "161435.762000", "161435.765000", "161435.769000", "161435.772000", "161435.775000", "161435.778000", "161435.782000", "161435.785000", "161435.788000", "161435.792000", "161435.795000", "161435.799000", "161435.802000", "161435.805000", "161435.809000", "161515.714000", "161515.718000", "161515.721000", "161515.725000", "161515.728000", "161515.731000", "161515.734000", "161515.738000", "161515.741000", "161515.744000", "161515.748000", "161515.751000", "161515.755000", "161515.758000", "161515.761000", "161515.765000", "161515.768000", "161515.771000", "161515.775000", "161515.778000", "161515.781000", "161515.784000", "161515.788000", "161515.791000", "161515.794000", "161515.798000", "161515.801000", "161555.714000", "161555.718000", "161555.721000", "161555.724000", "161555.728000", "161555.731000", "161555.734000", "161555.738000", "161555.741000", "161555.744000", "161555.747000", "161555.751000", "161555.754000", "161555.758000", "161555.762000", "161555.765000", "161555.768000", "161555.772000", "161555.775000", "161555.778000", "161555.781000", "161555.785000", "161555.788000", "161555.791000", "161555.795000", "161555.798000", "161555.801000", "161635.714000", "161635.718000", "161635.721000", "161635.724000", "161635.728000", "161635.731000", "161635.734000", "161635.738000", "161635.741000", "161635.744000", "161635.748000", "161635.751000", "161635.754000", "161635.758000", "161635.761000", "161635.764000", "161635.768000", "161635.771000", "161635.774000", "161635.778000", "161635.781000", "161635.784000", "161635.788000", "161635.791000", "161635.794000", "161635.797000", "161635.801000", "161715.714000", "161715.718000", "161715.721000", "161715.724000", "161715.728000", "161715.731000", "161715.735000", "161715.738000", "161715.741000", "161715.744000", "161715.748000", "161715.751000", "161715.754000", "161715.758000", "161715.761000", "161715.764000", "161715.768000", "161715.784000", "161715.788000", "161715.804000", "161715.807000", "161715.811000", "161715.814000", "161715.817000", "161715.820000", "161715.824000", "161715.827000", "161755.714000", "161755.718000", "161755.721000", "161755.725000", "161755.728000", "161755.731000", "161755.735000", "161755.738000", "161755.741000", "161755.745000", "161755.748000", "161755.751000", "161755.755000", "161755.758000", "161755.761000", "161755.764000", "161755.768000", "161755.771000", "161755.774000", "161755.778000", "161755.781000", "161755.784000", "161755.799000", "161755.802000", "161755.805000", "161755.809000", "161755.812000", "161835.714000", "161835.718000", "161835.721000", "161835.725000", "161835.728000", "161835.732000", "161835.735000", "161835.738000", "161835.742000", "161835.745000", "161835.749000", "161835.752000", "161835.756000", "161835.760000", "161835.766000", "161835.844000", "161835.856000", "161835.859000", "161835.863000", "161835.866000", "161835.869000", "161835.872000", "161835.876000", "161835.879000", "161835.882000", "161835.886000", "161915.714000", "161915.718000", "161915.721000", "161915.725000", "161915.728000", "161915.731000", "161915.735000", "161915.738000", "161915.741000", "161915.745000", "161915.748000", "161915.751000", "161915.754000", "161915.758000", "161915.761000", "161915.764000", "161915.768000", "161915.771000", "161915.774000", "161915.778000", "161915.781000", "161915.784000", "161915.788000", "161915.791000", "161915.794000", "161915.798000", "161915.801000", "161955.714000", "161955.718000", "161955.722000", "161955.725000", "161955.728000", "161955.732000", "161955.735000", "161955.738000", "161955.742000", "161955.745000", "161955.748000", "161955.751000", "161955.755000", "161955.758000", "161955.761000", "161955.765000", "161955.768000", "161955.771000", "161955.775000", "161955.778000", "161955.781000", "161955.785000", "161955.788000", "161955.791000", "161955.795000", "161955.798000", "161955.801000", "162035.714000", "162035.718000", "162035.721000", "162035.725000", "162035.728000", "162035.731000", "162035.735000", "162035.738000", "162035.741000", "162035.745000", "162035.748000", "162035.751000", "162035.754000", "162035.758000", "162035.761000", "162035.764000", "162035.768000", "162035.771000", "162035.774000", "162035.778000", "162035.781000", "162035.784000", "162035.811000", "162035.814000", "162035.817000", "162035.821000", "162035.824000", "162115.714000", "162115.718000", "162115.721000", "162115.725000", "162115.728000", "162115.731000", "162115.735000", "162115.738000", "162115.741000", "162115.745000", "162115.748000", "162115.751000", "162115.755000", "162115.758000", "162115.761000", "162115.765000", "162115.768000", "162115.815000", "162115.818000", "162115.822000", "162115.825000", "162115.828000", "162115.831000", "162115.835000", "162115.838000", "162115.841000", "162115.845000", "162155.714000", "162155.718000", "162155.721000", "162155.724000", "162155.728000", "162155.731000", "162155.735000", "162155.738000", "162155.741000", "162155.745000", "162155.748000", "162155.751000", "162155.755000", "162155.758000", "162155.761000", "162155.764000", "162155.768000", "162155.771000", "162155.774000", "162155.778000", "162155.781000", "162155.784000", "162155.788000", "162155.791000", "162155.794000", "162155.798000", "162155.801000", "162231.587000", "162231.592000", "162231.595000", "162231.599000", "162231.602000", "162231.605000", "162231.609000", "162231.612000", "162231.615000", "162231.619000", "162231.622000", "162231.625000", "162231.629000", "162231.632000", "162231.635000", "162231.639000", "162231.642000", "162231.645000", "162231.648000", "162231.652000", "162231.655000", "162231.658000", "162231.662000", "162231.665000"],
