{
  "AcquisitionMatrixPE": 104,
  "AcquisitionNumber": 1,
  "AcquisitionTime": "16:23:52.142500",
  "BandwidthPerPixelPhaseEncode": 17.17,
  "BaseResolution": 104,
  "BodyPartExamined": "BRAIN",
  "CoilString": "HC1-7;NC1_2",
  "ConsistencyInfo": "N4_VE11C_LATEST_20160120",
  "ConversionSoftware": "dcm2niix",
  "ConversionSoftwareVersion": "v1.0.20190902",
  "DerivedVendorReportedEchoSpacing": 0.000560011,
  "DeviceSerialNumber": "167006",
  "DwellTime": 2.1e-06,
  "EchoTime": 0.037,
  "EchoTrainLength": 104,
  "EffectiveEchoSpacing": 0.000560011,
  "FlipAngle": 52,
  "HeudiconvVersion": "0.10.0",
  "ImageComments": "Unaliased_MB4_PE3_LB",
  "ImageOrientationPatientDICOM": [0.999632, -0.0269129, -0.00339939, 0.024256, 0.942905, -0.332178],
  "ImageType": [
    "ORIGINAL",
    "PRIMARY",
    "P",
    "MB",
    "ND",
    "MOSAIC"
],
  "ImagingFrequency": 123.259,
  "InPlanePhaseEncodingDirectionDICOM": "COL",
  "InstitutionAddress": "Chemin_Queen-Mary_4565_Montreal_District_CA_H3W_1W5",
  "InstitutionName": "IUGM",
  "InstitutionalDepartmentName": "Department",
  "MRAcquisitionType": "2D",
  "MagneticFieldStrength": 3,
  "Manufacturer": "Siemens",
  "ManufacturersModelName": "Prisma_fit",
  "Modality": "MR",
  "MultibandAccelerationFactor": 4,
  "PartialFourier": 1,
  "PatientPosition": "HFS",
  "PercentPhaseFOV": 100,
  "PhaseEncodingDirection": "j",
  "PhaseEncodingSteps": 104,
  "PhaseResolution": 1,
  "PixelBandwidth": 2290,
  "ProcedureStepDescription": "games_mario",
  "ProtocolName": "func_task-mario_run-03",
  "PulseSequenceDetails": "%CustomerSeq%_cmrr_mbep2d_bold",
  "ReceiveCoilActiveElements": "HC1-7;NC1,2",
  "ReceiveCoilName": "HeadNeck_64",
  "ReconMatrixPE": 104,
  "RepetitionTime": 1.49,
  "SAR": 0.0528463,
  "ScanOptions": "FS",
  "ScanningSequence": "EP",
  "SequenceName": "epfid2d1_104",
  "SequenceVariant": "SK_SS",
  "SeriesDescription": "func_task-mario_run-03",
  "SeriesNumber": 26,
  "ShimSetting": [630, -7243, -8815, 595, -2, -178, -75, -24],
  "SliceThickness": 2,
  "SliceTiming": [0, 0.7825, 0.0975, 0.88, 0.195, 0.9775, 0.2925, 1.0775, 0.39, 1.175, 0.4875, 1.2725, 0.5875, 1.37, 0.685, 0, 0.7825, 0.0975, 0.88, 0.195, 0.9775, 0.2925, 1.0775, 0.39, 1.175, 0.4875, 1.2725, 0.5875, 1.37, 0.685, 0, 0.7825, 0.0975, 0.88, 0.195, 0.9775, 0.2925, 1.0775, 0.39, 1.175, 0.4875, 1.2725, 0.5875, 1.37, 0.685, 0, 0.7825, 0.0975, 0.88, 0.195, 0.9775, 0.2925, 1.0775, 0.39, 1.175, 0.4875, 1.2725, 0.5875, 1.37, 0.685],
  "SoftwareVersions": "syngo_MR_E11",
  "SpacingBetweenSlices": 2,
  "StationName": "MRC35049",
  "TaskName": "mario",
  "TotalReadoutTime": 0.0576811,
  "TxRefAmp": 266.579,
  "WipMemBlock": "e3a8a693-5f28-4023-bcb1-c78d76e86f34||Sequence: R016 ve11c/master r/e634e98; Dec 19 2017 11:00:25 by eja",
  "dcmmeta_affine": [
    [-1.9992640018463135, 0.048511967062950134, -0.024290306493639946, 104.56217956542969],
    [0.053825706243515015, 1.8858096599578857, -0.6639463305473328, -68.5252456665039],
    [-0.0067987763322889805, 0.6643556952476501, 1.8864212036132812, -59.84366989135742],
    [0.0, 0.0, 0.0, 1.0]
],
  "dcmmeta_reorient_transform": [
    [0.0, -1.0, 0.0, 103.0],
    [1.0, 0.0, 0.0, 0.0],
    [0.0, 0.0, 1.0, 0.0],
    [0.0, 0.0, 0.0, 1.0]
],
  "dcmmeta_shape": [104, 104, 60, 500],
  "dcmmeta_slice_dim": 2,
  "dcmmeta_version": 0.6,
  "global": {
    "const": {
      "AcquisitionMatrix": [104, 0, 0, 104],
      "AngioFlag": "N",
      "BitsAllocated": 16,
      "BitsStored": 16,
      "BodyPartExamined": "BRAIN",
      "Columns": 832,
      "EchoNumbers": 1,
      "EchoTime": 37.0,
      "EchoTrainLength": 104,
      "FlipAngle": 52.0,
      "HighBit": 15,
      "ImageOrientationPatient": [0.99963200353684, -0.0269128531585, -0.0033993881506, 0.02425598381286, 0.94290482825046, -0.3321778621631],
      "ImagePositionPatient": [-854.94937017031, -792.55530687331, 252.8852068771],
      "ImageType": [
        "ORIGINAL",
        "PRIMARY",
        "P",
        "MB",
        "ND",
        "MOSAIC"
],
      "ImagedNucleus": "1H",
      "ImagingFrequency": 123.258905,
      "InPlanePhaseEncodingDirection": "COL",
      "LargestImagePixelValue": 4095,
      "MRAcquisitionType": "2D",
      "MagneticFieldStrength": 3.0,
      "Manufacturer": "SIEMENS",
      "ManufacturerModelName": "Prisma_fit",
      "Modality": "MR",
      "NumberOfAverages": 1.0,
      "NumberOfPhaseEncodingSteps": 104,
      "PercentPhaseFieldOfView": 100.0,
      "PercentSampling": 100.0,
      "PerformedProcedureStepStartTime": "145427.423000",
      "PhotometricInterpretation": "MONOCHROME2",
      "PixelBandwidth": 2290.0,
      "PixelRepresentation": 0,
      "PixelSpacing": [2.0, 2.0],
      "ProtocolName": "func_task-mario_run-03",
      "RepetitionTime": 1490.0,
      "RescaleIntercept": -4096.0,
      "RescaleSlope": 2.0,
      "RescaleType": "US",
      "Rows": 832,
      "SAR": 0.0528462536377,
      "SamplesPerPixel": 1,
      "ScanOptions": "FS",
      "ScanningSequence": "EP",
      "SequenceName": "epfid2d1_104",
      "SequenceVariant": [
        "SK",
        "SS"
],
      "SeriesDescription": "func_task-mario_run-03",
      "SeriesNumber": 26,
      "SeriesTime": "162525.449000",
      "SliceLocation": -34.966568202451,
      "SliceThickness": 2.0,
      "SmallestImagePixelValue": 0,
      "SoftwareVersions": "syngo MR E11",
      "SpacingBetweenSlices": 1.9999999564391,
      "SpecificCharacterSet": "ISO_IR 100",
      "StudyID": "1",
      "StudyTime": "145427.339000",
      "TransmitCoilName": "Body",
      "VariableFlipAngleFlag": "N",
      "WindowCenterWidthExplanation": "Algo1",
      "dBdt": 0.0},
    "slices": {}
  },
  "time": {
    "samples": {
      "AcquisitionNumber": [1, 2, 3, 4, 5, 6, 7, 8, 9, 10, 11, 12, 13, 14, 15, 16, 17, 18, 19, 20, 21, 22, 23, 24, 25, 26, 27, 28, 29, 30, 31, 32, 33, 34, 35, 36, 37, 38, 39, 40, 41, 42, 43, 44, 45, 46, 47, 48, 49, 50, 51, 52, 53, 54, 55, 56, 57, 58, 59, 60, 61, 62, 63, 64, 65, 66, 67, 68, 69, 70, 71, 72, 73, 74, 75, 76, 77, 78, 79, 80, 81, 82, 83, 84, 85, 86, 87, 88, 89, 90, 91, 92, 93, 94, 95, 96, 97, 98, 99, 100, 101, 102, 103, 104, 105, 106, 107, 108, 109, 110, 111, 112, 113, 114, 115, 116, 117, 118, 119, 120, 121, 122, 123, 124, 125, 126, 127, 128, 129, 130, 131, 132, 133, 134, 135, 136, 137, 138, 139, 140, 141, 142, 143, 144, 145, 146, 147, 148, 149, 150, 151, 152, 153, 154, 155, 156, 157, 158, 159, 160, 161, 162, 163, 164, 165, 166, 167, 168, 169, 170, 171, 172, 173, 174, 175, 176, 177, 178, 179, 180, 181, 182, 183, 184, 185, 186, 187, 188, 189, 190, 191, 192, 193, 194, 195, 196, 197, 198, 199, 200, 201, 202, 203, 204, 205, 206, 207, 208, 209, 210, 211, 212, 213, 214, 215, 216, 217, 218, 219, 220, 221, 222, 223, 224, 225, 226, 227, 228, 229, 230, 231, 232, 233, 234, 235, 236, 237, 238, 239, 240, 241, 242, 243, 244, 245, 246, 247, 248, 249, 250, 251, 252, 253, 254, 255, 256, 257, 258, 259, 260, 261, 262, 263, 264, 265, 266, 267, 268, 269, 270, 271, 272, 273, 274, 275, 276, 277, 278, 279, 280, 281, 282, 283, 284, 285, 286, 287, 288, 289, 290, 291, 292, 293, 294, 295, 296, 297, 298, 299, 300, 301, 302, 303, 304, 305, 306, 307, 308, 309, 310, 311, 312, 313, 314, 315, 316, 317, 318, 319, 320, 321, 322, 323, 324, 325, 326, 327, 328, 329, 330, 331, 332, 333, 334, 335, 336, 337, 338, 339, 340, 341, 342, 343, 344, 345, 346, 347, 348, 349, 350, 351, 352, 353, 354, 355, 356, 357, 358, 359, 360, 361, 362, 363, 364, 365, 366, 367, 368, 369, 370, 371, 372, 373, 374, 375, 376, 377, 378, 379, 380, 381, 382, 383, 384, 385, 386, 387, 388, 389, 390, 391, 392, 393, 394, 395, 396, 397, 398, 399, 400, 401, 402, 403, 404, 405, 406, 407, 408, 409, 410, 411, 412, 413, 414, 415, 416, 417, 418, 419, 420, 421, 422, 423, 424, 425, 426, 427, 428, 429, 430, 431, 432, 433, 434, 435, 436, 437, 438, 439, 440, 441, 442, 443, 444, 445, 446, 447, 448, 449, 450, 451, 452, 453, 454, 455, 456, 457, 458, 459, 460, 461, 462, 463, 464, 465, 466, 467, 468, 469, 470, 471, 472, 473, 474, 475, 476, 477, 478, 479, 480, 481, 482, 483, 484, 485, 486, 487, 488, 489, 490, 491, 492, 493, 494, 495, 496, 497, 498, 499, 500],
      "AcquisitionTime": ["162352.142500", "162353.632500", "162355.122500", "162356.612500", "162358.102500", "162359.592500", "162401.082500", "162402.572500", "162404.062500", "162405.552500", "162407.042500", "162408.532500", "162410.022500", "162411.512500", "162413.002500", "162414.492500", "162415.982500", "162417.472500", "162418.962500", "162420.452500", "162421.942500", "162423.432500", "162424.922500", "162426.412500", "162427.902500", "162429.392500", "162430.882500", "162432.372500", "162433.862500", "162435.352500", "162436.842500", "162438.332500", "162439.822500", "162441.312500", "162442.802500", "162444.292500", "162445.782500", "162447.272500", "162448.762500", "162450.252500", "162451.742500", "162453.232500", "162454.722500", "162456.212500", "162457.702500", "162459.192500", "162500.682500", "162502.172500", "162503.662500", "162505.152500", "162506.642500", "162508.132500", "162509.622500", "162511.112500", "162512.602500", "162514.092500", "162515.582500", "162517.072500", "162518.562500", "162520.052500", "162521.542500", "162523.032500", "162524.522500", "162526.012500", "162527.502500", "162528.992500", "162530.482500", "162531.972500", "162533.462500", "162534.952500", "162536.442500", "162537.932500", "162539.422500", "162540.912500", "162542.402500", "162543.892500", "162545.382500", "162546.872500", "162548.362500", "162549.852500", "162551.342500", "162552.832500", "162554.322500", "162555.812500", "162557.302500", "162558.792500", "162600.282500", "162601.772500", "162603.262500", "162604.752500", "162606.242500", "162607.732500", "162609.222500", "162610.712500", "162612.202500", "162613.692500", "162615.182500", "162616.672500", "162618.162500", "162619.652500", "162621.142500", "162622.632500", "162624.122500", "162625.612500", "162627.102500", "162628.592500", "162630.082500", "162631.572500", "162633.062500", "162634.552500", "162636.042500", "162637.532500", "162639.022500", "162640.512500", "162642.002500", "162643.492500", "162644.982500", "162646.472500", "162647.962500", "162649.452500", "162650.942500", "162652.432500", "162653.922500", "162655.412500", "162656.902500", "162658.392500", "162659.882500", "162701.372500", "162702.862500", "162704.352500", "162705.842500", "162707.332500", "162708.822500", "162710.312500", "162711.802500", "162713.292500", "162714.782500", "162716.272500", "162717.762500", "162719.252500", "162720.742500", "162722.232500", "162723.722500", "162725.212500", "162726.702500", "162728.192500", "162729.682500", "162731.172500", "162732.662500", "162734.152500", "162735.642500", "162737.132500", "162738.622500", "162740.112500", "162741.602500", "162743.092500", "162744.582500", "162746.072500", "162747.562500", "162749.052500", "162750.542500", "162752.032500", "162753.522500", "162755.012500", "162756.502500", "162757.992500", "162759.482500", "162800.972500", "162802.462500", "162803.952500", "162805.442500", "162806.932500", "162808.422500", "162809.912500", "162811.402500", "162812.892500", "162814.382500", "162815.872500", "162817.362500", "162818.852500", "162820.342500", "162821.832500", "162823.322500", "162824.812500", "162826.302500", "162827.792500", "162829.282500", "162830.772500", "162832.262500", "162833.752500", "162835.242500", "162836.732500", "162838.222500", "162839.712500", "162841.202500", "162842.692500", "162844.182500", "162845.672500", "162847.162500", "162848.652500", "162850.142500", "162851.632500", "162853.122500", "162854.612500", "162856.102500", "162857.592500", "162859.082500", "162900.572500", "162902.062500", "162903.552500", "162905.042500", "162906.532500", "162908.022500", "162909.512500", "162911.002500", "162912.492500", "162913.982500", "162915.472500", "162916.962500", "162918.452500", "162919.942500", "162921.432500", "162922.922500", "162924.412500", "162925.902500", "162927.392500", "162928.882500", "162930.372500", "162931.862500", "162933.352500", "162934.842500", "162936.332500", "162937.822500", "162939.312500", "162940.802500", "162942.292500", "162943.782500", "162945.272500", "162946.762500", "162948.252500", "162949.742500", "162951.232500", "162952.722500", "162954.212500", "162955.702500", "162957.192500", "162958.682500", "163000.172500", "163001.662500", "163003.152500", "163004.642500", "163006.132500", "163007.622500", "163009.112500", "163010.602500", "163012.092500", "163013.582500", "163015.072500", "163016.562500", "163018.052500", "163019.542500", "163021.032500", "163022.522500", "163024.012500", "163025.502500", "163026.992500", "163028.482500", "163029.972500", "163031.462500", "163032.952500", "163034.442500", "163035.932500", "163037.422500", "163038.912500", "163040.402500", "163041.892500", "163043.382500", "163044.872500", "163046.362500", "163047.852500", "163049.342500", "163050.832500", "163052.322500", "163053.812500", "163055.302500", "163056.792500", "163058.282500", "163059.772500", "163101.262500", "163102.752500", "163104.242500", "163105.732500", "163107.222500", "163108.712500", "163110.202500", "163111.692500", "163113.182500", "163114.672500", "163116.162500", "163117.652500", "163119.142500", "163120.632500", "163122.122500", "163123.612500", "163125.102500", "163126.592500", "163128.082500", "163129.572500", "163131.062500", "163132.552500", "163134.042500", "163135.532500", "163137.022500", "163138.512500", "163140.002500", "163141.492500", "163142.982500", "163144.472500", "163145.962500", "163147.452500", "163148.942500", "163150.432500", "163151.922500", "163153.412500", "163154.902500", "163156.392500", "163157.882500", "163159.372500", "163200.862500", "163202.352500", "163203.842500", "163205.332500", "163206.822500", "163208.312500", "163209.802500", "163211.292500", "163212.782500", "163214.272500", "163215.762500", "163217.252500", "163218.742500", "163220.232500", "163221.722500", "163223.212500", "163224.702500", "163226.192500", "163227.682500", "163229.172500", "163230.662500", "163232.152500", "163233.642500", "163235.132500", "163236.622500", "163238.112500", "163239.602500", "163241.092500", "163242.582500", "163244.072500", "163245.562500", "163247.052500", "163248.542500", "163250.032500", "163251.522500", "163253.012500", "163254.502500", "163255.992500", "163257.482500", "163258.972500", "163300.462500", "163301.952500", "163303.442500", "163304.932500", "163306.422500", "163307.912500", "163309.402500", "163310.892500", "163312.382500", "163313.872500", "163315.362500", "163316.852500", "163318.342500", "163319.832500", "163321.322500", "163322.812500", "163324.302500", "163325.792500", "163327.282500", "163328.772500", "163330.262500", "163331.752500", "163333.242500", "163334.732500", "163336.222500", "163337.712500", "163339.202500", "163340.692500", "163342.182500", "163343.672500", "163345.162500", "163346.652500", "163348.142500", "163349.632500", "163351.122500", "163352.612500", "163354.102500", "163355.592500", "163357.082500", "163358.572500", "163400.062500", "163401.552500", "163403.042500", "163404.532500", "163406.022500", "163407.512500", "163409.002500", "163410.492500", "163411.982500", "163413.472500", "163414.962500", "163416.452500", "163417.942500", "163419.432500", "163420.922500", "163422.412500", "163423.902500", "163425.392500", "163426.882500", "163428.372500", "163429.862500", "163431.352500", "163432.842500", "163434.332500", "163435.822500", "163437.312500", "163438.802500", "163440.292500", "163441.782500", "163443.272500", "163444.762500", "163446.252500", "163447.742500", "163449.232500", "163450.722500", "163452.212500", "163453.702500", "163455.192500", "163456.682500", "163458.172500", "163459.662500", "163501.152500", "163502.642500", "163504.132500", "163505.622500", "163507.112500", "163508.602500", "163510.092500", "163511.582500", "163513.072500", "163514.562500", "163516.052500", "163517.542500", "163519.032500", "163520.522500", "163522.012500", "163523.502500", "163524.992500", "163526.482500", "163527.972500", "163529.462500", "163530.952500", "163532.442500", "163533.932500", "163535.422500", "163536.912500", "163538.402500", "163539.892500", "163541.382500", "163542.872500", "163544.362500", "163545.852500", "163547.342500", "163548.832500", "163550.322500", "163551.812500", "163553.302500", "163554.792500", "163556.282500", "163557.772500", "163559.262500", "163600.752500", "163602.242500", "163603.732500", "163605.222500", "163606.712500", "163608.202500", "163609.692500", "163611.182500", "163612.672500", "163614.162500", "163615.652500"],
      "ContentTime": ["162525.451000", "162525.454000", "162525.456000", "162525.459000", "162525.461000", "162525.464000", "162525.466000", "162525.469000", "162525.471000", "162525.480000", "162525.483000", "162525.485000", "162525.488000", "162525.490000", "162525.493000", "162525.495000", "162525.498000", "162525.500000", "162525.503000", "162525.505000", "162525.508000", "162525.510000", "162525.512000", "162525.515000", "162525.517000", "162525.520000", "162525.523000", "162525.525000", "162525.528000", "162525.530000", "162525.533000", "162525.535000", "162525.538000", "162525.540000", "162525.543000", "162525.545000", "162525.548000", "162525.550000", "162525.553000", "162545.317000", "162545.320000", "162545.323000", "162545.325000", "162545.335000", "162545.337000", "162545.340000", "162545.342000", "162545.345000", "162545.347000", "162545.350000", "162545.352000", "162545.355000", "162545.357000", "162545.360000", "162545.362000", "162545.365000", "162545.367000", "162545.370000", "162545.372000", "162605.322000", "162605.325000", "162605.327000", "162605.330000", "162605.332000", "162605.335000", "162605.337000", "162605.340000", "162605.342000", "162605.345000", "162605.347000", "162605.350000", "162605.352000", "162605.355000", "162605.357000", "162605.360000", "162605.362000", "162605.364000", "162605.367000", "162605.369000", "162625.315000", "162625.320000", "162625.324000", "162625.328000", "162625.331000", "162625.334000", "162625.336000", "162625.339000", "162625.342000", "162625.344000", "162625.347000", "162625.349000", "162625.352000", "162625.354000", "162625.357000", "162625.359000", "162625.362000", "162625.364000", "162625.367000", "162625.369000", "162705.369000", "162705.372000", "162705.374000", "162705.377000", "162705.379000", "162705.382000", "162705.384000", "162705.387000", "162705.389000", "162705.392000", "162705.394000", "162705.397000", "162705.399000", "162705.402000", "162705.404000", "162705.407000", "162705.409000", "162705.412000", "162705.414000", "162705.417000", "162705.419000", "162705.421000", "162705.424000", "162705.426000", "162705.429000", "162705.431000", "162705.434000", "162705.437000", "162705.439000", "162745.342000", "162745.345000", "162745.347000", "162745.350000", "162745.352000", "162745.355000", "162745.357000", "162745.360000", "162745.362000", "162745.365000", "162745.367000", "162745.370000", "162745.372000", "162745.375000", "162745.377000", "162745.380000", "162745.382000", "162745.384000", "162745.387000", "162745.389000", "162745.392000", "162745.395000", "162745.397000", "162745.399000", "162745.402000", "162745.404000", "162745.407000", "162825.345000", "162825.348000", "162825.350000", "162825.353000", "162825.355000", "162825.358000", "162825.360000", "162825.362000", "162825.365000", "162825.367000", "162825.370000", "162825.372000", "162825.375000", "162825.377000", "162825.380000", "162825.382000", "162825.385000", "162825.387000", "162825.390000", "162825.392000", "162825.395000", "162825.397000", "162825.400000", "162825.403000", "162825.405000", "162825.408000", "162825.410000", "162845.291000", "162845.294000", "162845.296000", "162845.299000", "162845.301000", "162845.304000", "162845.306000", "162845.309000", "162845.311000", "162845.314000", "162845.316000", "162845.319000", "162845.321000", "162845.324000", "162925.350000", "162925.353000", "162925.356000", "162925.358000", "162925.361000", "162925.363000", "162925.366000", "162925.368000", "162925.371000", "162925.374000", "162925.377000", "162925.380000", "162925.384000", "162925.388000", "162925.391000", "162925.393000", "162925.396000", "162925.399000", "162925.401000", "162925.404000", "162925.407000", "162925.409000", "162925.412000", "162925.414000", "162925.417000", "162925.419000", "163005.352000", "163005.355000", "163005.357000", "163005.360000", "163005.362000", "163005.365000", "163005.368000", "163005.370000", "163005.372000", "163005.375000", "163005.377000", "163005.380000", "163005.382000", "163005.385000", "163005.387000", "163005.390000", "163005.392000", "163005.395000", "163005.397000", "163005.400000", "163005.402000", "163005.405000", "163005.407000", "163005.410000", "163005.413000", "163005.415000", "163005.418000", "163045.355000", "163045.358000", "163045.360000", "163045.363000", "163045.365000", "163045.368000", "163045.370000", "163045.373000", "163045.375000", "163045.378000", "163045.380000", "163045.383000", "163045.385000", "163045.388000", "163045.390000", "163045.393000", "163045.395000", "163045.398000", "163045.400000", "163045.403000", "163045.405000", "163045.408000", "163045.410000", "163045.413000", "163045.415000", "163045.418000", "163045.420000", "163125.363000", "163125.366000", "163125.368000", "163125.371000", "163125.373000", "163125.376000", "163125.378000", "163125.381000", "163125.383000", "163125.386000", "163125.388000", "163125.391000", "163125.393000", "163125.396000", "163125.398000", "163125.401000", "163125.403000", "163125.406000", "163125.408000", "163125.411000", "163125.413000", "163125.416000", "163125.418000", "163125.421000", "163125.423000", "163125.426000", "163125.429000", "163205.343000", "163205.345000", "163205.348000", "163205.350000", "163205.353000", "163205.355000", "163205.358000", "163205.360000", "163205.363000", "163205.365000", "163205.368000", "163205.370000", "163205.373000", "163205.375000", "163205.378000", "163205.380000", "163205.383000", "163205.385000", "163205.388000", "163205.390000", "163205.393000", "163205.395000", "163205.398000", "163205.400000", "163205.403000", "163205.405000", "163205.408000", "163245.802000", "163245.805000", "163245.808000", "163245.810000", "163245.813000", "163245.815000", "163245.818000", "163245.820000", "163245.822000", "163245.825000", "163245.827000", "163245.830000", "163245.832000", "163245.835000", "163245.837000", "163245.840000", "163245.842000", "163245.845000", "163245.847000", "163245.850000", "163245.852000", "163245.855000", "163245.857000", "163245.860000", "163245.862000", "163245.865000", "163245.867000", "163325.337000", "163325.339000", "163325.342000", "163325.344000", "163325.347000", "163325.349000", "163325.352000", "163325.354000", "163325.357000", "163325.359000", "163325.362000", "163325.364000", "163325.367000", "163325.369000", "163325.372000", "163325.374000", "163325.377000", "163325.380000", "163325.382000", "163325.384000", "163325.387000", "163325.389000", "163325.392000", "163325.394000", "163325.397000", "163325.399000", "163405.339000", "163405.342000", "163405.344000", "163405.347000", "163405.349000", "163405.352000", "163405.354000", "163405.357000", "163405.359000", "163405.363000", "163405.365000", "163405.368000", "163405.370000", "163405.373000", "163405.376000", "163405.378000", "163405.381000", "163405.383000", "163405.385000", "163405.388000", "163405.391000", "163405.393000", "163405.396000", "163405.398000", "163405.401000", "163405.403000", "163405.406000", "163445.342000", "163445.344000", "163445.347000", "163445.349000", "163445.352000", "163445.354000", "163445.357000", "163445.359000", "163445.362000", "163445.364000", "163445.367000", "163445.369000", "163445.372000", "163445.375000", "163445.377000", "163445.380000", "163445.382000", "163445.385000", "163445.387000", "163445.390000", "163445.392000", "163445.395000", "163445.397000", "163445.400000", "163445.402000", "163445.405000", "163445.407000", "163525.340000", "163525.342000", "163525.345000", "163525.347000", "163525.350000", "163525.352000", "163525.355000", "163525.357000", "163525.360000", "163525.362000", "163525.365000", "163525.367000", "163525.370000", "163525.373000", "163525.375000", "163525.378000", "163525.380000", "163525.383000", "163525.385000", "163525.388000", "163525.391000", "163525.393000", "163525.396000", "163525.398000", "163525.401000", "163525.403000", "163525.406000", "163605.360000", "163605.362000", "163605.365000", "163605.367000", "163605.370000", "163605.372000", "163605.375000", "163605.377000", "163605.380000", "163605.382000", "163605.385000", "163605.387000", "163605.390000", "163605.392000", "163605.395000", "163605.397000", "163605.400000", "163605.402000", "163605.405000", "163605.407000", "163605.410000", "163605.412000", "163605.415000", "163605.417000", "163605.420000", "163605.422000", "163605.425000", "163619.186000", "163619.188000", "163619.191000", "163619.194000", "163619.196000", "163619.199000", "163619.201000", "163619.204000", "163619.206000"],
