{
  "AcquisitionMatrixPE": 104,
  "AcquisitionNumber": 1,
  "AcquisitionTime": "16:23:52.142500",
  "BandwidthPerPixelPhaseEncode": 17.17,
  "BaseResolution": 104,
  "BodyPartExamined": "BRAIN",
  "CoilString": "HC1-7;NC1_2",
  "ConsistencyInfo": "N4_VE11C_LATEST_20160120",
  "ConversionSoftware": "dcm2niix",
  "ConversionSoftwareVersion": "v1.0.20190902",
  "DerivedVendorReportedEchoSpacing": 0.000560011,
  "DeviceSerialNumber": "167006",
  "DwellTime": 2.1e-06,
  "EchoTime": 0.037,
  "EchoTrainLength": 104,
  "EffectiveEchoSpacing": 0.000560011,
  "FlipAngle": 52,
  "HeudiconvVersion": "0.10.0",
  "ImageComments": "Unaliased_MB4_PE3_LB",
  "ImageOrientationPatientDICOM": [0.999632, -0.0269129, -0.00339939, 0.024256, 0.942905, -0.332178],
  "ImageType": [
    "ORIGINAL",
    "PRIMARY",
    "M",
    "MB",
    "ND",
    "MOSAIC"
],
  "ImagingFrequency": 123.259,
  "InPlanePhaseEncodingDirectionDICOM": "COL",
  "InstitutionAddress": "Chemin_Queen-Mary_4565_Montreal_District_CA_H3W_1W5",
  "InstitutionName": "IUGM",
  "InstitutionalDepartmentName": "Department",
  "MRAcquisitionType": "2D",
  "MagneticFieldStrength": 3,
  "Manufacturer": "Siemens",
  "ManufacturersModelName": "Prisma_fit",
  "Modality": "MR",
  "MultibandAccelerationFactor": 4,
  "PartialFourier": 1,
  "PatientPosition": "HFS",
  "PercentPhaseFOV": 100,
  "PhaseEncodingDirection": "j",
  "PhaseEncodingSteps": 104,
  "PhaseResolution": 1,
  "PixelBandwidth": 2290,
  "ProcedureStepDescription": "games_mario",
  "ProtocolName": "func_task-mario_run-03",
  "PulseSequenceDetails": "%CustomerSeq%_cmrr_mbep2d_bold",
  "ReceiveCoilActiveElements": "HC1-7;NC1,2",
  "ReceiveCoilName": "HeadNeck_64",
  "ReconMatrixPE": 104,
  "RepetitionTime": 1.49,
  "SAR": 0.0528463,
  "ScanOptions": "FS",
  "ScanningSequence": "EP",
  "SequenceName": "epfid2d1_104",
  "SequenceVariant": "SK_SS",
  "SeriesDescription": "func_task-mario_run-03",
  "SeriesNumber": 25,
  "ShimSetting": [630, -7243, -8815, 595, -2, -178, -75, -24],
  "SliceThickness": 2,
  "SliceTiming": [0, 0.7825, 0.0975, 0.88, 0.195, 0.9775, 0.2925, 1.0775, 0.39, 1.175, 0.4875, 1.2725, 0.5875, 1.37, 0.685, 0, 0.7825, 0.0975, 0.88, 0.195, 0.9775, 0.2925, 1.0775, 0.39, 1.175, 0.4875, 1.2725, 0.5875, 1.37, 0.685, 0, 0.7825, 0.0975, 0.88, 0.195, 0.9775, 0.2925, 1.0775, 0.39, 1.175, 0.4875, 1.2725, 0.5875, 1.37, 0.685, 0, 0.7825, 0.0975, 0.88, 0.195, 0.9775, 0.2925, 1.0775, 0.39, 1.175, 0.4875, 1.2725, 0.5875, 1.37, 0.685],
  "SoftwareVersions": "syngo_MR_E11",
  "SpacingBetweenSlices": 2,
  "StationName": "MRC35049",
  "TaskName": "mario",
  "TotalReadoutTime": 0.0576811,
  "TxRefAmp": 266.579,
  "WipMemBlock": "e3a8a693-5f28-4023-bcb1-c78d76e86f34||Sequence: R016 ve11c/master r/e634e98; Dec 19 2017 11:00:25 by eja",
  "dcmmeta_affine": [
    [-1.9992640018463135, 0.048511967062950134, -0.024290306493639946, 104.56217956542969],
    [0.053825706243515015, 1.8858096599578857, -0.6639463305473328, -68.5252456665039],
    [-0.0067987763322889805, 0.6643556952476501, 1.8864212036132812, -59.84366989135742],
    [0.0, 0.0, 0.0, 1.0]
],
  "dcmmeta_reorient_transform": [
    [0.0, -1.0, 0.0, 103.0],
    [1.0, 0.0, 0.0, 0.0],
    [0.0, 0.0, 1.0, 0.0],
    [0.0, 0.0, 0.0, 1.0]
],
  "dcmmeta_shape": [104, 104, 60, 500],
  "dcmmeta_slice_dim": 2,
  "dcmmeta_version": 0.6,
  "global": {
    "const": {
      "AcquisitionMatrix": [104, 0, 0, 104],
      "AngioFlag": "N",
      "BitsAllocated": 16,
      "BitsStored": 16,
      "BodyPartExamined": "BRAIN",
      "Columns": 832,
      "EchoNumbers": 1,
      "EchoTime": 37.0,
      "EchoTrainLength": 104,
      "FlipAngle": 52.0,
      "HighBit": 15,
      "ImageOrientationPatient": [0.99963200353684, -0.0269128531585, -0.0033993881506, 0.02425598381286, 0.94290482825046, -0.3321778621631],
      "ImagePositionPatient": [-854.94937017031, -792.55530687331, 252.8852068771],
      "ImageType": [
        "ORIGINAL",
        "PRIMARY",
        "M",
        "MB",
        "ND",
        "MOSAIC"
],
      "ImagedNucleus": "1H",
      "ImagingFrequency": 123.258905,
      "InPlanePhaseEncodingDirection": "COL",
      "MRAcquisitionType": "2D",
      "MagneticFieldStrength": 3.0,
      "Manufacturer": "SIEMENS",
      "ManufacturerModelName": "Prisma_fit",
      "Modality": "MR",
      "NumberOfAverages": 1.0,
      "NumberOfPhaseEncodingSteps": 104,
      "PercentPhaseFieldOfView": 100.0,
      "PercentSampling": 100.0,
      "PerformedProcedureStepStartTime": "145427.423000",
      "PhotometricInterpretation": "MONOCHROME2",
      "PixelBandwidth": 2290.0,
      "PixelRepresentation": 0,
      "PixelSpacing": [2.0, 2.0],
      "ProtocolName": "func_task-mario_run-03",
      "RepetitionTime": 1490.0,
      "Rows": 832,
      "SAR": 0.0528462536377,
      "SamplesPerPixel": 1,
      "ScanOptions": "FS",
      "ScanningSequence": "EP",
      "SequenceName": "epfid2d1_104",
      "SequenceVariant": [
        "SK",
        "SS"
],
      "SeriesDescription": "func_task-mario_run-03",
      "SeriesNumber": 25,
      "SeriesTime": "162525.238000",
      "SliceLocation": -34.966568202451,
      "SliceThickness": 2.0,
      "SmallestImagePixelValue": 0,
      "SoftwareVersions": "syngo MR E11",
      "SpacingBetweenSlices": 1.9999999564391,
      "SpecificCharacterSet": "ISO_IR 100",
      "StudyID": "1",
      "StudyTime": "145427.339000",
      "TransmitCoilName": "Body",
      "VariableFlipAngleFlag": "N",
      "WindowCenterWidthExplanation": "Algo1",
      "dBdt": 0.0},
    "slices": {}
  },
  "time": {
    "samples": {
      "AcquisitionNumber": [1, 2, 3, 4, 5, 6, 7, 8, 9, 10, 11, 12, 13, 14, 15, 16, 17, 18, 19, 20, 21, 22, 23, 24, 25, 26, 27, 28, 29, 30, 31, 32, 33, 34, 35, 36, 37, 38, 39, 40, 41, 42, 43, 44, 45, 46, 47, 48, 49, 50, 51, 52, 53, 54, 55, 56, 57, 58, 59, 60, 61, 62, 63, 64, 65, 66, 67, 68, 69, 70, 71, 72, 73, 74, 75, 76, 77, 78, 79, 80, 81, 82, 83, 84, 85, 86, 87, 88, 89, 90, 91, 92, 93, 94, 95, 96, 97, 98, 99, 100, 101, 102, 103, 104, 105, 106, 107, 108, 109, 110, 111, 112, 113, 114, 115, 116, 117, 118, 119, 120, 121, 122, 123, 124, 125, 126, 127, 128, 129, 130, 131, 132, 133, 134, 135, 136, 137, 138, 139, 140, 141, 142, 143, 144, 145, 146, 147, 148, 149, 150, 151, 152, 153, 154, 155, 156, 157, 158, 159, 160, 161, 162, 163, 164, 165, 166, 167, 168, 169, 170, 171, 172, 173, 174, 175, 176, 177, 178, 179, 180, 181, 182, 183, 184, 185, 186, 187, 188, 189, 190, 191, 192, 193, 194, 195, 196, 197, 198, 199, 200, 201, 202, 203, 204, 205, 206, 207, 208, 209, 210, 211, 212, 213, 214, 215, 216, 217, 218, 219, 220, 221, 222, 223, 224, 225, 226, 227, 228, 229, 230, 231, 232, 233, 234, 235, 236, 237, 238, 239, 240, 241, 242, 243, 244, 245, 246, 247, 248, 249, 250, 251, 252, 253, 254, 255, 256, 257, 258, 259, 260, 261, 262, 263, 264, 265, 266, 267, 268, 269, 270, 271, 272, 273, 274, 275, 276, 277, 278, 279, 280, 281, 282, 283, 284, 285, 286, 287, 288, 289, 290, 291, 292, 293, 294, 295, 296, 297, 298, 299, 300, 301, 302, 303, 304, 305, 306, 307, 308, 309, 310, 311, 312, 313, 314, 315, 316, 317, 318, 319, 320, 321, 322, 323, 324, 325, 326, 327, 328, 329, 330, 331, 332, 333, 334, 335, 336, 337, 338, 339, 340, 341, 342, 343, 344, 345, 346, 347, 348, 349, 350, 351, 352, 353, 354, 355, 356, 357, 358, 359, 360, 361, 362, 363, 364, 365, 366, 367, 368, 369, 370, 371, 372, 373, 374, 375, 376, 377, 378, 379, 380, 381, 382, 383, 384, 385, 386, 387, 388, 389, 390, 391, 392, 393, 394, 395, 396, 397, 398, 399, 400, 401, 402, 403, 404, 405, 406, 407, 408, 409, 410, 411, 412, 413, 414, 415, 416, 417, 418, 419, 420, 421, 422, 423, 424, 425, 426, 427, 428, 429, 430, 431, 432, 433, 434, 435, 436, 437, 438, 439, 440, 441, 442, 443, 444, 445, 446, 447, 448, 449, 450, 451, 452, 453, 454, 455, 456, 457, 458, 459, 460, 461, 462, 463, 464, 465, 466, 467, 468, 469, 470, 471, 472, 473, 474, 475, 476, 477, 478, 479, 480, 481, 482, 483, 484, 485, 486, 487, 488, 489, 490, 491, 492, 493, 494, 495, 496, 497, 498, 499, 500],
      "AcquisitionTime": ["162352.142500", "162353.632500", "162355.122500", "162356.612500", "162358.102500", "162359.592500", "162401.082500", "162402.572500", "162404.062500", "162405.552500", "162407.042500", "162408.532500", "162410.022500", "162411.512500", "162413.002500", "162414.492500", "162415.982500", "162417.472500", "162418.962500", "162420.452500", "162421.942500", "162423.432500", "162424.922500", "162426.412500", "162427.902500", "162429.392500", "162430.882500", "162432.372500", "162433.862500", "162435.352500", "162436.842500", "162438.332500", "162439.822500", "162441.312500", "162442.802500", "162444.292500", "162445.782500", "162447.272500", "162448.762500", "162450.252500", "162451.742500", "162453.232500", "162454.722500", "162456.212500", "162457.702500", "162459.192500", "162500.682500", "162502.172500", "162503.662500", "162505.152500", "162506.642500", "162508.132500", "162509.622500", "162511.112500", "162512.602500", "162514.092500", "162515.582500", "162517.072500", "162518.562500", "162520.052500", "162521.542500", "162523.032500", "162524.522500", "162526.012500", "162527.502500", "162528.992500", "162530.482500", "162531.972500", "162533.462500", "162534.952500", "162536.442500", "162537.932500", "162539.422500", "162540.912500", "162542.402500", "162543.892500", "162545.382500", "162546.872500", "162548.362500", "162549.852500", "162551.342500", "162552.832500", "162554.322500", "162555.812500", "162557.302500", "162558.792500", "162600.282500", "162601.772500", "162603.262500", "162604.752500", "162606.242500", "162607.732500", "162609.222500", "162610.712500", "162612.202500", "162613.692500", "162615.182500", "162616.672500", "162618.162500", "162619.652500", "162621.142500", "162622.632500", "162624.122500", "162625.612500", "162627.102500", "162628.592500", "162630.082500", "162631.572500", "162633.062500", "162634.552500", "162636.042500", "162637.532500", "162639.022500", "162640.512500", "162642.002500", "162643.492500", "162644.982500", "162646.472500", "162647.962500", "162649.452500", "162650.942500", "162652.432500", "162653.922500", "162655.412500", "162656.902500", "162658.392500", "162659.882500", "162701.372500", "162702.862500", "162704.352500", "162705.842500", "162707.332500", "162708.822500", "162710.312500", "162711.802500", "162713.292500", "162714.782500", "162716.272500", "162717.762500", "162719.252500", "162720.742500", "162722.232500", "162723.722500", "162725.212500", "162726.702500", "162728.192500", "162729.682500", "162731.172500", "162732.662500", "162734.152500", "162735.642500", "162737.132500", "162738.622500", "162740.112500", "162741.602500", "162743.092500", "162744.582500", "162746.072500", "162747.562500", "162749.052500", "162750.542500", "162752.032500", "162753.522500", "162755.012500", "162756.502500", "162757.992500", "162759.482500", "162800.972500", "162802.462500", "162803.952500", "162805.442500", "162806.932500", "162808.422500", "162809.912500", "162811.402500", "162812.892500", "162814.382500", "162815.872500", "162817.362500", "162818.852500", "162820.342500", "162821.832500", "162823.322500", "162824.812500", "162826.302500", "162827.792500", "162829.282500", "162830.772500", "162832.262500", "162833.752500", "162835.242500", "162836.732500", "162838.222500", "162839.712500", "162841.202500", "162842.692500", "162844.182500", "162845.672500", "162847.162500", "162848.652500", "162850.142500", "162851.632500", "162853.122500", "162854.612500", "162856.102500", "162857.592500", "162859.082500", "162900.572500", "162902.062500", "162903.552500", "162905.042500", "162906.532500", "162908.022500", "162909.512500", "162911.002500", "162912.492500", "162913.982500", "162915.472500", "162916.962500", "162918.452500", "162919.942500", "162921.432500", "162922.922500", "162924.412500", "162925.902500", "162927.392500", "162928.882500", "162930.372500", "162931.862500", "162933.352500", "162934.842500", "162936.332500", "162937.822500", "162939.312500", "162940.802500", "162942.292500", "162943.782500", "162945.272500", "162946.762500", "162948.252500", "162949.742500", "162951.232500", "162952.722500", "162954.212500", "162955.702500", "162957.192500", "162958.682500", "163000.172500", "163001.662500", "163003.152500", "163004.642500", "163006.132500", "163007.622500", "163009.112500", "163010.602500", "163012.092500", "163013.582500", "163015.072500", "163016.562500", "163018.052500", "163019.542500", "163021.032500", "163022.522500", "163024.012500", "163025.502500", "163026.992500", "163028.482500", "163029.972500", "163031.462500", "163032.952500", "163034.442500", "163035.932500", "163037.422500", "163038.912500", "163040.402500", "163041.892500", "163043.382500", "163044.872500", "163046.362500", "163047.852500", "163049.342500", "163050.832500", "163052.322500", "163053.812500", "163055.302500", "163056.792500", "163058.282500", "163059.772500", "163101.262500", "163102.752500", "163104.242500", "163105.732500", "163107.222500", "163108.712500", "163110.202500", "163111.692500", "163113.182500", "163114.672500", "163116.162500", "163117.652500", "163119.142500", "163120.632500", "163122.122500", "163123.612500", "163125.102500", "163126.592500", "163128.082500", "163129.572500", "163131.062500", "163132.552500", "163134.042500", "163135.532500", "163137.022500", "163138.512500", "163140.002500", "163141.492500", "163142.982500", "163144.472500", "163145.962500", "163147.452500", "163148.942500", "163150.432500", "163151.922500", "163153.412500", "163154.902500", "163156.392500", "163157.882500", "163159.372500", "163200.862500", "163202.352500", "163203.842500", "163205.332500", "163206.822500", "163208.312500", "163209.802500", "163211.292500", "163212.782500", "163214.272500", "163215.762500", "163217.252500", "163218.742500", "163220.232500", "163221.722500", "163223.212500", "163224.702500", "163226.192500", "163227.682500", "163229.172500", "163230.662500", "163232.152500", "163233.642500", "163235.132500", "163236.622500", "163238.112500", "163239.602500", "163241.092500", "163242.582500", "163244.072500", "163245.562500", "163247.052500", "163248.542500", "163250.032500", "163251.522500", "163253.012500", "163254.502500", "163255.992500", "163257.482500", "163258.972500", "163300.462500", "163301.952500", "163303.442500", "163304.932500", "163306.422500", "163307.912500", "163309.402500", "163310.892500", "163312.382500", "163313.872500", "163315.362500", "163316.852500", "163318.342500", "163319.832500", "163321.322500", "163322.812500", "163324.302500", "163325.792500", "163327.282500", "163328.772500", "163330.262500", "163331.752500", "163333.242500", "163334.732500", "163336.222500", "163337.712500", "163339.202500", "163340.692500", "163342.182500", "163343.672500", "163345.162500", "163346.652500", "163348.142500", "163349.632500", "163351.122500", "163352.612500", "163354.102500", "163355.592500", "163357.082500", "163358.572500", "163400.062500", "163401.552500", "163403.042500", "163404.532500", "163406.022500", "163407.512500", "163409.002500", "163410.492500", "163411.982500", "163413.472500", "163414.962500", "163416.452500", "163417.942500", "163419.432500", "163420.922500", "163422.412500", "163423.902500", "163425.392500", "163426.882500", "163428.372500", "163429.862500", "163431.352500", "163432.842500", "163434.332500", "163435.822500", "163437.312500", "163438.802500", "163440.292500", "163441.782500", "163443.272500", "163444.762500", "163446.252500", "163447.742500", "163449.232500", "163450.722500", "163452.212500", "163453.702500", "163455.192500", "163456.682500", "163458.172500", "163459.662500", "163501.152500", "163502.642500", "163504.132500", "163505.622500", "163507.112500", "163508.602500", "163510.092500", "163511.582500", "163513.072500", "163514.562500", "163516.052500", "163517.542500", "163519.032500", "163520.522500", "163522.012500", "163523.502500", "163524.992500", "163526.482500", "163527.972500", "163529.462500", "163530.952500", "163532.442500", "163533.932500", "163535.422500", "163536.912500", "163538.402500", "163539.892500", "163541.382500", "163542.872500", "163544.362500", "163545.852500", "163547.342500", "163548.832500", "163550.322500", "163551.812500", "163553.302500", "163554.792500", "163556.282500", "163557.772500", "163559.262500", "163600.752500", "163602.242500", "163603.732500", "163605.222500", "163606.712500", "163608.202500", "163609.692500", "163611.182500", "163612.672500", "163614.162500", "163615.652500"],
      "ContentTime": ["162525.242000", "162525.246000", "162525.249000", "162525.253000", "162525.257000", "162525.261000", "162525.275000", "162525.278000", "162525.282000", "162525.286000", "162525.289000", "162525.293000", "162525.296000", "162525.300000", "162525.308000", "162525.312000", "162525.316000", "162525.320000", "162525.323000", "162525.327000", "162525.330000", "162525.334000", "162525.337000", "162525.341000", "162525.344000", "162525.348000", "162525.351000", "162525.354000", "162525.358000", "162525.362000", "162525.366000", "162525.369000", "162525.372000", "162525.376000", "162525.379000", "162525.382000", "162525.386000", "162525.389000", "162525.392000", "162545.204000", "162545.208000", "162545.211000", "162545.214000", "162545.218000", "162545.221000", "162545.224000", "162545.228000", "162545.231000", "162545.234000", "162545.238000", "162545.241000", "162545.244000", "162545.247000", "162545.251000", "162545.254000", "162545.257000", "162545.261000", "162545.264000", "162545.268000", "162605.204000", "162605.208000", "162605.211000", "162605.215000", "162605.218000", "162605.221000", "162605.225000", "162605.228000", "162605.231000", "162605.235000", "162605.238000", "162605.241000", "162605.245000", "162605.248000", "162605.251000", "162605.254000", "162605.258000", "162605.261000", "162605.264000", "162605.267000", "162625.204000", "162625.208000", "162625.211000", "162625.214000", "162625.218000", "162625.221000", "162625.224000", "162625.227000", "162625.231000", "162625.234000", "162625.237000", "162625.241000", "162625.244000", "162625.247000", "162625.250000", "162625.254000", "162625.257000", "162625.260000", "162625.263000", "162625.267000", "162705.204000", "162705.208000", "162705.211000", "162705.215000", "162705.218000", "162705.221000", "162705.225000", "162705.228000", "162705.231000", "162705.235000", "162705.238000", "162705.241000", "162705.255000", "162705.258000", "162705.262000", "162705.265000", "162705.268000", "162705.271000", "162705.275000", "162705.278000", "162705.281000", "162705.285000", "162705.288000", "162705.291000", "162705.295000", "162705.298000", "162705.301000", "162705.305000", "162705.308000", "162745.204000", "162745.208000", "162745.211000", "162745.215000", "162745.218000", "162745.221000", "162745.225000", "162745.228000", "162745.231000", "162745.235000", "162745.238000", "162745.241000", "162745.245000", "162745.248000", "162745.251000", "162745.254000", "162745.258000", "162745.261000", "162745.264000", "162745.268000", "162745.271000", "162745.274000", "162745.278000", "162745.281000", "162745.284000", "162745.287000", "162745.291000", "162825.204000", "162825.208000", "162825.211000", "162825.215000", "162825.218000", "162825.222000", "162825.225000", "162825.229000", "162825.232000", "162825.235000", "162825.239000", "162825.242000", "162825.245000", "162825.249000", "162825.252000", "162825.255000", "162825.259000", "162825.262000", "162825.265000", "162825.268000", "162825.272000", "162825.275000", "162825.278000", "162825.282000", "162825.285000", "162825.288000", "162825.292000", "162845.204000", "162845.208000", "162845.211000", "162845.215000", "162845.218000", "162845.221000", "162845.225000", "162845.228000", "162845.231000", "162845.235000", "162845.238000", "162845.241000", "162845.245000", "162845.248000", "162925.204000", "162925.208000", "162925.211000", "162925.215000", "162925.218000", "162925.221000", "162925.225000", "162925.228000", "162925.231000", "162925.235000", "162925.238000", "162925.241000", "162925.257000", "162925.261000", "162925.264000", "162925.267000", "162925.271000", "162925.274000", "162925.277000", "162925.281000", "162925.284000", "162925.287000", "162925.291000", "162925.294000", "162925.297000", "162925.301000", "163005.204000", "163005.208000", "163005.211000", "163005.215000", "163005.218000", "163005.222000", "163005.225000", "163005.228000", "163005.232000", "163005.235000", "163005.238000", "163005.242000", "163005.245000", "163005.248000", "163005.252000", "163005.255000", "163005.258000", "163005.262000", "163005.265000", "163005.268000", "163005.272000", "163005.275000", "163005.278000", "163005.282000", "163005.285000", "163005.288000", "163005.291000", "163045.204000", "163045.208000", "163045.211000", "163045.214000", "163045.218000", "163045.221000", "163045.224000", "163045.228000", "163045.231000", "163045.234000", "163045.238000", "163045.241000", "163045.244000", "163045.248000", "163045.251000", "163045.254000", "163045.257000", "163045.261000", "163045.264000", "163045.267000", "163045.271000", "163045.275000", "163045.278000", "163045.281000", "163045.284000", "163045.288000", "163045.291000", "163125.204000", "163125.208000", "163125.211000", "163125.215000", "163125.218000", "163125.221000", "163125.224000", "163125.228000", "163125.231000", "163125.235000", "163125.238000", "163125.241000", "163125.245000", "163125.248000", "163125.251000", "163125.255000", "163125.258000", "163125.261000", "163125.265000", "163125.268000", "163125.271000", "163125.275000", "163125.278000", "163125.281000", "163125.284000", "163125.299000", "163125.302000", "163205.204000", "163205.208000", "163205.211000", "163205.215000", "163205.218000", "163205.221000", "163205.225000", "163205.228000", "163205.231000", "163205.235000", "163205.238000", "163205.241000", "163205.245000", "163205.248000", "163205.251000", "163205.255000", "163205.258000", "163205.261000", "163205.264000", "163205.268000", "163205.271000", "163205.274000", "163205.278000", "163205.281000", "163205.284000", "163205.288000", "163205.291000", "163245.204000", "163245.208000", "163245.211000", "163245.215000", "163245.218000", "163245.221000", "163245.225000", "163245.228000", "163245.231000", "163245.235000", "163245.238000", "163245.241000", "163245.245000", "163245.248000", "163245.251000", "163245.255000", "163245.258000", "163245.261000", "163245.265000", "163245.268000", "163245.271000", "163245.275000", "163245.278000", "163245.281000", "163245.285000", "163245.288000", "163245.291000", "163325.204000", "163325.208000", "163325.211000", "163325.215000", "163325.218000", "163325.221000", "163325.225000", "163325.228000", "163325.233000", "163325.236000", "163325.240000", "163325.243000", "163325.246000", "163325.249000", "163325.253000", "163325.256000", "163325.260000", "163325.263000", "163325.267000", "163325.271000", "163325.274000", "163325.278000", "163325.282000", "163325.285000", "163325.289000", "163325.292000", "163405.204000", "163405.208000", "163405.211000", "163405.215000", "163405.218000", "163405.222000", "163405.225000", "163405.228000", "163405.232000", "163405.235000", "163405.238000", "163405.242000", "163405.245000", "163405.248000", "163405.252000", "163405.255000", "163405.258000", "163405.261000", "163405.265000", "163405.268000", "163405.271000", "163405.275000", "163405.278000", "163405.281000", "163405.285000", "163405.288000", "163405.291000", "163445.204000", "163445.208000", "163445.211000", "163445.215000", "163445.218000", "163445.221000", "163445.224000", "163445.228000", "163445.231000", "163445.234000", "163445.238000", "163445.241000", "163445.244000", "163445.248000", "163445.251000", "163445.254000", "163445.257000", "163445.261000", "163445.264000", "163445.267000", "163445.271000", "163445.274000", "163445.277000", "163445.281000", "163445.284000", "163445.287000", "163445.290000", "163525.204000", "163525.208000", "163525.211000", "163525.215000", "163525.218000", "163525.221000", "163525.225000", "163525.228000", "163525.231000", "163525.235000", "163525.238000", "163525.241000", "163525.245000", "163525.248000", "163525.251000", "163525.255000", "163525.258000", "163525.261000", "163525.264000", "163525.268000", "163525.271000", "163525.275000", "163525.278000", "163525.281000", "163525.284000", "163525.288000", "163525.291000", "163605.204000", "163605.208000", "163605.211000", "163605.215000", "163605.227000", "163605.230000", "163605.234000", "163605.237000", "163605.240000", "163605.244000", "163605.247000", "163605.250000", "163605.253000", "163605.257000", "163605.260000", "163605.263000", "163605.267000", "163605.270000", "163605.273000", "163605.277000", "163605.280000", "163605.283000", "163605.287000", "163605.290000", "163605.293000", "163605.296000", "163605.300000", "163619.122000", "163619.126000", "163619.129000", "163619.132000", "163619.136000", "163619.139000", "163619.142000", "163619.146000", "163619.149000"],
