{
  "AcquisitionMatrixPE": 104,
  "AcquisitionNumber": 1,
  "AcquisitionTime": "17:41:1.995000",
  "BandwidthPerPixelPhaseEncode": 17.17,
  "BaseResolution": 104,
  "BodyPartExamined": "BRAIN",
  "CoilCombinationMethod": "Sum of Squares",
  "ConsistencyInfo": "N4_VE11C_LATEST_20160120",
  "ConversionSoftware": "dcm2niix",
  "ConversionSoftwareVersion": "v1.0.20211006",
  "DerivedVendorReportedEchoSpacing": 0.000560011,
  "DeviceSerialNumber": "167006",
  "DwellTime": 2.1e-06,
  "EchoTime": 0.037,
  "EchoTime1": 0.037,
  "EchoTime2": 0.001,
  "EchoTrainLength": 104,
  "EffectiveEchoSpacing": 0.000560011,
  "FlipAngle": 52,
  "HeudiconvVersion": "0.11.3.post9+gc939bf8",
  "ImageComments": "Unaliased MB4/PE3/LB",
  "ImageOrientationPatientDICOM": [0.999411, -0.0337825, 0.0059822, 0.0335031, 0.923461, -0.382226],
  "ImageOrientationText": "Tra>Cor(-22.5)>Sag(-0.4)",
  "ImageType": [
    "ORIGINAL",
    "PRIMARY",
    "P",
    "MB",
    "ND",
    "MOSAIC",
    "PHASE"
],
  "ImagingFrequency": 123.259,
  "InPlanePhaseEncodingDirectionDICOM": "COL",
  "InstitutionAddress": "Chemin Queen-Mary 4565,Montreal,District,CA,H3W 1W5",
  "InstitutionName": "IUGM",
  "InstitutionalDepartmentName": "Department",
  "MRAcquisitionType": "2D",
  "MagneticFieldStrength": 3,
  "Manufacturer": "Siemens",
  "ManufacturersModelName": "Prisma_fit",
  "MatrixCoilMode": "SENSE",
  "Modality": "MR",
  "MultibandAccelerationFactor": 4,
  "PartialFourier": 1,
  "PatientPosition": "HFS",
  "PercentPhaseFOV": 100,
  "PercentSampling": 100,
  "PhaseEncodingDirection": "j",
  "PhaseEncodingSteps": 104,
  "PhaseResolution": 1,
  "PixelBandwidth": 2290,
  "ProcedureStepDescription": "games^mario",
  "ProtocolName": "func_task-mario_run-02",
  "PulseSequenceDetails": "%CustomerSeq%\\cmrr_mbep2d_bold",
  "ReceiveCoilActiveElements": "HC1-7;NC1,2",
  "ReceiveCoilName": "HeadNeck_64",
  "ReconMatrixPE": 104,
  "RepetitionTime": 1.49,
  "SAR": 0.0788032,
  "ScanOptions": "FS",
  "ScanningSequence": "EP",
  "SequenceName": "epfid2d1_104",
  "SequenceVariant": "SK\\SS",
  "SeriesDescription": "func_task-mario_run-02",
  "SeriesNumber": 14,
  "ShimSetting": [612, -7243, -8812, 431, 12, -344, -4, 27],
  "SliceThickness": 2,
  "SliceTiming": [0, 0.785, 0.0975, 0.8825, 0.195, 0.98, 0.295, 1.0775, 0.3925, 1.175, 0.49, 1.275, 0.5875, 1.3725, 0.685, 0, 0.785, 0.0975, 0.8825, 0.195, 0.98, 0.295, 1.0775, 0.3925, 1.175, 0.49, 1.275, 0.5875, 1.3725, 0.685, 0, 0.785, 0.0975, 0.8825, 0.195, 0.98, 0.295, 1.0775, 0.3925, 1.175, 0.49, 1.275, 0.5875, 1.3725, 0.685, 0, 0.785, 0.0975, 0.8825, 0.195, 0.98, 0.295, 1.0775, 0.3925, 1.175, 0.49, 1.275, 0.5875, 1.3725, 0.685],
  "SoftwareVersions": "syngo MR E11",
  "SpacingBetweenSlices": 2,
  "StationName": "MRC35049",
  "TaskName": "mario",
  "TotalReadoutTime": 0.0576811,
  "TxRefAmp": 302.96,
  "WipMemBlock": "1fc8c732-3c9b-4e48-a8ec-004e63aeebc9||Sequence: R017 ve11c/master r/75a17815+; Jun 28 2022 16:32:11 by eja",
  "dcmmeta_affine": [
    [-1.998822569847107, 0.06700628995895386, -0.014776492491364479, 100.79280090332031],
    [0.06756509095430374, 1.846922516822815, -0.7644031643867493, -70.15653991699219],
    [0.01196439377963543, 0.764452338218689, 1.848098874092102, -64.12813568115234],
    [0.0, 0.0, 0.0, 1.0]
],
  "dcmmeta_reorient_transform": [
    [0.0, -1.0, 0.0, 103.0],
    [1.0, 0.0, 0.0, 0.0],
    [0.0, 0.0, 1.0, 0.0],
    [0.0, 0.0, 0.0, 1.0]
],
  "dcmmeta_shape": [104, 104, 60, 454],
  "dcmmeta_slice_dim": 2,
  "dcmmeta_version": 0.6,
  "global": {
    "const": {
      "AcquisitionMatrix": [104, 0, 0, 104],
      "AngioFlag": "N",
      "BitsAllocated": 16,
      "BitsStored": 16,
      "BodyPartExamined": "BRAIN",
      "Columns": 832,
      "EchoNumbers": 1,
      "EchoTime": 37.0,
      "EchoTrainLength": 104,
      "FlipAngle": 52.0,
      "HighBit": 15,
      "ImageOrientationPatient": [0.99941130321184, -0.0337825448118, 0.00598219679235, 0.03350314658348, 0.92346125268319, -0.3822261816802],
      "ImagePositionPatient": [-859.65617019948, -767.76257928191, 288.51607834293],
      "ImageType": [
        "ORIGINAL",
        "PRIMARY",
        "P",
        "MB",
        "ND",
        "MOSAIC"
],
      "ImagedNucleus": "1H",
      "ImagingFrequency": 123.258779,
      "InPlanePhaseEncodingDirection": "COL",
      "LargestImagePixelValue": 4095,
      "MRAcquisitionType": "2D",
      "MagneticFieldStrength": 3.0,
      "Manufacturer": "SIEMENS",
      "ManufacturerModelName": "Prisma_fit",
      "Modality": "MR",
      "NumberOfAverages": 1.0,
      "NumberOfPhaseEncodingSteps": 104,
      "PercentPhaseFieldOfView": 100.0,
      "PercentSampling": 100.0,
      "PerformedProcedureStepStartTime": "165540.042000",
      "PhotometricInterpretation": "MONOCHROME2",
      "PixelBandwidth": 2290.0,
      "PixelRepresentation": 0,
      "PixelSpacing": [2.0, 2.0],
      "ProtocolName": "func_task-mario_run-02",
      "RepetitionTime": 1490.0,
      "RescaleIntercept": -4096.0,
      "RescaleSlope": 2.0,
      "RescaleType": "US",
      "Rows": 832,
      "SAR": 0.07880321553469,
      "SamplesPerPixel": 1,
      "ScanOptions": "FS",
      "ScanningSequence": "EP",
      "SequenceName": "epfid2d1_104",
      "SequenceVariant": [
        "SK",
        "SS"
],
      "SeriesDescription": "func_task-mario_run-02",
      "SeriesNumber": 14,
      "SeriesTime": "174156.977000",
      "SliceLocation": -33.188309661877,
      "SliceThickness": 2.0,
      "SmallestImagePixelValue": 0,
      "SoftwareVersions": "syngo MR E11",
      "SpacingBetweenSlices": 1.9999999598905,
      "SpecificCharacterSet": "ISO_IR 100",
      "StudyID": "1",
      "StudyTime": "165539.801000",
      "TransmitCoilName": "Body",
      "VariableFlipAngleFlag": "N",
      "WindowCenterWidthExplanation": "Algo1",
      "dBdt": 0.0},
    "slices": {}
  },
  "time": {
    "samples": {
      "AcquisitionNumber": [1, 2, 3, 4, 5, 6, 7, 8, 9, 10, 11, 12, 13, 14, 15, 16, 17, 18, 19, 20, 21, 22, 23, 24, 25, 26, 27, 28, 29, 30, 31, 32, 33, 34, 35, 36, 37, 38, 39, 40, 41, 42, 43, 44, 45, 46, 47, 48, 49, 50, 51, 52, 53, 54, 55, 56, 57, 58, 59, 60, 61, 62, 63, 64, 65, 66, 67, 68, 69, 70, 71, 72, 73, 74, 75, 76, 77, 78, 79, 80, 81, 82, 83, 84, 85, 86, 87, 88, 89, 90, 91, 92, 93, 94, 95, 96, 97, 98, 99, 100, 101, 102, 103, 104, 105, 106, 107, 108, 109, 110, 111, 112, 113, 114, 115, 116, 117, 118, 119, 120, 121, 122, 123, 124, 125, 126, 127, 128, 129, 130, 131, 132, 133, 134, 135, 136, 137, 138, 139, 140, 141, 142, 143, 144, 145, 146, 147, 148, 149, 150, 151, 152, 153, 154, 155, 156, 157, 158, 159, 160, 161, 162, 163, 164, 165, 166, 167, 168, 169, 170, 171, 172, 173, 174, 175, 176, 177, 178, 179, 180, 181, 182, 183, 184, 185, 186, 187, 188, 189, 190, 191, 192, 193, 194, 195, 196, 197, 198, 199, 200, 201, 202, 203, 204, 205, 206, 207, 208, 209, 210, 211, 212, 213, 214, 215, 216, 217, 218, 219, 220, 221, 222, 223, 224, 225, 226, 227, 228, 229, 230, 231, 232, 233, 234, 235, 236, 237, 238, 239, 240, 241, 242, 243, 244, 245, 246, 247, 248, 249, 250, 251, 252, 253, 254, 255, 256, 257, 258, 259, 260, 261, 262, 263, 264, 265, 266, 267, 268, 269, 270, 271, 272, 273, 274, 275, 276, 277, 278, 279, 280, 281, 282, 283, 284, 285, 286, 287, 288, 289, 290, 291, 292, 293, 294, 295, 296, 297, 298, 299, 300, 301, 302, 303, 304, 305, 306, 307, 308, 309, 310, 311, 312, 313, 314, 315, 316, 317, 318, 319, 320, 321, 322, 323, 324, 325, 326, 327, 328, 329, 330, 331, 332, 333, 334, 335, 336, 337, 338, 339, 340, 341, 342, 343, 344, 345, 346, 347, 348, 349, 350, 351, 352, 353, 354, 355, 356, 357, 358, 359, 360, 361, 362, 363, 364, 365, 366, 367, 368, 369, 370, 371, 372, 373, 374, 375, 376, 377, 378, 379, 380, 381, 382, 383, 384, 385, 386, 387, 388, 389, 390, 391, 392, 393, 394, 395, 396, 397, 398, 399, 400, 401, 402, 403, 404, 405, 406, 407, 408, 409, 410, 411, 412, 413, 414, 415, 416, 417, 418, 419, 420, 421, 422, 423, 424, 425, 426, 427, 428, 429, 430, 431, 432, 433, 434, 435, 436, 437, 438, 439, 440, 441, 442, 443, 444, 445, 446, 447, 448, 449, 450, 451, 452, 453, 454],
      "AcquisitionTime": ["174101.995000", "174103.485000", "174104.975000", "174106.465000", "174107.955000", "174109.445000", "174110.935000", "174112.425000", "174113.915000", "174115.405000", "174116.895000", "174118.385000", "174119.875000", "174121.365000", "174122.855000", "174124.345000", "174125.835000", "174127.325000", "174128.815000", "174130.305000", "174131.795000", "174133.285000", "174134.775000", "174136.265000", "174137.755000", "174139.245000", "174140.735000", "174142.225000", "174143.715000", "174145.205000", "174146.695000", "174148.185000", "174149.675000", "174151.165000", "174152.655000", "174154.145000", "174155.635000", "174157.125000", "174158.615000", "174200.105000", "174201.595000", "174203.085000", "174204.575000", "174206.065000", "174207.555000", "174209.045000", "174210.535000", "174212.025000", "174213.515000", "174215.005000", "174216.495000", "174217.985000", "174219.475000", "174220.965000", "174222.455000", "174223.945000", "174225.435000", "174226.925000", "174228.415000", "174229.905000", "174231.395000", "174232.885000", "174234.375000", "174235.865000", "174237.355000", "174238.845000", "174240.335000", "174241.825000", "174243.315000", "174244.805000", "174246.295000", "174247.785000", "174249.275000", "174250.765000", "174252.255000", "174253.745000", "174255.235000", "174256.725000", "174258.215000", "174259.705000", "174301.195000", "174302.685000", "174304.175000", "174305.665000", "174307.155000", "174308.645000", "174310.135000", "174311.625000", "174313.115000", "174314.605000", "174316.095000", "174317.585000", "174319.075000", "174320.565000", "174322.055000", "174323.545000", "174325.035000", "174326.525000", "174328.015000", "174329.505000", "174330.995000", "174332.485000", "174333.975000", "174335.465000", "174336.955000", "174338.445000", "174339.935000", "174341.425000", "174342.915000", "174344.405000", "174345.895000", "174347.385000", "174348.875000", "174350.365000", "174351.855000", "174353.345000", "174354.835000", "174356.325000", "174357.815000", "174359.305000", "174400.795000", "174402.285000", "174403.775000", "174405.265000", "174406.755000", "174408.245000", "174409.735000", "174411.225000", "174412.715000", "174414.205000", "174415.695000", "174417.185000", "174418.675000", "174420.165000", "174421.655000", "174423.145000", "174424.635000", "174426.125000", "174427.615000", "174429.105000", "174430.595000", "174432.085000", "174433.575000", "174435.065000", "174436.555000", "174438.045000", "174439.535000", "174441.025000", "174442.515000", "174444.005000", "174445.495000", "174446.985000", "174448.475000", "174449.965000", "174451.455000", "174452.945000", "174454.435000", "174455.925000", "174457.415000", "174458.905000", "174500.395000", "174501.885000", "174503.375000", "174504.865000", "174506.355000", "174507.845000", "174509.335000", "174510.825000", "174512.315000", "174513.805000", "174515.295000", "174516.785000", "174518.275000", "174519.765000", "174521.255000", "174522.745000", "174524.235000", "174525.725000", "174527.215000", "174528.705000", "174530.195000", "174531.685000", "174533.175000", "174534.665000", "174536.155000", "174537.645000", "174539.135000", "174540.625000", "174542.115000", "174543.605000", "174545.095000", "174546.585000", "174548.075000", "174549.565000", "174551.055000", "174552.545000", "174554.035000", "174555.525000", "174557.015000", "174558.505000", "174559.995000", "174601.485000", "174602.975000", "174604.465000", "174605.955000", "174607.445000", "174608.935000", "174610.425000", "174611.915000", "174613.405000", "174614.895000", "174616.385000", "174617.875000", "174619.365000", "174620.855000", "174622.345000", "174623.835000", "174625.325000", "174626.815000", "174628.305000", "174629.795000", "174631.285000", "174632.775000", "174634.265000", "174635.755000", "174637.245000", "174638.735000", "174640.225000", "174641.715000", "174643.205000", "174644.695000", "174646.185000", "174647.675000", "174649.165000", "174650.655000", "174652.145000", "174653.635000", "174655.125000", "174656.615000", "174658.105000", "174659.595000", "174701.085000", "174702.575000", "174704.065000", "174705.555000", "174707.045000", "174708.535000", "174710.025000", "174711.515000", "174713.005000", "174714.495000", "174715.985000", "174717.475000", "174718.965000", "174720.455000", "174721.945000", "174723.435000", "174724.925000", "174726.415000", "174727.905000", "174729.395000", "174730.885000", "174732.375000", "174733.865000", "174735.355000", "174736.845000", "174738.335000", "174739.825000", "174741.315000", "174742.805000", "174744.295000", "174745.785000", "174747.275000", "174748.765000", "174750.255000", "174751.745000", "174753.235000", "174754.725000", "174756.215000", "174757.705000", "174759.195000", "174800.685000", "174802.175000", "174803.665000", "174805.155000", "174806.645000", "174808.135000", "174809.625000", "174811.115000", "174812.605000", "174814.095000", "174815.585000", "174817.075000", "174818.565000", "174820.055000", "174821.545000", "174823.035000", "174824.525000", "174826.015000", "174827.505000", "174828.995000", "174830.485000", "174831.975000", "174833.465000", "174834.955000", "174836.445000", "174837.935000", "174839.425000", "174840.915000", "174842.405000", "174843.895000", "174845.385000", "174846.875000", "174848.365000", "174849.855000", "174851.345000", "174852.835000", "174854.325000", "174855.815000", "174857.305000", "174858.795000", "174900.285000", "174901.775000", "174903.265000", "174904.755000", "174906.245000", "174907.735000", "174909.225000", "174910.715000", "174912.205000", "174913.695000", "174915.185000", "174916.675000", "174918.165000", "174919.655000", "174921.145000", "174922.635000", "174924.125000", "174925.615000", "174927.105000", "174928.595000", "174930.085000", "174931.575000", "174933.065000", "174934.555000", "174936.045000", "174937.535000", "174939.025000", "174940.515000", "174942.005000", "174943.495000", "174944.985000", "174946.475000", "174947.965000", "174949.455000", "174950.945000", "174952.435000", "174953.925000", "174955.415000", "174956.905000", "174958.395000", "174959.885000", "175001.375000", "175002.865000", "175004.355000", "175005.845000", "175007.335000", "175008.825000", "175010.315000", "175011.805000", "175013.295000", "175014.785000", "175016.275000", "175017.765000", "175019.255000", "175020.745000", "175022.235000", "175023.725000", "175025.215000", "175026.705000", "175028.195000", "175029.685000", "175031.175000", "175032.665000", "175034.155000", "175035.645000", "175037.135000", "175038.625000", "175040.115000", "175041.605000", "175043.095000", "175044.585000", "175046.075000", "175047.565000", "175049.055000", "175050.545000", "175052.035000", "175053.525000", "175055.015000", "175056.505000", "175057.995000", "175059.485000", "175100.975000", "175102.465000", "175103.955000", "175105.445000", "175106.935000", "175108.425000", "175109.915000", "175111.405000", "175112.895000", "175114.385000", "175115.875000", "175117.365000", "175118.855000", "175120.345000", "175121.835000", "175123.325000", "175124.815000", "175126.305000", "175127.795000", "175129.285000", "175130.775000", "175132.265000", "175133.755000", "175135.245000", "175136.735000", "175138.225000", "175139.715000", "175141.205000", "175142.695000", "175144.185000", "175145.675000", "175147.165000", "175148.655000", "175150.145000", "175151.635000", "175153.125000", "175154.615000", "175156.105000", "175157.595000", "175159.085000", "175200.575000", "175202.065000", "175203.555000", "175205.045000", "175206.535000", "175208.025000", "175209.515000", "175211.005000", "175212.495000", "175213.985000", "175215.475000", "175216.965000"],
      "ContentTime": ["174156.979000", "174156.982000", "174156.984000", "174156.991000", "174217.039000", "174217.042000", "174217.045000", "174217.055000", "174217.058000", "174217.060000", "174217.063000", "174217.066000", "174217.068000", "174217.071000", "174217.073000", "174217.076000", "174217.078000", "174217.081000", "174217.083000", "174217.086000", "174217.089000", "174217.091000", "174217.099000", "174217.102000", "174237.049000", "174237.052000", "174237.055000", "174237.057000", "174237.060000", "174237.062000", "174237.065000", "174237.077000", "174237.079000", "174237.081000", "174237.084000", "174237.086000", "174237.089000", "174237.091000", "174237.094000", "174237.096000", "174237.099000", "174237.101000", "174237.104000", "174237.107000", "174257.037000", "174257.040000", "174257.043000", "174257.045000", "174257.048000", "174257.050000", "174257.053000", "174257.055000", "174257.058000", "174257.060000", "174257.063000", "174257.065000", "174257.068000", "174257.071000", "174257.073000", "174257.076000", "174257.078000", "174257.081000", "174257.083000", "174257.086000", "174257.088000", "174317.019000", "174317.022000", "174317.024000", "174317.027000", "174317.029000", "174317.032000", "174317.034000", "174317.037000", "174317.039000", "174317.042000", "174317.044000", "174317.047000", "174317.050000", "174317.052000", "174317.055000", "174317.057000", "174317.060000", "174317.062000", "174317.065000", "174317.067000", "174357.096000", "174357.099000", "174357.101000", "174357.104000", "174357.106000", "174357.109000", "174357.112000", "174357.114000", "174357.117000", "174357.119000", "174357.122000", "174357.124000", "174357.127000", "174357.130000", "174357.132000", "174357.135000", "174357.137000", "174357.140000", "174357.142000", "174357.145000", "174357.148000", "174357.150000", "174357.153000", "174357.155000", "174357.158000", "174357.160000", "174357.163000", "174357.165000", "174357.168000", "174357.171000", "174357.173000", "174357.176000", "174437.047000", "174437.050000", "174437.052000", "174437.055000", "174437.057000", "174437.060000", "174437.062000", "174437.065000", "174437.067000", "174437.070000", "174437.072000", "174437.075000", "174437.077000", "174437.080000", "174437.082000", "174437.085000", "174437.088000", "174437.090000", "174437.093000", "174437.095000", "174437.098000", "174437.100000", "174437.103000", "174437.105000", "174437.108000", "174437.110000", "174517.077000", "174517.080000", "174517.083000", "174517.085000", "174517.088000", "174517.090000", "174517.093000", "174517.095000", "174517.098000", "174517.100000", "174517.103000", "174517.106000", "174517.108000", "174517.111000", "174517.113000", "174517.116000", "174517.118000", "174517.121000", "174517.123000", "174517.126000", "174517.129000", "174517.131000", "174517.134000", "174517.136000", "174517.139000", "174517.141000", "174517.144000", "174557.051000", "174557.053000", "174557.056000", "174557.059000", "174557.061000", "174557.064000", "174557.066000", "174557.069000", "174557.071000", "174557.074000", "174557.076000", "174557.079000", "174557.082000", "174557.084000", "174557.087000", "174557.090000", "174557.092000", "174557.095000", "174557.097000", "174557.100000", "174557.102000", "174557.105000", "174557.107000", "174557.110000", "174557.113000", "174557.115000", "174557.118000", "174637.065000", "174637.068000", "174637.071000", "174637.073000", "174637.076000", "174637.078000", "174637.081000", "174637.083000", "174637.086000", "174637.088000", "174637.091000", "174637.094000", "174637.096000", "174637.099000", "174637.102000", "174637.104000", "174637.107000", "174637.109000", "174637.112000", "174637.114000", "174637.117000", "174637.119000", "174637.122000", "174637.124000", "174637.127000", "174637.129000", "174637.132000", "174717.523000", "174717.526000", "174717.529000", "174717.531000", "174717.534000", "174717.536000", "174717.539000", "174717.542000", "174717.544000", "174717.547000", "174717.549000", "174717.552000", "174717.554000", "174717.557000", "174717.559000", "174717.562000", "174717.564000", "174717.567000", "174717.569000", "174717.572000", "174717.574000", "174717.577000", "174717.579000", "174717.582000", "174717.585000", "174717.587000", "174717.590000", "174736.979000", "174736.982000", "174736.985000", "174736.987000", "174736.990000", "174736.992000", "174736.995000", "174736.997000", "174737.001000", "174737.003000", "174737.006000", "174737.008000", "174737.011000", "174817.050000", "174817.053000", "174817.056000", "174817.058000", "174817.061000", "174817.063000", "174817.066000", "174817.068000", "174817.071000", "174817.073000", "174817.076000", "174817.078000", "174817.081000", "174817.083000", "174817.086000", "174817.088000", "174817.091000", "174817.093000", "174817.096000", "174817.099000", "174817.101000", "174817.104000", "174817.106000", "174817.109000", "174817.111000", "174817.114000", "174817.116000", "174857.065000", "174857.068000", "174857.070000", "174857.073000", "174857.075000", "174857.078000", "174857.080000", "174857.083000", "174857.093000", "174857.096000", "174857.098000", "174857.101000", "174857.103000", "174857.106000", "174857.108000", "174857.111000", "174857.113000", "174857.116000", "174857.119000", "174857.122000", "174857.124000", "174857.127000", "174857.129000", "174857.132000", "174857.134000", "174857.137000", "174857.140000", "174937.061000", "174937.064000", "174937.067000", "174937.069000", "174937.072000", "174937.074000", "174937.077000", "174937.079000", "174937.082000", "174937.084000", "174937.087000", "174937.089000", "174937.092000", "174937.094000", "174937.097000", "174937.099000", "174937.102000", "174937.105000", "174937.107000", "174937.110000", "174937.112000", "174937.115000", "174937.117000", "174937.120000", "174937.122000", "174937.125000", "174937.127000", "175017.058000", "175017.061000", "175017.063000", "175017.066000", "175017.068000", "175017.071000", "175017.074000", "175017.076000", "175017.079000", "175017.081000", "175017.084000", "175017.087000", "175017.089000", "175017.092000", "175017.094000", "175017.098000", "175017.101000", "175017.104000", "175017.106000", "175017.109000", "175017.111000", "175017.114000", "175017.117000", "175017.119000", "175017.122000", "175017.124000", "175017.127000", "175057.100000", "175057.112000", "175057.114000", "175057.117000", "175057.119000", "175057.122000", "175057.124000", "175057.127000", "175057.130000", "175057.132000", "175057.135000", "175057.138000", "175057.140000", "175057.143000", "175057.145000", "175057.148000", "175057.151000", "175057.153000", "175057.156000", "175057.159000", "175057.161000", "175057.164000", "175057.166000", "175057.169000", "175057.171000", "175057.175000", "175057.178000", "175137.076000", "175137.078000", "175137.081000", "175137.083000", "175137.086000", "175137.088000", "175137.091000", "175137.094000", "175137.096000", "175137.099000", "175137.101000", "175137.104000", "175137.106000", "175137.109000", "175137.112000", "175137.114000", "175137.117000", "175137.119000", "175137.122000", "175137.124000", "175137.127000", "175137.130000", "175137.132000", "175137.135000", "175137.138000", "175137.141000", "175217.060000", "175217.063000", "175217.065000", "175217.068000", "175217.070000", "175217.073000", "175217.076000", "175217.078000", "175217.081000", "175217.083000", "175217.086000", "175217.088000", "175217.091000", "175217.094000", "175217.096000", "175217.099000", "175217.101000", "175217.104000", "175217.115000", "175217.117000", "175217.120000", "175217.122000", "175217.125000", "175217.128000", "175217.130000", "175217.133000", "175217.135000", "175220.267000", "175220.270000"],
