{
  "AcquisitionMatrixPE": 104,
  "AcquisitionNumber": 1,
  "AcquisitionTime": "17:41:1.995000",
  "BandwidthPerPixelPhaseEncode": 17.17,
  "BaseResolution": 104,
  "BodyPartExamined": "BRAIN",
  "CoilCombinationMethod": "Sum of Squares",
  "ConsistencyInfo": "N4_VE11C_LATEST_20160120",
  "ConversionSoftware": "dcm2niix",
  "ConversionSoftwareVersion": "v1.0.20211006",
  "DerivedVendorReportedEchoSpacing": 0.000560011,
  "DeviceSerialNumber": "167006",
  "DwellTime": 2.1e-06,
  "EchoTime": 0.037,
  "EchoTrainLength": 104,
  "EffectiveEchoSpacing": 0.000560011,
  "FlipAngle": 52,
  "HeudiconvVersion": "0.11.3.post9+gc939bf8",
  "ImageComments": "Unaliased MB4/PE3/LB",
  "ImageOrientationPatientDICOM": [0.999411, -0.0337825, 0.0059822, 0.0335031, 0.923461, -0.382226],
  "ImageOrientationText": "Tra>Cor(-22.5)>Sag(-0.4)",
  "ImageType": [
    "ORIGINAL",
    "PRIMARY",
    "M",
    "MB",
    "ND",
    "MOSAIC"
],
  "ImagingFrequency": 123.259,
  "InPlanePhaseEncodingDirectionDICOM": "COL",
  "InstitutionAddress": "Chemin Queen-Mary 4565,Montreal,District,CA,H3W 1W5",
  "InstitutionName": "IUGM",
  "InstitutionalDepartmentName": "Department",
  "MRAcquisitionType": "2D",
  "MagneticFieldStrength": 3,
  "Manufacturer": "Siemens",
  "ManufacturersModelName": "Prisma_fit",
  "MatrixCoilMode": "SENSE",
  "Modality": "MR",
  "MultibandAccelerationFactor": 4,
  "PartialFourier": 1,
  "PatientPosition": "HFS",
  "PercentPhaseFOV": 100,
  "PercentSampling": 100,
  "PhaseEncodingDirection": "j",
  "PhaseEncodingSteps": 104,
  "PhaseResolution": 1,
  "PixelBandwidth": 2290,
  "ProcedureStepDescription": "games^mario",
  "ProtocolName": "func_task-mario_run-02",
  "PulseSequenceDetails": "%CustomerSeq%\\cmrr_mbep2d_bold",
  "ReceiveCoilActiveElements": "HC1-7;NC1,2",
  "ReceiveCoilName": "HeadNeck_64",
  "ReconMatrixPE": 104,
  "RepetitionTime": 1.49,
  "SAR": 0.0788032,
  "ScanOptions": "FS",
  "ScanningSequence": "EP",
  "SequenceName": "epfid2d1_104",
  "SequenceVariant": "SK\\SS",
  "SeriesDescription": "func_task-mario_run-02",
  "SeriesNumber": 13,
  "ShimSetting": [612, -7243, -8812, 431, 12, -344, -4, 27],
  "SliceThickness": 2,
  "SliceTiming": [0, 0.785, 0.0975, 0.8825, 0.195, 0.98, 0.295, 1.0775, 0.3925, 1.175, 0.49, 1.275, 0.5875, 1.3725, 0.685, 0, 0.785, 0.0975, 0.8825, 0.195, 0.98, 0.295, 1.0775, 0.3925, 1.175, 0.49, 1.275, 0.5875, 1.3725, 0.685, 0, 0.785, 0.0975, 0.8825, 0.195, 0.98, 0.295, 1.0775, 0.3925, 1.175, 0.49, 1.275, 0.5875, 1.3725, 0.685, 0, 0.785, 0.0975, 0.8825, 0.195, 0.98, 0.295, 1.0775, 0.3925, 1.175, 0.49, 1.275, 0.5875, 1.3725, 0.685],
  "SoftwareVersions": "syngo MR E11",
  "SpacingBetweenSlices": 2,
  "StationName": "MRC35049",
  "TaskName": "mario",
  "TotalReadoutTime": 0.0576811,
  "TxRefAmp": 302.96,
  "WipMemBlock": "1fc8c732-3c9b-4e48-a8ec-004e63aeebc9||Sequence: R017 ve11c/master r/75a17815+; Jun 28 2022 16:32:11 by eja",
  "dcmmeta_affine": [
    [-1.998822569847107, 0.06700628995895386, -0.014776492491364479, 100.79280090332031],
    [0.06756509095430374, 1.846922516822815, -0.7644031643867493, -70.15653991699219],
    [0.01196439377963543, 0.764452338218689, 1.848098874092102, -64.12813568115234],
    [0.0, 0.0, 0.0, 1.0]
],
  "dcmmeta_reorient_transform": [
    [0.0, -1.0, 0.0, 103.0],
    [1.0, 0.0, 0.0, 0.0],
    [0.0, 0.0, 1.0, 0.0],
    [0.0, 0.0, 0.0, 1.0]
],
  "dcmmeta_shape": [104, 104, 60, 454],
  "dcmmeta_slice_dim": 2,
  "dcmmeta_version": 0.6,
  "global": {
    "const": {
      "AcquisitionMatrix": [104, 0, 0, 104],
      "AngioFlag": "N",
      "BitsAllocated": 16,
      "BitsStored": 16,
      "BodyPartExamined": "BRAIN",
      "Columns": 832,
      "EchoNumbers": 1,
      "EchoTime": 37.0,
      "EchoTrainLength": 104,
      "FlipAngle": 52.0,
      "HighBit": 15,
      "ImageOrientationPatient": [0.99941130321184, -0.0337825448118, 0.00598219679235, 0.03350314658348, 0.92346125268319, -0.3822261816802],
      "ImagePositionPatient": [-859.65617019948, -767.76257928191, 288.51607834293],
      "ImageType": [
        "ORIGINAL",
        "PRIMARY",
        "M",
        "MB",
        "ND",
        "MOSAIC"
],
      "ImagedNucleus": "1H",
      "ImagingFrequency": 123.258779,
      "InPlanePhaseEncodingDirection": "COL",
      "MRAcquisitionType": "2D",
      "MagneticFieldStrength": 3.0,
      "Manufacturer": "SIEMENS",
      "ManufacturerModelName": "Prisma_fit",
      "Modality": "MR",
      "NumberOfAverages": 1.0,
      "NumberOfPhaseEncodingSteps": 104,
      "PercentPhaseFieldOfView": 100.0,
      "PercentSampling": 100.0,
      "PerformedProcedureStepStartTime": "165540.042000",
      "PhotometricInterpretation": "MONOCHROME2",
      "PixelBandwidth": 2290.0,
      "PixelRepresentation": 0,
      "PixelSpacing": [2.0, 2.0],
      "ProtocolName": "func_task-mario_run-02",
      "RepetitionTime": 1490.0,
      "Rows": 832,
      "SAR": 0.07880321553469,
      "SamplesPerPixel": 1,
      "ScanOptions": "FS",
      "ScanningSequence": "EP",
      "SequenceName": "epfid2d1_104",
      "SequenceVariant": [
        "SK",
        "SS"
],
      "SeriesDescription": "func_task-mario_run-02",
      "SeriesNumber": 13,
      "SeriesTime": "174156.939000",
      "SliceLocation": -33.188309661877,
      "SliceThickness": 2.0,
      "SmallestImagePixelValue": 0,
      "SoftwareVersions": "syngo MR E11",
      "SpacingBetweenSlices": 1.9999999598905,
      "SpecificCharacterSet": "ISO_IR 100",
      "StudyID": "1",
      "StudyTime": "165539.801000",
      "TransmitCoilName": "Body",
      "VariableFlipAngleFlag": "N",
      "WindowCenterWidthExplanation": "Algo1",
      "dBdt": 0.0},
    "slices": {}
  },
  "time": {
    "samples": {
      "AcquisitionNumber": [1, 2, 3, 4, 5, 6, 7, 8, 9, 10, 11, 12, 13, 14, 15, 16, 17, 18, 19, 20, 21, 22, 23, 24, 25, 26, 27, 28, 29, 30, 31, 32, 33, 34, 35, 36, 37, 38, 39, 40, 41, 42, 43, 44, 45, 46, 47, 48, 49, 50, 51, 52, 53, 54, 55, 56, 57, 58, 59, 60, 61, 62, 63, 64, 65, 66, 67, 68, 69, 70, 71, 72, 73, 74, 75, 76, 77, 78, 79, 80, 81, 82, 83, 84, 85, 86, 87, 88, 89, 90, 91, 92, 93, 94, 95, 96, 97, 98, 99, 100, 101, 102, 103, 104, 105, 106, 107, 108, 109, 110, 111, 112, 113, 114, 115, 116, 117, 118, 119, 120, 121, 122, 123, 124, 125, 126, 127, 128, 129, 130, 131, 132, 133, 134, 135, 136, 137, 138, 139, 140, 141, 142, 143, 144, 145, 146, 147, 148, 149, 150, 151, 152, 153, 154, 155, 156, 157, 158, 159, 160, 161, 162, 163, 164, 165, 166, 167, 168, 169, 170, 171, 172, 173, 174, 175, 176, 177, 178, 179, 180, 181, 182, 183, 184, 185, 186, 187, 188, 189, 190, 191, 192, 193, 194, 195, 196, 197, 198, 199, 200, 201, 202, 203, 204, 205, 206, 207, 208, 209, 210, 211, 212, 213, 214, 215, 216, 217, 218, 219, 220, 221, 222, 223, 224, 225, 226, 227, 228, 229, 230, 231, 232, 233, 234, 235, 236, 237, 238, 239, 240, 241, 242, 243, 244, 245, 246, 247, 248, 249, 250, 251, 252, 253, 254, 255, 256, 257, 258, 259, 260, 261, 262, 263, 264, 265, 266, 267, 268, 269, 270, 271, 272, 273, 274, 275, 276, 277, 278, 279, 280, 281, 282, 283, 284, 285, 286, 287, 288, 289, 290, 291, 292, 293, 294, 295, 296, 297, 298, 299, 300, 301, 302, 303, 304, 305, 306, 307, 308, 309, 310, 311, 312, 313, 314, 315, 316, 317, 318, 319, 320, 321, 322, 323, 324, 325, 326, 327, 328, 329, 330, 331, 332, 333, 334, 335, 336, 337, 338, 339, 340, 341, 342, 343, 344, 345, 346, 347, 348, 349, 350, 351, 352, 353, 354, 355, 356, 357, 358, 359, 360, 361, 362, 363, 364, 365, 366, 367, 368, 369, 370, 371, 372, 373, 374, 375, 376, 377, 378, 379, 380, 381, 382, 383, 384, 385, 386, 387, 388, 389, 390, 391, 392, 393, 394, 395, 396, 397, 398, 399, 400, 401, 402, 403, 404, 405, 406, 407, 408, 409, 410, 411, 412, 413, 414, 415, 416, 417, 418, 419, 420, 421, 422, 423, 424, 425, 426, 427, 428, 429, 430, 431, 432, 433, 434, 435, 436, 437, 438, 439, 440, 441, 442, 443, 444, 445, 446, 447, 448, 449, 450, 451, 452, 453, 454],
      "AcquisitionTime": ["174101.995000", "174103.485000", "174104.975000", "174106.465000", "174107.955000", "174109.445000", "174110.935000", "174112.425000", "174113.915000", "174115.405000", "174116.895000", "174118.385000", "174119.875000", "174121.365000", "174122.855000", "174124.345000", "174125.835000", "174127.325000", "174128.815000", "174130.305000", "174131.795000", "174133.285000", "174134.775000", "174136.265000", "174137.755000", "174139.245000", "174140.735000", "174142.225000", "174143.715000", "174145.205000", "174146.695000", "174148.185000", "174149.675000", "174151.165000", "174152.655000", "174154.145000", "174155.635000", "174157.125000", "174158.615000", "174200.105000", "174201.595000", "174203.085000", "174204.575000", "174206.065000", "174207.555000", "174209.045000", "174210.535000", "174212.025000", "174213.515000", "174215.005000", "174216.495000", "174217.985000", "174219.475000", "174220.965000", "174222.455000", "174223.945000", "174225.435000", "174226.925000", "174228.415000", "174229.905000", "174231.395000", "174232.885000", "174234.375000", "174235.865000", "174237.355000", "174238.845000", "174240.335000", "174241.825000", "174243.315000", "174244.805000", "174246.295000", "174247.785000", "174249.275000", "174250.765000", "174252.255000", "174253.745000", "174255.235000", "174256.725000", "174258.215000", "174259.705000", "174301.195000", "174302.685000", "174304.175000", "174305.665000", "174307.155000", "174308.645000", "174310.135000", "174311.625000", "174313.115000", "174314.605000", "174316.095000", "174317.585000", "174319.075000", "174320.565000", "174322.055000", "174323.545000", "174325.035000", "174326.525000", "174328.015000", "174329.505000", "174330.995000", "174332.485000", "174333.975000", "174335.465000", "174336.955000", "174338.445000", "174339.935000", "174341.425000", "174342.915000", "174344.405000", "174345.895000", "174347.385000", "174348.875000", "174350.365000", "174351.855000", "174353.345000", "174354.835000", "174356.325000", "174357.815000", "174359.305000", "174400.795000", "174402.285000", "174403.775000", "174405.265000", "174406.755000", "174408.245000", "174409.735000", "174411.225000", "174412.715000", "174414.205000", "174415.695000", "174417.185000", "174418.675000", "174420.165000", "174421.655000", "174423.145000", "174424.635000", "174426.125000", "174427.615000", "174429.105000", "174430.595000", "174432.085000", "174433.575000", "174435.065000", "174436.555000", "174438.045000", "174439.535000", "174441.025000", "174442.515000", "174444.005000", "174445.495000", "174446.985000", "174448.475000", "174449.965000", "174451.455000", "174452.945000", "174454.435000", "174455.925000", "174457.415000", "174458.905000", "174500.395000", "174501.885000", "174503.375000", "174504.865000", "174506.355000", "174507.845000", "174509.335000", "174510.825000", "174512.315000", "174513.805000", "174515.295000", "174516.785000", "174518.275000", "174519.765000", "174521.255000", "174522.745000", "174524.235000", "174525.725000", "174527.215000", "174528.705000", "174530.195000", "174531.685000", "174533.175000", "174534.665000", "174536.155000", "174537.645000", "174539.135000", "174540.625000", "174542.115000", "174543.605000", "174545.095000", "174546.585000", "174548.075000", "174549.565000", "174551.055000", "174552.545000", "174554.035000", "174555.525000", "174557.015000", "174558.505000", "174559.995000", "174601.485000", "174602.975000", "174604.465000", "174605.955000", "174607.445000", "174608.935000", "174610.425000", "174611.915000", "174613.405000", "174614.895000", "174616.385000", "174617.875000", "174619.365000", "174620.855000", "174622.345000", "174623.835000", "174625.325000", "174626.815000", "174628.305000", "174629.795000", "174631.285000", "174632.775000", "174634.265000", "174635.755000", "174637.245000", "174638.735000", "174640.225000", "174641.715000", "174643.205000", "174644.695000", "174646.185000", "174647.675000", "174649.165000", "174650.655000", "174652.145000", "174653.635000", "174655.125000", "174656.615000", "174658.105000", "174659.595000", "174701.085000", "174702.575000", "174704.065000", "174705.555000", "174707.045000", "174708.535000", "174710.025000", "174711.515000", "174713.005000", "174714.495000", "174715.985000", "174717.475000", "174718.965000", "174720.455000", "174721.945000", "174723.435000", "174724.925000", "174726.415000", "174727.905000", "174729.395000", "174730.885000", "174732.375000", "174733.865000", "174735.355000", "174736.845000", "174738.335000", "174739.825000", "174741.315000", "174742.805000", "174744.295000", "174745.785000", "174747.275000", "174748.765000", "174750.255000", "174751.745000", "174753.235000", "174754.725000", "174756.215000", "174757.705000", "174759.195000", "174800.685000", "174802.175000", "174803.665000", "174805.155000", "174806.645000", "174808.135000", "174809.625000", "174811.115000", "174812.605000", "174814.095000", "174815.585000", "174817.075000", "174818.565000", "174820.055000", "174821.545000", "174823.035000", "174824.525000", "174826.015000", "174827.505000", "174828.995000", "174830.485000", "174831.975000", "174833.465000", "174834.955000", "174836.445000", "174837.935000", "174839.425000", "174840.915000", "174842.405000", "174843.895000", "174845.385000", "174846.875000", "174848.365000", "174849.855000", "174851.345000", "174852.835000", "174854.325000", "174855.815000", "174857.305000", "174858.795000", "174900.285000", "174901.775000", "174903.265000", "174904.755000", "174906.245000", "174907.735000", "174909.225000", "174910.715000", "174912.205000", "174913.695000", "174915.185000", "174916.675000", "174918.165000", "174919.655000", "174921.145000", "174922.635000", "174924.125000", "174925.615000", "174927.105000", "174928.595000", "174930.085000", "174931.575000", "174933.065000", "174934.555000", "174936.045000", "174937.535000", "174939.025000", "174940.515000", "174942.005000", "174943.495000", "174944.985000", "174946.475000", "174947.965000", "174949.455000", "174950.945000", "174952.435000", "174953.925000", "174955.415000", "174956.905000", "174958.395000", "174959.885000", "175001.375000", "175002.865000", "175004.355000", "175005.845000", "175007.335000", "175008.825000", "175010.315000", "175011.805000", "175013.295000", "175014.785000", "175016.275000", "175017.765000", "175019.255000", "175020.745000", "175022.235000", "175023.725000", "175025.215000", "175026.705000", "175028.195000", "175029.685000", "175031.175000", "175032.665000", "175034.155000", "175035.645000", "175037.135000", "175038.625000", "175040.115000", "175041.605000", "175043.095000", "175044.585000", "175046.075000", "175047.565000", "175049.055000", "175050.545000", "175052.035000", "175053.525000", "175055.015000", "175056.505000", "175057.995000", "175059.485000", "175100.975000", "175102.465000", "175103.955000", "175105.445000", "175106.935000", "175108.425000", "175109.915000", "175111.405000", "175112.895000", "175114.385000", "175115.875000", "175117.365000", "175118.855000", "175120.345000", "175121.835000", "175123.325000", "175124.815000", "175126.305000", "175127.795000", "175129.285000", "175130.775000", "175132.265000", "175133.755000", "175135.245000", "175136.735000", "175138.225000", "175139.715000", "175141.205000", "175142.695000", "175144.185000", "175145.675000", "175147.165000", "175148.655000", "175150.145000", "175151.635000", "175153.125000", "175154.615000", "175156.105000", "175157.595000", "175159.085000", "175200.575000", "175202.065000", "175203.555000", "175205.045000", "175206.535000", "175208.025000", "175209.515000", "175211.005000", "175212.495000", "175213.985000", "175215.475000", "175216.965000"],
      "ContentTime": ["174156.942000", "174156.946000", "174156.950000", "174156.954000", "174216.911000", "174216.915000", "174216.918000", "174216.921000", "174216.925000", "174216.928000", "174216.931000", "174216.935000", "174216.938000", "174216.941000", "174216.945000", "174216.948000", "174216.952000", "174216.955000", "174216.958000", "174216.965000", "174216.968000", "174216.971000", "174216.975000", "174216.978000", "174236.911000", "174236.915000", "174236.918000", "174236.926000", "174236.929000", "174236.933000", "174236.944000", "174236.947000", "174236.951000", "174236.954000", "174236.957000", "174236.961000", "174236.964000", "174236.968000", "174236.971000", "174236.975000", "174236.983000", "174236.986000", "174236.990000", "174236.994000", "174256.911000", "174256.915000", "174256.918000", "174256.922000", "174256.925000", "174256.928000", "174256.932000", "174256.935000", "174256.939000", "174256.942000", "174256.945000", "174256.949000", "174256.952000", "174256.966000", "174256.970000", "174256.980000", "174256.984000", "174256.987000", "174256.991000", "174256.994000", "174256.998000", "174316.911000", "174316.915000", "174316.918000", "174316.921000", "174316.925000", "174316.928000", "174316.931000", "174316.935000", "174316.938000", "174316.941000", "174316.945000", "174316.948000", "174316.951000", "174316.955000", "174316.958000", "174316.962000", "174316.965000", "174316.968000", "174316.971000", "174316.975000", "174356.910000", "174356.914000", "174356.917000", "174356.921000", "174356.924000", "174356.927000", "174356.931000", "174356.934000", "174356.938000", "174356.941000", "174356.944000", "174356.948000", "174356.951000", "174356.955000", "174356.958000", "174356.961000", "174356.965000", "174356.968000", "174356.972000", "174356.981000", "174356.985000", "174356.988000", "174356.991000", "174356.995000", "174356.998000", "174357.003000", "174357.006000", "174357.009000", "174357.013000", "174357.016000", "174357.020000", "174357.023000", "174436.911000", "174436.915000", "174436.918000", "174436.922000", "174436.925000", "174436.928000", "174436.932000", "174436.936000", "174436.939000", "174436.942000", "174436.946000", "174436.949000", "174436.953000", "174436.956000", "174436.960000", "174436.963000", "174436.967000", "174436.970000", "174436.974000", "174436.977000", "174436.980000", "174436.984000", "174436.987000", "174436.990000", "174436.994000", "174436.997000", "174516.911000", "174516.915000", "174516.918000", "174516.922000", "174516.925000", "174516.928000", "174516.932000", "174516.935000", "174516.939000", "174516.942000", "174516.945000", "174516.949000", "174516.952000", "174516.978000", "174516.982000", "174516.985000", "174516.988000", "174516.998000", "174517.003000", "174517.006000", "174517.009000", "174517.013000", "174517.016000", "174517.019000", "174517.023000", "174517.026000", "174517.030000", "174556.911000", "174556.915000", "174556.918000", "174556.922000", "174556.925000", "174556.929000", "174556.932000", "174556.936000", "174556.939000", "174556.942000", "174556.946000", "174556.949000", "174556.953000", "174556.956000", "174556.960000", "174556.963000", "174556.966000", "174556.970000", "174556.973000", "174556.977000", "174556.980000", "174556.983000", "174556.987000", "174556.990000", "174556.994000", "174556.997000", "174557.002000", "174636.911000", "174636.915000", "174636.918000", "174636.922000", "174636.925000", "174636.935000", "174636.939000", "174636.942000", "174636.945000", "174636.949000", "174636.952000", "174636.956000", "174636.959000", "174636.963000", "174636.966000", "174636.969000", "174636.973000", "174636.976000", "174636.980000", "174636.983000", "174636.986000", "174636.990000", "174636.993000", "174636.996000", "174637.001000", "174637.004000", "174637.008000", "174716.911000", "174716.915000", "174716.919000", "174716.922000", "174716.925000", "174716.929000", "174716.932000", "174716.935000", "174716.939000", "174716.942000", "174716.946000", "174716.949000", "174716.953000", "174716.956000", "174716.959000", "174716.963000", "174716.966000", "174716.970000", "174716.973000", "174716.976000", "174716.980000", "174716.983000", "174716.990000", "174716.993000", "174716.997000", "174717.001000", "174717.005000", "174736.911000", "174736.915000", "174736.918000", "174736.922000", "174736.925000", "174736.928000", "174736.932000", "174736.935000", "174736.939000", "174736.942000", "174736.946000", "174736.949000", "174736.952000", "174816.911000", "174816.915000", "174816.919000", "174816.922000", "174816.925000", "174816.929000", "174816.932000", "174816.935000", "174816.939000", "174816.942000", "174816.946000", "174816.949000", "174816.952000", "174816.956000", "174816.959000", "174816.962000", "174816.966000", "174816.969000", "174816.973000", "174816.976000", "174816.979000", "174816.983000", "174816.986000", "174816.989000", "174816.993000", "174816.996000", "174817.001000", "174856.911000", "174856.915000", "174856.918000", "174856.922000", "174856.925000", "174856.929000", "174856.932000", "174856.935000", "174856.939000", "174856.942000", "174856.946000", "174856.949000", "174856.952000", "174856.956000", "174856.959000", "174856.963000", "174856.966000", "174856.970000", "174856.973000", "174856.976000", "174856.979000", "174856.983000", "174856.986000", "174856.990000", "174856.993000", "174856.996000", "174857.001000", "174936.911000", "174936.915000", "174936.918000", "174936.922000", "174936.925000", "174936.928000", "174936.932000", "174936.935000", "174936.939000", "174936.942000", "174936.945000", "174936.949000", "174936.952000", "174936.955000", "174936.959000", "174936.962000", "174936.966000", "174936.969000", "174936.972000", "174936.976000", "174936.979000", "174936.982000", "174936.998000", "174937.003000", "174937.006000", "174937.010000", "174937.013000", "175016.911000", "175016.915000", "175016.918000", "175016.922000", "175016.925000", "175016.929000", "175016.932000", "175016.935000", "175016.939000", "175016.942000", "175016.946000", "175016.949000", "175016.952000", "175016.956000", "175016.959000", "175016.963000", "175016.966000", "175016.969000", "175016.973000", "175016.976000", "175016.980000", "175016.983000", "175016.986000", "175016.990000", "175016.993000", "175016.996000", "175017.001000", "175056.910000", "175056.914000", "175056.934000", "175056.937000", "175056.941000", "175056.944000", "175056.957000", "175056.960000", "175056.964000", "175056.967000", "175056.978000", "175056.981000", "175056.985000", "175056.988000", "175056.991000", "175056.995000", "175057.002000", "175057.006000", "175057.009000", "175057.012000", "175057.016000", "175057.019000", "175057.032000", "175057.036000", "175057.039000", "175057.042000", "175057.046000", "175136.911000", "175136.915000", "175136.918000", "175136.922000", "175136.934000", "175136.938000", "175136.941000", "175136.944000", "175136.948000", "175136.951000", "175136.955000", "175136.958000", "175136.962000", "175136.965000", "175136.968000", "175136.972000", "175136.975000", "175136.978000", "175136.982000", "175136.987000", "175136.990000", "175136.993000", "175136.997000", "175137.001000", "175137.005000", "175137.008000", "175216.911000", "175216.915000", "175216.918000", "175216.922000", "175216.925000", "175216.929000", "175216.932000", "175216.936000", "175216.939000", "175216.942000", "175216.946000", "175216.949000", "175216.953000", "175216.956000", "175216.960000", "175216.963000", "175216.966000", "175216.970000", "175216.973000", "175216.977000", "175216.980000", "175216.983000", "175216.987000", "175216.990000", "175216.994000", "175216.997000", "175217.001000", "175220.236000", "175220.240000"],
