{
  "AcquisitionMatrixPE": 104,
  "AcquisitionNumber": 1,
  "AcquisitionTime": "17:24:12.905000",
  "BandwidthPerPixelPhaseEncode": 17.17,
  "BaseResolution": 104,
  "BodyPartExamined": "BRAIN",
  "CoilCombinationMethod": "Sum of Squares",
  "ConsistencyInfo": "N4_VE11C_LATEST_20160120",
  "ConversionSoftware": "dcm2niix",
  "ConversionSoftwareVersion": "v1.0.20211006",
  "DerivedVendorReportedEchoSpacing": 0.000560011,
  "DeviceSerialNumber": "167006",
  "DwellTime": 2.1e-06,
  "EchoTime": 0.037,
  "EchoTrainLength": 104,
  "EffectiveEchoSpacing": 0.000560011,
  "FlipAngle": 52,
  "HeudiconvVersion": "0.11.3.post9+gc939bf8",
  "ImageComments": "Unaliased MB4/PE3/LB",
  "ImageOrientationPatientDICOM": [0.999411, -0.0337825, 0.0059822, 0.0335031, 0.923461, -0.382226],
  "ImageOrientationText": "Tra>Cor(-22.5)>Sag(-0.4)",
  "ImageType": [
    "ORIGINAL",
    "PRIMARY",
    "M",
    "MB",
    "ND",
    "MOSAIC"
],
  "ImagingFrequency": 123.259,
  "InPlanePhaseEncodingDirectionDICOM": "COL",
  "InstitutionAddress": "Chemin Queen-Mary 4565,Montreal,District,CA,H3W 1W5",
  "InstitutionName": "IUGM",
  "InstitutionalDepartmentName": "Department",
  "MRAcquisitionType": "2D",
  "MagneticFieldStrength": 3,
  "Manufacturer": "Siemens",
  "ManufacturersModelName": "Prisma_fit",
  "MatrixCoilMode": "SENSE",
  "Modality": "MR",
  "MultibandAccelerationFactor": 4,
  "PartialFourier": 1,
  "PatientPosition": "HFS",
  "PercentPhaseFOV": 100,
  "PercentSampling": 100,
  "PhaseEncodingDirection": "j",
  "PhaseEncodingSteps": 104,
  "PhaseResolution": 1,
  "PixelBandwidth": 2290,
  "ProcedureStepDescription": "games^mario",
  "ProtocolName": "func_task-mario_run-01",
  "PulseSequenceDetails": "%CustomerSeq%\\cmrr_mbep2d_bold",
  "ReceiveCoilActiveElements": "HC1-7;NC1,2",
  "ReceiveCoilName": "HeadNeck_64",
  "ReconMatrixPE": 104,
  "RepetitionTime": 1.49,
  "SAR": 0.0788032,
  "ScanOptions": "FS",
  "ScanningSequence": "EP",
  "SequenceName": "epfid2d1_104",
  "SequenceVariant": "SK\\SS",
  "SeriesDescription": "func_task-mario_run-01",
  "SeriesNumber": 10,
  "ShimSetting": [612, -7243, -8812, 431, 12, -344, -4, 27],
  "SliceThickness": 2,
  "SliceTiming": [0, 0.7825, 0.0975, 0.8825, 0.195, 0.98, 0.2925, 1.0775, 0.3925, 1.175, 0.49, 1.2725, 0.5875, 1.3725, 0.685, 0, 0.7825, 0.0975, 0.8825, 0.195, 0.98, 0.2925, 1.0775, 0.3925, 1.175, 0.49, 1.2725, 0.5875, 1.3725, 0.685, 0, 0.7825, 0.0975, 0.8825, 0.195, 0.98, 0.2925, 1.0775, 0.3925, 1.175, 0.49, 1.2725, 0.5875, 1.3725, 0.685, 0, 0.7825, 0.0975, 0.8825, 0.195, 0.98, 0.2925, 1.0775, 0.3925, 1.175, 0.49, 1.2725, 0.5875, 1.3725, 0.685],
  "SoftwareVersions": "syngo MR E11",
  "SpacingBetweenSlices": 2,
  "StationName": "MRC35049",
  "TaskName": "mario",
  "TotalReadoutTime": 0.0576811,
  "TxRefAmp": 302.96,
  "WipMemBlock": "dc01be5b-16e6-4015-807d-4b3b2f32cfe6||Sequence: R017 ve11c/master r/75a17815+; Jun 28 2022 16:32:11 by eja",
  "dcmmeta_affine": [
    [-1.998822569847107, 0.06700628995895386, -0.014776492491364479, 100.79280090332031],
    [0.06756509095430374, 1.846922516822815, -0.7644031643867493, -70.15653991699219],
    [0.01196439377963543, 0.764452338218689, 1.848098874092102, -64.12813568115234],
    [0.0, 0.0, 0.0, 1.0]
],
  "dcmmeta_reorient_transform": [
    [0.0, -1.0, 0.0, 103.0],
    [1.0, 0.0, 0.0, 0.0],
    [0.0, 0.0, 1.0, 0.0],
    [0.0, 0.0, 0.0, 1.0]
],
  "dcmmeta_shape": [104, 104, 60, 445],
  "dcmmeta_slice_dim": 2,
  "dcmmeta_version": 0.6,
  "global": {
    "const": {
      "AcquisitionMatrix": [104, 0, 0, 104],
      "AngioFlag": "N",
      "BitsAllocated": 16,
      "BitsStored": 16,
      "BodyPartExamined": "BRAIN",
      "Columns": 832,
      "EchoNumbers": 1,
      "EchoTime": 37.0,
      "EchoTrainLength": 104,
      "FlipAngle": 52.0,
      "HighBit": 15,
      "ImageOrientationPatient": [0.99941130321184, -0.0337825448118, 0.00598219679235, 0.03350314658348, 0.92346125268319, -0.3822261816802],
      "ImagePositionPatient": [-859.65617019948, -767.76257928191, 288.51607834293],
      "ImageType": [
        "ORIGINAL",
        "PRIMARY",
        "M",
        "MB",
        "ND",
        "MOSAIC"
],
      "ImagedNucleus": "1H",
      "ImagingFrequency": 123.258768,
      "InPlanePhaseEncodingDirection": "COL",
      "MRAcquisitionType": "2D",
      "MagneticFieldStrength": 3.0,
      "Manufacturer": "SIEMENS",
      "ManufacturerModelName": "Prisma_fit",
      "Modality": "MR",
      "NumberOfAverages": 1.0,
      "NumberOfPhaseEncodingSteps": 104,
      "PercentPhaseFieldOfView": 100.0,
      "PercentSampling": 100.0,
      "PerformedProcedureStepStartTime": "165540.042000",
      "PhotometricInterpretation": "MONOCHROME2",
      "PixelBandwidth": 2290.0,
      "PixelRepresentation": 0,
      "PixelSpacing": [2.0, 2.0],
      "ProtocolName": "func_task-mario_run-01",
      "RepetitionTime": 1490.0,
      "Rows": 832,
      "SAR": 0.07880321553469,
      "SamplesPerPixel": 1,
      "ScanOptions": "FS",
      "ScanningSequence": "EP",
      "SequenceName": "epfid2d1_104",
      "SequenceVariant": [
        "SK",
        "SS"
],
      "SeriesDescription": "func_task-mario_run-01",
      "SeriesNumber": 10,
      "SeriesTime": "172538.272000",
      "SliceLocation": -33.188309661877,
      "SliceThickness": 2.0,
      "SmallestImagePixelValue": 0,
      "SoftwareVersions": "syngo MR E11",
      "SpacingBetweenSlices": 1.9999999598905,
      "SpecificCharacterSet": "ISO_IR 100",
      "StudyID": "1",
      "StudyTime": "165539.801000",
      "TransmitCoilName": "Body",
      "VariableFlipAngleFlag": "N",
      "WindowCenterWidthExplanation": "Algo1",
      "dBdt": 0.0},
    "slices": {}
  },
  "time": {
    "samples": {
      "AcquisitionNumber": [1, 2, 3, 4, 5, 6, 7, 8, 9, 10, 11, 12, 13, 14, 15, 16, 17, 18, 19, 20, 21, 22, 23, 24, 25, 26, 27, 28, 29, 30, 31, 32, 33, 34, 35, 36, 37, 38, 39, 40, 41, 42, 43, 44, 45, 46, 47, 48, 49, 50, 51, 52, 53, 54, 55, 56, 57, 58, 59, 60, 61, 62, 63, 64, 65, 66, 67, 68, 69, 70, 71, 72, 73, 74, 75, 76, 77, 78, 79, 80, 81, 82, 83, 84, 85, 86, 87, 88, 89, 90, 91, 92, 93, 94, 95, 96, 97, 98, 99, 100, 101, 102, 103, 104, 105, 106, 107, 108, 109, 110, 111, 112, 113, 114, 115, 116, 117, 118, 119, 120, 121, 122, 123, 124, 125, 126, 127, 128, 129, 130, 131, 132, 133, 134, 135, 136, 137, 138, 139, 140, 141, 142, 143, 144, 145, 146, 147, 148, 149, 150, 151, 152, 153, 154, 155, 156, 157, 158, 159, 160, 161, 162, 163, 164, 165, 166, 167, 168, 169, 170, 171, 172, 173, 174, 175, 176, 177, 178, 179, 180, 181, 182, 183, 184, 185, 186, 187, 188, 189, 190, 191, 192, 193, 194, 195, 196, 197, 198, 199, 200, 201, 202, 203, 204, 205, 206, 207, 208, 209, 210, 211, 212, 213, 214, 215, 216, 217, 218, 219, 220, 221, 222, 223, 224, 225, 226, 227, 228, 229, 230, 231, 232, 233, 234, 235, 236, 237, 238, 239, 240, 241, 242, 243, 244, 245, 246, 247, 248, 249, 250, 251, 252, 253, 254, 255, 256, 257, 258, 259, 260, 261, 262, 263, 264, 265, 266, 267, 268, 269, 270, 271, 272, 273, 274, 275, 276, 277, 278, 279, 280, 281, 282, 283, 284, 285, 286, 287, 288, 289, 290, 291, 292, 293, 294, 295, 296, 297, 298, 299, 300, 301, 302, 303, 304, 305, 306, 307, 308, 309, 310, 311, 312, 313, 314, 315, 316, 317, 318, 319, 320, 321, 322, 323, 324, 325, 326, 327, 328, 329, 330, 331, 332, 333, 334, 335, 336, 337, 338, 339, 340, 341, 342, 343, 344, 345, 346, 347, 348, 349, 350, 351, 352, 353, 354, 355, 356, 357, 358, 359, 360, 361, 362, 363, 364, 365, 366, 367, 368, 369, 370, 371, 372, 373, 374, 375, 376, 377, 378, 379, 380, 381, 382, 383, 384, 385, 386, 387, 388, 389, 390, 391, 392, 393, 394, 395, 396, 397, 398, 399, 400, 401, 402, 403, 404, 405, 406, 407, 408, 409, 410, 411, 412, 413, 414, 415, 416, 417, 418, 419, 420, 421, 422, 423, 424, 425, 426, 427, 428, 429, 430, 431, 432, 433, 434, 435, 436, 437, 438, 439, 440, 441, 442, 443, 444, 445],
      "AcquisitionTime": ["172412.905000", "172414.395000", "172415.885000", "172417.375000", "172418.865000", "172420.355000", "172421.845000", "172423.335000", "172424.825000", "172426.315000", "172427.805000", "172429.295000", "172430.785000", "172432.275000", "172433.765000", "172435.255000", "172436.745000", "172438.235000", "172439.725000", "172441.215000", "172442.705000", "172444.195000", "172445.685000", "172447.175000", "172448.665000", "172450.155000", "172451.645000", "172453.135000", "172454.625000", "172456.115000", "172457.605000", "172459.095000", "172500.585000", "172502.075000", "172503.565000", "172505.055000", "172506.545000", "172508.035000", "172509.525000", "172511.015000", "172512.505000", "172513.995000", "172515.485000", "172516.975000", "172518.465000", "172519.955000", "172521.445000", "172522.935000", "172524.425000", "172525.915000", "172527.405000", "172528.895000", "172530.385000", "172531.875000", "172533.365000", "172534.855000", "172536.345000", "172537.835000", "172539.325000", "172540.815000", "172542.305000", "172543.795000", "172545.285000", "172546.775000", "172548.265000", "172549.755000", "172551.245000", "172552.735000", "172554.225000", "172555.715000", "172557.205000", "172558.695000", "172600.185000", "172601.675000", "172603.165000", "172604.655000", "172606.145000", "172607.635000", "172609.125000", "172610.615000", "172612.105000", "172613.595000", "172615.085000", "172616.575000", "172618.065000", "172619.555000", "172621.045000", "172622.535000", "172624.025000", "172625.515000", "172627.005000", "172628.495000", "172629.985000", "172631.475000", "172632.965000", "172634.455000", "172635.945000", "172637.435000", "172638.925000", "172640.415000", "172641.905000", "172643.395000", "172644.885000", "172646.375000", "172647.865000", "172649.355000", "172650.845000", "172652.335000", "172653.825000", "172655.315000", "172656.805000", "172658.295000", "172659.785000", "172701.275000", "172702.765000", "172704.255000", "172705.745000", "172707.235000", "172708.725000", "172710.215000", "172711.705000", "172713.195000", "172714.685000", "172716.175000", "172717.665000", "172719.155000", "172720.645000", "172722.135000", "172723.625000", "172725.115000", "172726.605000", "172728.095000", "172729.585000", "172731.075000", "172732.565000", "172734.055000", "172735.545000", "172737.035000", "172738.525000", "172740.015000", "172741.505000", "172742.995000", "172744.485000", "172745.975000", "172747.465000", "172748.955000", "172750.445000", "172751.935000", "172753.425000", "172754.915000", "172756.405000", "172757.895000", "172759.385000", "172800.875000", "172802.365000", "172803.855000", "172805.345000", "172806.835000", "172808.325000", "172809.815000", "172811.305000", "172812.795000", "172814.285000", "172815.775000", "172817.265000", "172818.755000", "172820.245000", "172821.735000", "172823.225000", "172824.715000", "172826.205000", "172827.695000", "172829.185000", "172830.675000", "172832.165000", "172833.655000", "172835.145000", "172836.635000", "172838.125000", "172839.615000", "172841.105000", "172842.595000", "172844.085000", "172845.575000", "172847.065000", "172848.555000", "172850.045000", "172851.535000", "172853.025000", "172854.515000", "172856.005000", "172857.495000", "172858.985000", "172900.475000", "172901.965000", "172903.455000", "172904.945000", "172906.435000", "172907.925000", "172909.415000", "172910.905000", "172912.395000", "172913.885000", "172915.375000", "172916.865000", "172918.355000", "172919.845000", "172921.335000", "172922.825000", "172924.315000", "172925.805000", "172927.295000", "172928.785000", "172930.275000", "172931.765000", "172933.255000", "172934.745000", "172936.235000", "172937.725000", "172939.215000", "172940.705000", "172942.195000", "172943.685000", "172945.175000", "172946.665000", "172948.155000", "172949.645000", "172951.135000", "172952.625000", "172954.115000", "172955.605000", "172957.095000", "172958.585000", "173000.075000", "173001.565000", "173003.055000", "173004.545000", "173006.035000", "173007.525000", "173009.015000", "173010.505000", "173011.995000", "173013.485000", "173014.975000", "173016.465000", "173017.955000", "173019.445000", "173020.935000", "173022.425000", "173023.915000", "173025.405000", "173026.895000", "173028.385000", "173029.875000", "173031.365000", "173032.855000", "173034.345000", "173035.835000", "173037.325000", "173038.815000", "173040.305000", "173041.795000", "173043.285000", "173044.775000", "173046.265000", "173047.755000", "173049.245000", "173050.735000", "173052.225000", "173053.715000", "173055.205000", "173056.695000", "173058.185000", "173059.675000", "173101.165000", "173102.655000", "173104.145000", "173105.635000", "173107.125000", "173108.615000", "173110.105000", "173111.595000", "173113.085000", "173114.575000", "173116.065000", "173117.555000", "173119.045000", "173120.535000", "173122.025000", "173123.515000", "173125.005000", "173126.495000", "173127.985000", "173129.475000", "173130.965000", "173132.455000", "173133.945000", "173135.435000", "173136.925000", "173138.415000", "173139.905000", "173141.395000", "173142.885000", "173144.375000", "173145.865000", "173147.355000", "173148.845000", "173150.335000", "173151.825000", "173153.315000", "173154.805000", "173156.295000", "173157.785000", "173159.275000", "173200.765000", "173202.255000", "173203.745000", "173205.235000", "173206.725000", "173208.215000", "173209.705000", "173211.195000", "173212.685000", "173214.175000", "173215.665000", "173217.155000", "173218.645000", "173220.135000", "173221.625000", "173223.115000", "173224.605000", "173226.095000", "173227.585000", "173229.075000", "173230.565000", "173232.055000", "173233.545000", "173235.035000", "173236.525000", "173238.015000", "173239.505000", "173240.995000", "173242.485000", "173243.975000", "173245.465000", "173246.955000", "173248.445000", "173249.935000", "173251.425000", "173252.915000", "173254.405000", "173255.895000", "173257.385000", "173258.875000", "173300.365000", "173301.855000", "173303.345000", "173304.835000", "173306.325000", "173307.815000", "173309.305000", "173310.795000", "173312.285000", "173313.775000", "173315.265000", "173316.755000", "173318.245000", "173319.735000", "173321.225000", "173322.715000", "173324.205000", "173325.695000", "173327.185000", "173328.675000", "173330.165000", "173331.655000", "173333.145000", "173334.635000", "173336.125000", "173337.615000", "173339.105000", "173340.595000", "173342.085000", "173343.575000", "173345.065000", "173346.555000", "173348.045000", "173349.535000", "173351.025000", "173352.515000", "173354.005000", "173355.495000", "173356.985000", "173358.475000", "173359.965000", "173401.455000", "173402.945000", "173404.435000", "173405.925000", "173407.415000", "173408.905000", "173410.395000", "173411.885000", "173413.375000", "173414.865000", "173416.355000", "173417.845000", "173419.335000", "173420.825000", "173422.315000", "173423.805000", "173425.295000", "173426.785000", "173428.275000", "173429.765000", "173431.255000", "173432.745000", "173434.235000", "173435.725000", "173437.215000", "173438.705000", "173440.195000", "173441.685000", "173443.175000", "173444.665000", "173446.155000", "173447.645000", "173449.135000", "173450.625000", "173452.115000", "173453.605000", "173455.095000", "173456.585000", "173458.075000", "173459.565000", "173501.055000", "173502.545000", "173504.035000", "173505.525000", "173507.015000", "173508.505000", "173509.995000", "173511.485000", "173512.975000", "173514.465000"],
      "ContentTime": ["172538.275000", "172538.294000", "172538.297000", "172538.312000", "172538.315000", "172538.319000", "172538.322000", "172538.326000", "172538.329000", "172538.332000", "172538.336000", "172538.339000", "172538.343000", "172538.346000", "172538.349000", "172538.353000", "172538.357000", "172538.360000", "172538.364000", "172538.367000", "172538.371000", "172538.374000", "172538.377000", "172538.381000", "172538.384000", "172538.388000", "172538.391000", "172538.394000", "172538.398000", "172538.401000", "172538.404000", "172538.408000", "172538.411000", "172538.417000", "172538.421000", "172538.424000", "172558.243000", "172558.249000", "172558.253000", "172558.256000", "172558.259000", "172558.263000", "172558.266000", "172558.270000", "172558.273000", "172558.277000", "172558.280000", "172558.284000", "172558.287000", "172558.290000", "172558.294000", "172558.297000", "172558.300000", "172558.304000", "172558.307000", "172558.311000", "172618.243000", "172618.247000", "172618.250000", "172618.257000", "172618.260000", "172618.264000", "172618.267000", "172618.270000", "172618.274000", "172618.291000", "172618.294000", "172618.298000", "172618.301000", "172618.305000", "172618.308000", "172618.311000", "172618.315000", "172618.318000", "172618.322000", "172618.325000", "172638.243000", "172638.247000", "172638.250000", "172638.254000", "172638.257000", "172638.261000", "172638.264000", "172638.267000", "172638.271000", "172638.274000", "172638.278000", "172638.281000", "172638.284000", "172638.287000", "172638.291000", "172638.294000", "172638.298000", "172638.301000", "172638.304000", "172638.308000", "172638.311000", "172718.242000", "172718.246000", "172718.249000", "172718.253000", "172718.256000", "172718.260000", "172718.263000", "172718.275000", "172718.279000", "172718.282000", "172718.285000", "172718.289000", "172718.292000", "172718.296000", "172718.299000", "172718.302000", "172718.306000", "172718.309000", "172718.313000", "172718.316000", "172718.319000", "172718.323000", "172718.326000", "172718.330000", "172718.333000", "172718.336000", "172718.340000", "172738.242000", "172738.246000", "172738.249000", "172738.253000", "172738.256000", "172738.260000", "172738.263000", "172738.267000", "172738.270000", "172738.273000", "172738.277000", "172738.280000", "172738.283000", "172818.243000", "172818.247000", "172818.250000", "172818.254000", "172818.257000", "172818.260000", "172818.264000", "172818.267000", "172818.271000", "172818.274000", "172818.277000", "172818.281000", "172818.284000", "172818.287000", "172818.291000", "172818.294000", "172818.298000", "172818.301000", "172818.304000", "172818.308000", "172818.311000", "172818.314000", "172818.318000", "172818.321000", "172818.324000", "172818.328000", "172818.331000", "172858.243000", "172858.247000", "172858.250000", "172858.254000", "172858.257000", "172858.260000", "172858.264000", "172858.267000", "172858.271000", "172858.274000", "172858.278000", "172858.281000", "172858.285000", "172858.288000", "172858.291000", "172858.295000", "172858.298000", "172858.301000", "172858.305000", "172858.308000", "172858.312000", "172858.315000", "172858.328000", "172858.331000", "172858.334000", "172858.338000", "172858.341000", "172938.242000", "172938.246000", "172938.249000", "172938.253000", "172938.267000", "172938.271000", "172938.274000", "172938.277000", "172938.281000", "172938.284000", "172938.288000", "172938.291000", "172938.294000", "172938.298000", "172938.301000", "172938.305000", "172938.308000", "172938.311000", "172938.315000", "172938.319000", "172938.322000", "172938.326000", "172938.329000", "172938.332000", "172938.343000", "172938.346000", "172938.350000", "173018.243000", "173018.256000", "173018.268000", "173018.271000", "173018.275000", "173018.278000", "173018.282000", "173018.285000", "173018.289000", "173018.292000", "173018.296000", "173018.299000", "173018.302000", "173018.306000", "173018.309000", "173018.312000", "173018.316000", "173018.320000", "173018.323000", "173018.326000", "173018.330000", "173018.333000", "173018.337000", "173018.340000", "173018.343000", "173018.347000", "173058.243000", "173058.247000", "173058.251000", "173058.254000", "173058.257000", "173058.261000", "173058.264000", "173058.268000", "173058.271000", "173058.275000", "173058.278000", "173058.281000", "173058.285000", "173058.288000", "173058.291000", "173058.295000", "173058.298000", "173058.316000", "173058.320000", "173058.323000", "173058.326000", "173058.330000", "173058.333000", "173058.337000", "173058.340000", "173058.343000", "173058.347000", "173138.243000", "173138.247000", "173138.251000", "173138.254000", "173138.258000", "173138.261000", "173138.264000", "173138.268000", "173138.271000", "173138.275000", "173138.278000", "173138.282000", "173138.285000", "173138.289000", "173138.292000", "173138.295000", "173138.299000", "173138.302000", "173138.306000", "173138.309000", "173138.312000", "173138.316000", "173138.319000", "173138.322000", "173138.326000", "173138.329000", "173138.332000", "173218.243000", "173218.247000", "173218.250000", "173218.254000", "173218.257000", "173218.261000", "173218.264000", "173218.268000", "173218.271000", "173218.274000", "173218.278000", "173218.281000", "173218.284000", "173218.288000", "173218.291000", "173218.295000", "173218.298000", "173218.302000", "173218.305000", "173218.308000", "173218.312000", "173218.315000", "173218.318000", "173218.322000", "173218.325000", "173218.328000", "173218.332000", "173258.243000", "173258.247000", "173258.250000", "173258.254000", "173258.258000", "173258.261000", "173258.264000", "173258.268000", "173258.271000", "173258.275000", "173258.278000", "173258.281000", "173258.285000", "173258.288000", "173258.292000", "173258.295000", "173258.298000", "173258.302000", "173258.305000", "173258.309000", "173258.312000", "173258.315000", "173258.319000", "173258.322000", "173258.326000", "173258.329000", "173258.332000", "173338.243000", "173338.247000", "173338.250000", "173338.254000", "173338.257000", "173338.275000", "173338.278000", "173338.282000", "173338.285000", "173338.288000", "173338.292000", "173338.295000", "173338.299000", "173338.302000", "173338.305000", "173338.309000", "173338.312000", "173338.316000", "173338.319000", "173338.322000", "173338.326000", "173338.329000", "173338.333000", "173338.336000", "173338.339000", "173338.343000", "173338.346000", "173418.242000", "173418.246000", "173418.249000", "173418.253000", "173418.256000", "173418.260000", "173418.274000", "173418.278000", "173418.281000", "173418.284000", "173418.288000", "173418.291000", "173418.295000", "173418.298000", "173418.302000", "173418.305000", "173418.308000", "173418.312000", "173418.315000", "173418.318000", "173418.322000", "173418.325000", "173418.328000", "173418.332000", "173418.335000", "173418.338000", "173458.243000", "173458.247000", "173458.250000", "173458.254000", "173458.258000", "173458.261000", "173458.265000", "173458.268000", "173458.272000", "173458.275000", "173458.278000", "173458.282000", "173458.285000", "173458.288000", "173458.292000", "173458.295000", "173458.298000", "173458.308000", "173458.311000", "173458.315000", "173458.318000", "173458.322000", "173458.325000", "173458.328000", "173458.332000", "173458.335000", "173458.339000", "173517.201000", "173517.205000", "173517.213000", "173517.217000", "173517.220000", "173517.223000", "173517.227000", "173517.230000", "173517.233000", "173517.237000", "173517.240000", "173517.251000", "173517.254000"],
