{
  "AcquisitionMatrixPE": 104,
  "AcquisitionNumber": 1,
  "AcquisitionTime": "17:53:39.015000",
  "BandwidthPerPixelPhaseEncode": 17.17,
  "BaseResolution": 104,
  "BodyPartExamined": "BRAIN",
  "CoilCombinationMethod": "Sum of Squares",
  "ConsistencyInfo": "N4_VE11C_LATEST_20160120",
  "ConversionSoftware": "dcm2niix",
  "ConversionSoftwareVersion": "v1.0.20211006",
  "DerivedVendorReportedEchoSpacing": 0.000560011,
  "DeviceSerialNumber": "167006",
  "DwellTime": 2.1e-06,
  "EchoTime": 0.037,
  "EchoTrainLength": 104,
  "EffectiveEchoSpacing": 0.000560011,
  "FlipAngle": 52,
  "HeudiconvVersion": "0.11.3.post9+gc939bf8",
  "ImageComments": "Unaliased MB4/PE3/LB",
  "ImageOrientationPatientDICOM": [0.999411, -0.0337825, 0.0059822, 0.0335031, 0.923461, -0.382226],
  "ImageOrientationText": "Tra>Cor(-22.5)>Sag(-0.4)",
  "ImageType": [
    "ORIGINAL",
    "PRIMARY",
    "M",
    "MB",
    "ND",
    "MOSAIC"
],
  "ImagingFrequency": 123.259,
  "InPlanePhaseEncodingDirectionDICOM": "COL",
  "InstitutionAddress": "Chemin Queen-Mary 4565,Montreal,District,CA,H3W 1W5",
  "InstitutionName": "IUGM",
  "InstitutionalDepartmentName": "Department",
  "MRAcquisitionType": "2D",
  "MagneticFieldStrength": 3,
  "Manufacturer": "Siemens",
  "ManufacturersModelName": "Prisma_fit",
  "MatrixCoilMode": "SENSE",
  "Modality": "MR",
  "MultibandAccelerationFactor": 4,
  "PartialFourier": 1,
  "PatientPosition": "HFS",
  "PercentPhaseFOV": 100,
  "PercentSampling": 100,
  "PhaseEncodingDirection": "j",
  "PhaseEncodingSteps": 104,
  "PhaseResolution": 1,
  "PixelBandwidth": 2290,
  "ProcedureStepDescription": "games^mario",
  "ProtocolName": "func_task-mario_run-03",
  "PulseSequenceDetails": "%CustomerSeq%\\cmrr_mbep2d_bold",
  "ReceiveCoilActiveElements": "HC1-7;NC1,2",
  "ReceiveCoilName": "HeadNeck_64",
  "ReconMatrixPE": 104,
  "RepetitionTime": 1.49,
  "SAR": 0.0788032,
  "ScanOptions": "FS",
  "ScanningSequence": "EP",
  "SequenceName": "epfid2d1_104",
  "SequenceVariant": "SK\\SS",
  "SeriesDescription": "func_task-mario_run-03",
  "SeriesNumber": 16,
  "ShimSetting": [612, -7243, -8812, 431, 12, -344, -4, 27],
  "SliceThickness": 2,
  "SliceTiming": [0, 0.7825, 0.0975, 0.88, 0.195, 0.98, 0.2925, 1.0775, 0.39, 1.175, 0.49, 1.2725, 0.5875, 1.37, 0.685, 0, 0.7825, 0.0975, 0.88, 0.195, 0.98, 0.2925, 1.0775, 0.39, 1.175, 0.49, 1.2725, 0.5875, 1.37, 0.685, 0, 0.7825, 0.0975, 0.88, 0.195, 0.98, 0.2925, 1.0775, 0.39, 1.175, 0.49, 1.2725, 0.5875, 1.37, 0.685, 0, 0.7825, 0.0975, 0.88, 0.195, 0.98, 0.2925, 1.0775, 0.39, 1.175, 0.49, 1.2725, 0.5875, 1.37, 0.685],
  "SoftwareVersions": "syngo MR E11",
  "SpacingBetweenSlices": 2,
  "StationName": "MRC35049",
  "TaskName": "mario",
  "TotalReadoutTime": 0.0576811,
  "TxRefAmp": 302.96,
  "WipMemBlock": "24a6ffd4-d46a-4f1e-8ada-e9bb52236326||Sequence: R017 ve11c/master r/75a17815+; Jun 28 2022 16:32:11 by eja",
  "dcmmeta_affine": [
    [-1.998822569847107, 0.06700628995895386, -0.014776492491364479, 100.79280090332031],
    [0.06756509095430374, 1.846922516822815, -0.7644031643867493, -70.15653991699219],
    [0.01196439377963543, 0.764452338218689, 1.848098874092102, -64.12813568115234],
    [0.0, 0.0, 0.0, 1.0]
],
  "dcmmeta_reorient_transform": [
    [0.0, -1.0, 0.0, 103.0],
    [1.0, 0.0, 0.0, 0.0],
    [0.0, 0.0, 1.0, 0.0],
    [0.0, 0.0, 0.0, 1.0]
],
  "dcmmeta_shape": [104, 104, 60, 457],
  "dcmmeta_slice_dim": 2,
  "dcmmeta_version": 0.6,
  "global": {
    "const": {
      "AcquisitionMatrix": [104, 0, 0, 104],
      "AngioFlag": "N",
      "BitsAllocated": 16,
      "BitsStored": 16,
      "BodyPartExamined": "BRAIN",
      "Columns": 832,
      "EchoNumbers": 1,
      "EchoTime": 37.0,
      "EchoTrainLength": 104,
      "FlipAngle": 52.0,
      "HighBit": 15,
      "ImageOrientationPatient": [0.99941130321184, -0.0337825448118, 0.00598219679235, 0.03350314658348, 0.92346125268319, -0.3822261816802],
      "ImagePositionPatient": [-859.65617019948, -767.76257928191, 288.51607834293],
      "ImageType": [
        "ORIGINAL",
        "PRIMARY",
        "M",
        "MB",
        "ND",
        "MOSAIC"
],
      "ImagedNucleus": "1H",
      "ImagingFrequency": 123.258783,
      "InPlanePhaseEncodingDirection": "COL",
      "MRAcquisitionType": "2D",
      "MagneticFieldStrength": 3.0,
      "Manufacturer": "SIEMENS",
      "ManufacturerModelName": "Prisma_fit",
      "Modality": "MR",
      "NumberOfAverages": 1.0,
      "NumberOfPhaseEncodingSteps": 104,
      "PercentPhaseFieldOfView": 100.0,
      "PercentSampling": 100.0,
      "PerformedProcedureStepStartTime": "165540.042000",
      "PhotometricInterpretation": "MONOCHROME2",
      "PixelBandwidth": 2290.0,
      "PixelRepresentation": 0,
      "PixelSpacing": [2.0, 2.0],
      "ProtocolName": "func_task-mario_run-03",
      "RepetitionTime": 1490.0,
      "Rows": 832,
      "SAR": 0.07880321553469,
      "SamplesPerPixel": 1,
      "ScanOptions": "FS",
      "ScanningSequence": "EP",
      "SequenceName": "epfid2d1_104",
      "SequenceVariant": [
        "SK",
        "SS"
],
      "SeriesDescription": "func_task-mario_run-03",
      "SeriesNumber": 16,
      "SeriesTime": "175451.577000",
      "SliceLocation": -33.188309661877,
      "SliceThickness": 2.0,
      "SmallestImagePixelValue": 0,
      "SoftwareVersions": "syngo MR E11",
      "SpacingBetweenSlices": 1.9999999598905,
      "SpecificCharacterSet": "ISO_IR 100",
      "StudyID": "1",
      "StudyTime": "165539.801000",
      "TransmitCoilName": "Body",
      "VariableFlipAngleFlag": "N",
      "WindowCenterWidthExplanation": "Algo1",
      "dBdt": 0.0},
    "slices": {}
  },
  "time": {
    "samples": {
      "AcquisitionNumber": [1, 2, 3, 4, 5, 6, 7, 8, 9, 10, 11, 12, 13, 14, 15, 16, 17, 18, 19, 20, 21, 22, 23, 24, 25, 26, 27, 28, 29, 30, 31, 32, 33, 34, 35, 36, 37, 38, 39, 40, 41, 42, 43, 44, 45, 46, 47, 48, 49, 50, 51, 52, 53, 54, 55, 56, 57, 58, 59, 60, 61, 62, 63, 64, 65, 66, 67, 68, 69, 70, 71, 72, 73, 74, 75, 76, 77, 78, 79, 80, 81, 82, 83, 84, 85, 86, 87, 88, 89, 90, 91, 92, 93, 94, 95, 96, 97, 98, 99, 100, 101, 102, 103, 104, 105, 106, 107, 108, 109, 110, 111, 112, 113, 114, 115, 116, 117, 118, 119, 120, 121, 122, 123, 124, 125, 126, 127, 128, 129, 130, 131, 132, 133, 134, 135, 136, 137, 138, 139, 140, 141, 142, 143, 144, 145, 146, 147, 148, 149, 150, 151, 152, 153, 154, 155, 156, 157, 158, 159, 160, 161, 162, 163, 164, 165, 166, 167, 168, 169, 170, 171, 172, 173, 174, 175, 176, 177, 178, 179, 180, 181, 182, 183, 184, 185, 186, 187, 188, 189, 190, 191, 192, 193, 194, 195, 196, 197, 198, 199, 200, 201, 202, 203, 204, 205, 206, 207, 208, 209, 210, 211, 212, 213, 214, 215, 216, 217, 218, 219, 220, 221, 222, 223, 224, 225, 226, 227, 228, 229, 230, 231, 232, 233, 234, 235, 236, 237, 238, 239, 240, 241, 242, 243, 244, 245, 246, 247, 248, 249, 250, 251, 252, 253, 254, 255, 256, 257, 258, 259, 260, 261, 262, 263, 264, 265, 266, 267, 268, 269, 270, 271, 272, 273, 274, 275, 276, 277, 278, 279, 280, 281, 282, 283, 284, 285, 286, 287, 288, 289, 290, 291, 292, 293, 294, 295, 296, 297, 298, 299, 300, 301, 302, 303, 304, 305, 306, 307, 308, 309, 310, 311, 312, 313, 314, 315, 316, 317, 318, 319, 320, 321, 322, 323, 324, 325, 326, 327, 328, 329, 330, 331, 332, 333, 334, 335, 336, 337, 338, 339, 340, 341, 342, 343, 344, 345, 346, 347, 348, 349, 350, 351, 352, 353, 354, 355, 356, 357, 358, 359, 360, 361, 362, 363, 364, 365, 366, 367, 368, 369, 370, 371, 372, 373, 374, 375, 376, 377, 378, 379, 380, 381, 382, 383, 384, 385, 386, 387, 388, 389, 390, 391, 392, 393, 394, 395, 396, 397, 398, 399, 400, 401, 402, 403, 404, 405, 406, 407, 408, 409, 410, 411, 412, 413, 414, 415, 416, 417, 418, 419, 420, 421, 422, 423, 424, 425, 426, 427, 428, 429, 430, 431, 432, 433, 434, 435, 436, 437, 438, 439, 440, 441, 442, 443, 444, 445, 446, 447, 448, 449, 450, 451, 452, 453, 454, 455, 456, 457],
      "AcquisitionTime": ["175339.015000", "175340.505000", "175341.995000", "175343.485000", "175344.975000", "175346.465000", "175347.955000", "175349.445000", "175350.935000", "175352.425000", "175353.915000", "175355.405000", "175356.895000", "175358.385000", "175359.875000", "175401.365000", "175402.855000", "175404.345000", "175405.835000", "175407.325000", "175408.815000", "175410.305000", "175411.795000", "175413.285000", "175414.775000", "175416.265000", "175417.755000", "175419.245000", "175420.735000", "175422.225000", "175423.715000", "175425.205000", "175426.695000", "175428.185000", "175429.675000", "175431.165000", "175432.655000", "175434.145000", "175435.635000", "175437.125000", "175438.615000", "175440.105000", "175441.595000", "175443.085000", "175444.575000", "175446.065000", "175447.555000", "175449.045000", "175450.535000", "175452.025000", "175453.515000", "175455.005000", "175456.495000", "175457.985000", "175459.475000", "175500.965000", "175502.455000", "175503.945000", "175505.435000", "175506.925000", "175508.415000", "175509.905000", "175511.395000", "175512.885000", "175514.375000", "175515.865000", "175517.355000", "175518.845000", "175520.335000", "175521.825000", "175523.315000", "175524.805000", "175526.295000", "175527.785000", "175529.275000", "175530.765000", "175532.255000", "175533.745000", "175535.235000", "175536.725000", "175538.215000", "175539.705000", "175541.195000", "175542.685000", "175544.175000", "175545.665000", "175547.155000", "175548.645000", "175550.135000", "175551.625000", "175553.115000", "175554.605000", "175556.095000", "175557.585000", "175559.075000", "175600.565000", "175602.055000", "175603.545000", "175605.035000", "175606.525000", "175608.015000", "175609.505000", "175610.995000", "175612.485000", "175613.975000", "175615.465000", "175616.955000", "175618.445000", "175619.935000", "175621.425000", "175622.915000", "175624.405000", "175625.895000", "175627.385000", "175628.875000", "175630.365000", "175631.855000", "175633.345000", "175634.835000", "175636.325000", "175637.815000", "175639.305000", "175640.795000", "175642.285000", "175643.775000", "175645.265000", "175646.755000", "175648.245000", "175649.735000", "175651.225000", "175652.715000", "175654.205000", "175655.695000", "175657.185000", "175658.675000", "175700.165000", "175701.655000", "175703.145000", "175704.635000", "175706.125000", "175707.615000", "175709.105000", "175710.595000", "175712.085000", "175713.575000", "175715.065000", "175716.555000", "175718.045000", "175719.535000", "175721.025000", "175722.515000", "175724.005000", "175725.495000", "175726.985000", "175728.475000", "175729.965000", "175731.455000", "175732.945000", "175734.435000", "175735.925000", "175737.415000", "175738.905000", "175740.395000", "175741.885000", "175743.375000", "175744.865000", "175746.355000", "175747.845000", "175749.335000", "175750.825000", "175752.315000", "175753.805000", "175755.295000", "175756.785000", "175758.275000", "175759.765000", "175801.255000", "175802.745000", "175804.235000", "175805.725000", "175807.215000", "175808.705000", "175810.195000", "175811.685000", "175813.175000", "175814.665000", "175816.155000", "175817.645000", "175819.135000", "175820.625000", "175822.115000", "175823.605000", "175825.095000", "175826.585000", "175828.075000", "175829.565000", "175831.055000", "175832.545000", "175834.035000", "175835.525000", "175837.015000", "175838.505000", "175839.995000", "175841.485000", "175842.975000", "175844.465000", "175845.955000", "175847.445000", "175848.935000", "175850.425000", "175851.915000", "175853.405000", "175854.895000", "175856.385000", "175857.875000", "175859.365000", "175900.855000", "175902.345000", "175903.835000", "175905.325000", "175906.815000", "175908.305000", "175909.795000", "175911.285000", "175912.775000", "175914.265000", "175915.755000", "175917.245000", "175918.735000", "175920.225000", "175921.715000", "175923.205000", "175924.695000", "175926.185000", "175927.675000", "175929.165000", "175930.655000", "175932.145000", "175933.635000", "175935.125000", "175936.615000", "175938.105000", "175939.595000", "175941.085000", "175942.575000", "175944.065000", "175945.555000", "175947.045000", "175948.535000", "175950.025000", "175951.515000", "175953.005000", "175954.495000", "175955.985000", "175957.475000", "175958.965000", "180000.455000", "180001.945000", "180003.435000", "180004.925000", "180006.415000", "180007.905000", "180009.395000", "180010.885000", "180012.375000", "180013.865000", "180015.355000", "180016.845000", "180018.335000", "180019.825000", "180021.315000", "180022.805000", "180024.295000", "180025.785000", "180027.275000", "180028.765000", "180030.255000", "180031.745000", "180033.235000", "180034.725000", "180036.215000", "180037.705000", "180039.195000", "180040.685000", "180042.175000", "180043.665000", "180045.155000", "180046.645000", "180048.135000", "180049.625000", "180051.115000", "180052.605000", "180054.095000", "180055.585000", "180057.075000", "180058.565000", "180100.055000", "180101.545000", "180103.035000", "180104.525000", "180106.015000", "180107.505000", "180108.995000", "180110.485000", "180111.975000", "180113.465000", "180114.955000", "180116.445000", "180117.935000", "180119.425000", "180120.915000", "180122.405000", "180123.895000", "180125.385000", "180126.875000", "180128.365000", "180129.855000", "180131.345000", "180132.835000", "180134.325000", "180135.815000", "180137.305000", "180138.795000", "180140.285000", "180141.775000", "180143.265000", "180144.755000", "180146.245000", "180147.735000", "180149.225000", "180150.715000", "180152.205000", "180153.695000", "180155.185000", "180156.675000", "180158.165000", "180159.655000", "180201.145000", "180202.635000", "180204.125000", "180205.615000", "180207.105000", "180208.595000", "180210.085000", "180211.575000", "180213.065000", "180214.555000", "180216.045000", "180217.535000", "180219.025000", "180220.515000", "180222.005000", "180223.495000", "180224.985000", "180226.475000", "180227.965000", "180229.455000", "180230.945000", "180232.435000", "180233.925000", "180235.415000", "180236.905000", "180238.395000", "180239.885000", "180241.375000", "180242.865000", "180244.355000", "180245.845000", "180247.335000", "180248.825000", "180250.315000", "180251.805000", "180253.295000", "180254.785000", "180256.275000", "180257.765000", "180259.255000", "180300.745000", "180302.235000", "180303.725000", "180305.215000", "180306.705000", "180308.195000", "180309.685000", "180311.175000", "180312.665000", "180314.155000", "180315.645000", "180317.135000", "180318.625000", "180320.115000", "180321.605000", "180323.095000", "180324.585000", "180326.075000", "180327.565000", "180329.055000", "180330.545000", "180332.035000", "180333.525000", "180335.015000", "180336.505000", "180337.995000", "180339.485000", "180340.975000", "180342.465000", "180343.955000", "180345.445000", "180346.935000", "180348.425000", "180349.915000", "180351.405000", "180352.895000", "180354.385000", "180355.875000", "180357.365000", "180358.855000", "180400.345000", "180401.835000", "180403.325000", "180404.815000", "180406.305000", "180407.795000", "180409.285000", "180410.775000", "180412.265000", "180413.755000", "180415.245000", "180416.735000", "180418.225000", "180419.715000", "180421.205000", "180422.695000", "180424.185000", "180425.675000", "180427.165000", "180428.655000", "180430.145000", "180431.635000", "180433.125000", "180434.615000", "180436.105000", "180437.595000", "180439.085000", "180440.575000", "180442.065000", "180443.555000", "180445.045000", "180446.535000", "180448.025000", "180449.515000", "180451.005000", "180452.495000", "180453.985000", "180455.475000", "180456.965000", "180458.455000"],
      "ContentTime": ["175451.580000", "175451.584000", "175451.588000", "175451.591000", "175451.594000", "175451.598000", "175451.601000", "175451.605000", "175451.608000", "175451.620000", "175451.623000", "175451.627000", "175451.630000", "175451.633000", "175451.637000", "175451.640000", "175451.643000", "175451.647000", "175451.651000", "175451.654000", "175451.657000", "175451.661000", "175451.664000", "175451.668000", "175511.542000", "175511.546000", "175511.549000", "175511.553000", "175511.562000", "175511.565000", "175511.569000", "175511.572000", "175511.576000", "175511.586000", "175511.595000", "175511.599000", "175511.602000", "175511.605000", "175511.609000", "175511.612000", "175511.616000", "175511.619000", "175511.622000", "175511.626000", "175531.542000", "175531.546000", "175531.549000", "175531.552000", "175531.556000", "175531.559000", "175531.563000", "175531.566000", "175531.570000", "175531.573000", "175531.576000", "175531.580000", "175531.583000", "175531.587000", "175531.590000", "175531.606000", "175531.610000", "175531.613000", "175531.617000", "175531.620000", "175551.542000", "175551.552000", "175551.556000", "175551.559000", "175551.563000", "175551.566000", "175551.570000", "175551.573000", "175551.577000", "175551.580000", "175551.583000", "175551.587000", "175551.590000", "175551.594000", "175551.597000", "175551.600000", "175551.604000", "175551.607000", "175551.611000", "175551.614000", "175631.542000", "175631.546000", "175631.549000", "175631.553000", "175631.556000", "175631.560000", "175631.563000", "175631.566000", "175631.570000", "175631.573000", "175631.577000", "175631.580000", "175631.584000", "175631.594000", "175631.597000", "175631.601000", "175631.604000", "175631.608000", "175631.611000", "175631.614000", "175631.618000", "175631.621000", "175631.625000", "175631.628000", "175631.631000", "175631.635000", "175631.638000", "175631.642000", "175631.645000", "175631.649000", "175631.652000", "175711.542000", "175711.546000", "175711.550000", "175711.553000", "175711.556000", "175711.560000", "175711.563000", "175711.567000", "175711.570000", "175711.574000", "175711.577000", "175711.581000", "175711.584000", "175711.587000", "175711.591000", "175711.594000", "175711.598000", "175711.601000", "175711.606000", "175711.610000", "175711.621000", "175711.625000", "175711.628000", "175711.632000", "175711.635000", "175711.638000", "175711.642000", "175751.542000", "175751.546000", "175751.549000", "175751.553000", "175751.556000", "175751.560000", "175751.563000", "175751.567000", "175751.570000", "175751.574000", "175751.577000", "175751.580000", "175751.584000", "175751.587000", "175751.591000", "175751.594000", "175751.598000", "175751.601000", "175751.605000", "175751.608000", "175751.611000", "175751.615000", "175751.634000", "175751.651000", "175751.654000", "175751.657000", "175751.661000", "175831.542000", "175831.546000", "175831.550000", "175831.553000", "175831.556000", "175831.560000", "175831.563000", "175831.567000", "175831.570000", "175831.574000", "175831.577000", "175831.581000", "175831.584000", "175831.587000", "175831.591000", "175831.594000", "175831.598000", "175831.601000", "175831.605000", "175831.608000", "175831.611000", "175831.615000", "175831.618000", "175831.622000", "175831.625000", "175831.628000", "175831.632000", "175911.542000", "175911.546000", "175911.549000", "175911.553000", "175911.564000", "175911.568000", "175911.571000", "175911.575000", "175911.578000", "175911.582000", "175911.585000", "175911.594000", "175911.597000", "175911.601000", "175911.604000", "175911.607000", "175911.611000", "175911.614000", "175911.618000", "175911.621000", "175911.625000", "175911.628000", "175911.632000", "175911.635000", "175911.639000", "175911.642000", "175911.645000", "175951.542000", "175951.546000", "175951.550000", "175951.564000", "175951.569000", "175951.572000", "175951.576000", "175951.579000", "175951.583000", "175951.586000", "175951.590000", "175951.593000", "175951.596000", "175951.600000", "175951.603000", "175951.607000", "175951.610000", "175951.613000", "175951.629000", "175951.632000", "175951.635000", "175951.639000", "175951.642000", "175951.646000", "175951.649000", "175951.652000", "180031.542000", "180031.546000", "180031.550000", "180031.553000", "180031.569000", "180031.572000", "180031.576000", "180031.579000", "180031.583000", "180031.586000", "180031.590000", "180031.593000", "180031.596000", "180031.600000", "180031.603000", "180031.607000", "180031.610000", "180031.614000", "180031.617000", "180031.621000", "180031.624000", "180031.627000", "180031.631000", "180031.634000", "180031.638000", "180031.641000", "180031.645000", "180111.542000", "180111.546000", "180111.550000", "180111.553000", "180111.557000", "180111.560000", "180111.563000", "180111.578000", "180111.581000", "180111.585000", "180111.588000", "180111.592000", "180111.595000", "180111.599000", "180111.602000", "180111.606000", "180111.609000", "180111.613000", "180111.616000", "180111.620000", "180111.623000", "180111.626000", "180111.630000", "180111.633000", "180111.637000", "180111.646000", "180111.649000", "180151.542000", "180151.546000", "180151.550000", "180151.553000", "180151.557000", "180151.560000", "180151.564000", "180151.567000", "180151.570000", "180151.574000", "180151.584000", "180151.588000", "180151.591000", "180151.594000", "180151.598000", "180151.601000", "180151.605000", "180151.608000", "180151.612000", "180151.615000", "180151.618000", "180151.622000", "180151.625000", "180151.629000", "180151.632000", "180151.636000", "180151.639000", "180231.542000", "180231.546000", "180231.549000", "180231.556000", "180231.560000", "180231.563000", "180231.567000", "180231.570000", "180231.574000", "180231.577000", "180231.581000", "180231.584000", "180231.588000", "180231.591000", "180231.594000", "180231.598000", "180231.619000", "180231.622000", "180231.626000", "180231.629000", "180231.633000", "180231.636000", "180231.639000", "180231.643000", "180231.646000", "180231.650000", "180231.653000", "180311.543000", "180311.547000", "180311.551000", "180311.554000", "180311.557000", "180311.561000", "180311.564000", "180311.568000", "180311.573000", "180311.576000", "180311.580000", "180311.583000", "180311.587000", "180311.590000", "180311.594000", "180311.597000", "180311.600000", "180311.604000", "180311.607000", "180311.611000", "180311.614000", "180311.617000", "180311.621000", "180311.625000", "180311.628000", "180311.631000", "180311.635000", "180351.542000", "180351.546000", "180351.549000", "180351.553000", "180351.556000", "180351.560000", "180351.563000", "180351.567000", "180351.570000", "180351.574000", "180351.577000", "180351.581000", "180351.584000", "180351.588000", "180351.591000", "180351.595000", "180351.598000", "180351.602000", "180351.605000", "180351.609000", "180351.612000", "180351.615000", "180351.619000", "180351.622000", "180351.626000", "180351.629000", "180431.542000", "180431.546000", "180431.549000", "180431.553000", "180431.556000", "180431.560000", "180431.563000", "180431.567000", "180431.570000", "180431.574000", "180431.577000", "180431.580000", "180431.584000", "180431.588000", "180431.591000", "180431.594000", "180431.598000", "180431.601000", "180431.605000", "180431.608000", "180431.611000", "180431.615000", "180431.626000", "180431.629000", "180431.633000", "180431.636000", "180431.639000", "180500.936000", "180500.939000", "180500.943000", "180500.946000", "180500.949000", "180500.953000", "180500.957000", "180500.960000", "180500.963000", "180500.967000", "180500.970000", "180500.974000", "180500.977000", "180500.980000", "180500.984000", "180501.002000", "180501.006000", "180501.009000", "180501.013000", "180501.016000"],
