{
  "AcquisitionMatrixPE": 104,
  "AcquisitionNumber": 1,
  "AcquisitionTime": "17:53:39.015000",
  "BandwidthPerPixelPhaseEncode": 17.17,
  "BaseResolution": 104,
  "BodyPartExamined": "BRAIN",
  "CoilCombinationMethod": "Sum of Squares",
  "ConsistencyInfo": "N4_VE11C_LATEST_20160120",
  "ConversionSoftware": "dcm2niix",
  "ConversionSoftwareVersion": "v1.0.20211006",
  "DerivedVendorReportedEchoSpacing": 0.000560011,
  "DeviceSerialNumber": "167006",
  "DwellTime": 2.1e-06,
  "EchoTime": 0.037,
  "EchoTime1": 0.037,
  "EchoTime2": 0.001,
  "EchoTrainLength": 104,
  "EffectiveEchoSpacing": 0.000560011,
  "FlipAngle": 52,
  "HeudiconvVersion": "0.11.3.post9+gc939bf8",
  "ImageComments": "Unaliased MB4/PE3/LB",
  "ImageOrientationPatientDICOM": [0.999411, -0.0337825, 0.0059822, 0.0335031, 0.923461, -0.382226],
  "ImageOrientationText": "Tra>Cor(-22.5)>Sag(-0.4)",
  "ImageType": [
    "ORIGINAL",
    "PRIMARY",
    "P",
    "MB",
    "ND",
    "MOSAIC",
    "PHASE"
],
  "ImagingFrequency": 123.259,
  "InPlanePhaseEncodingDirectionDICOM": "COL",
  "InstitutionAddress": "Chemin Queen-Mary 4565,Montreal,District,CA,H3W 1W5",
  "InstitutionName": "IUGM",
  "InstitutionalDepartmentName": "Department",
  "MRAcquisitionType": "2D",
  "MagneticFieldStrength": 3,
  "Manufacturer": "Siemens",
  "ManufacturersModelName": "Prisma_fit",
  "MatrixCoilMode": "SENSE",
  "Modality": "MR",
  "MultibandAccelerationFactor": 4,
  "PartialFourier": 1,
  "PatientPosition": "HFS",
  "PercentPhaseFOV": 100,
  "PercentSampling": 100,
  "PhaseEncodingDirection": "j",
  "PhaseEncodingSteps": 104,
  "PhaseResolution": 1,
  "PixelBandwidth": 2290,
  "ProcedureStepDescription": "games^mario",
  "ProtocolName": "func_task-mario_run-03",
  "PulseSequenceDetails": "%CustomerSeq%\\cmrr_mbep2d_bold",
  "ReceiveCoilActiveElements": "HC1-7;NC1,2",
  "ReceiveCoilName": "HeadNeck_64",
  "ReconMatrixPE": 104,
  "RepetitionTime": 1.49,
  "SAR": 0.0788032,
  "ScanOptions": "FS",
  "ScanningSequence": "EP",
  "SequenceName": "epfid2d1_104",
  "SequenceVariant": "SK\\SS",
  "SeriesDescription": "func_task-mario_run-03",
  "SeriesNumber": 17,
  "ShimSetting": [612, -7243, -8812, 431, 12, -344, -4, 27],
  "SliceThickness": 2,
  "SliceTiming": [0, 0.7825, 0.0975, 0.88, 0.195, 0.98, 0.2925, 1.0775, 0.39, 1.175, 0.49, 1.2725, 0.5875, 1.37, 0.685, 0, 0.7825, 0.0975, 0.88, 0.195, 0.98, 0.2925, 1.0775, 0.39, 1.175, 0.49, 1.2725, 0.5875, 1.37, 0.685, 0, 0.7825, 0.0975, 0.88, 0.195, 0.98, 0.2925, 1.0775, 0.39, 1.175, 0.49, 1.2725, 0.5875, 1.37, 0.685, 0, 0.7825, 0.0975, 0.88, 0.195, 0.98, 0.2925, 1.0775, 0.39, 1.175, 0.49, 1.2725, 0.5875, 1.37, 0.685],
  "SoftwareVersions": "syngo MR E11",
  "SpacingBetweenSlices": 2,
  "StationName": "MRC35049",
  "TaskName": "mario",
  "TotalReadoutTime": 0.0576811,
  "TxRefAmp": 302.96,
  "WipMemBlock": "24a6ffd4-d46a-4f1e-8ada-e9bb52236326||Sequence: R017 ve11c/master r/75a17815+; Jun 28 2022 16:32:11 by eja",
  "dcmmeta_affine": [
    [-1.998822569847107, 0.06700628995895386, -0.014776492491364479, 100.79280090332031],
    [0.06756509095430374, 1.846922516822815, -0.7644031643867493, -70.15653991699219],
    [0.01196439377963543, 0.764452338218689, 1.848098874092102, -64.12813568115234],
    [0.0, 0.0, 0.0, 1.0]
],
  "dcmmeta_reorient_transform": [
    [0.0, -1.0, 0.0, 103.0],
    [1.0, 0.0, 0.0, 0.0],
    [0.0, 0.0, 1.0, 0.0],
    [0.0, 0.0, 0.0, 1.0]
],
  "dcmmeta_shape": [104, 104, 60, 457],
  "dcmmeta_slice_dim": 2,
  "dcmmeta_version": 0.6,
  "global": {
    "const": {
      "AcquisitionMatrix": [104, 0, 0, 104],
      "AngioFlag": "N",
      "BitsAllocated": 16,
      "BitsStored": 16,
      "BodyPartExamined": "BRAIN",
      "Columns": 832,
      "EchoNumbers": 1,
      "EchoTime": 37.0,
      "EchoTrainLength": 104,
      "FlipAngle": 52.0,
      "HighBit": 15,
      "ImageOrientationPatient": [0.99941130321184, -0.0337825448118, 0.00598219679235, 0.03350314658348, 0.92346125268319, -0.3822261816802],
      "ImagePositionPatient": [-859.65617019948, -767.76257928191, 288.51607834293],
      "ImageType": [
        "ORIGINAL",
        "PRIMARY",
        "P",
        "MB",
        "ND",
        "MOSAIC"
],
      "ImagedNucleus": "1H",
      "ImagingFrequency": 123.258783,
      "InPlanePhaseEncodingDirection": "COL",
      "LargestImagePixelValue": 4095,
      "MRAcquisitionType": "2D",
      "MagneticFieldStrength": 3.0,
      "Manufacturer": "SIEMENS",
      "ManufacturerModelName": "Prisma_fit",
      "Modality": "MR",
      "NumberOfAverages": 1.0,
      "NumberOfPhaseEncodingSteps": 104,
      "PercentPhaseFieldOfView": 100.0,
      "PercentSampling": 100.0,
      "PerformedProcedureStepStartTime": "165540.042000",
      "PhotometricInterpretation": "MONOCHROME2",
      "PixelBandwidth": 2290.0,
      "PixelRepresentation": 0,
      "PixelSpacing": [2.0, 2.0],
      "ProtocolName": "func_task-mario_run-03",
      "RepetitionTime": 1490.0,
      "RescaleIntercept": -4096.0,
      "RescaleSlope": 2.0,
      "RescaleType": "US",
      "Rows": 832,
      "SAR": 0.07880321553469,
      "SamplesPerPixel": 1,
      "ScanOptions": "FS",
      "ScanningSequence": "EP",
      "SequenceName": "epfid2d1_104",
      "SequenceVariant": [
        "SK",
        "SS"
],
      "SeriesDescription": "func_task-mario_run-03",
      "SeriesNumber": 17,
      "SeriesTime": "175451.711000",
      "SliceLocation": -33.188309661877,
      "SliceThickness": 2.0,
      "SmallestImagePixelValue": 0,
      "SoftwareVersions": "syngo MR E11",
      "SpacingBetweenSlices": 1.9999999598905,
      "SpecificCharacterSet": "ISO_IR 100",
      "StudyID": "1",
      "StudyTime": "165539.801000",
      "TransmitCoilName": "Body",
      "VariableFlipAngleFlag": "N",
      "WindowCenterWidthExplanation": "Algo1",
      "dBdt": 0.0},
    "slices": {}
  },
  "time": {
    "samples": {
      "AcquisitionNumber": [1, 2, 3, 4, 5, 6, 7, 8, 9, 10, 11, 12, 13, 14, 15, 16, 17, 18, 19, 20, 21, 22, 23, 24, 25, 26, 27, 28, 29, 30, 31, 32, 33, 34, 35, 36, 37, 38, 39, 40, 41, 42, 43, 44, 45, 46, 47, 48, 49, 50, 51, 52, 53, 54, 55, 56, 57, 58, 59, 60, 61, 62, 63, 64, 65, 66, 67, 68, 69, 70, 71, 72, 73, 74, 75, 76, 77, 78, 79, 80, 81, 82, 83, 84, 85, 86, 87, 88, 89, 90, 91, 92, 93, 94, 95, 96, 97, 98, 99, 100, 101, 102, 103, 104, 105, 106, 107, 108, 109, 110, 111, 112, 113, 114, 115, 116, 117, 118, 119, 120, 121, 122, 123, 124, 125, 126, 127, 128, 129, 130, 131, 132, 133, 134, 135, 136, 137, 138, 139, 140, 141, 142, 143, 144, 145, 146, 147, 148, 149, 150, 151, 152, 153, 154, 155, 156, 157, 158, 159, 160, 161, 162, 163, 164, 165, 166, 167, 168, 169, 170, 171, 172, 173, 174, 175, 176, 177, 178, 179, 180, 181, 182, 183, 184, 185, 186, 187, 188, 189, 190, 191, 192, 193, 194, 195, 196, 197, 198, 199, 200, 201, 202, 203, 204, 205, 206, 207, 208, 209, 210, 211, 212, 213, 214, 215, 216, 217, 218, 219, 220, 221, 222, 223, 224, 225, 226, 227, 228, 229, 230, 231, 232, 233, 234, 235, 236, 237, 238, 239, 240, 241, 242, 243, 244, 245, 246, 247, 248, 249, 250, 251, 252, 253, 254, 255, 256, 257, 258, 259, 260, 261, 262, 263, 264, 265, 266, 267, 268, 269, 270, 271, 272, 273, 274, 275, 276, 277, 278, 279, 280, 281, 282, 283, 284, 285, 286, 287, 288, 289, 290, 291, 292, 293, 294, 295, 296, 297, 298, 299, 300, 301, 302, 303, 304, 305, 306, 307, 308, 309, 310, 311, 312, 313, 314, 315, 316, 317, 318, 319, 320, 321, 322, 323, 324, 325, 326, 327, 328, 329, 330, 331, 332, 333, 334, 335, 336, 337, 338, 339, 340, 341, 342, 343, 344, 345, 346, 347, 348, 349, 350, 351, 352, 353, 354, 355, 356, 357, 358, 359, 360, 361, 362, 363, 364, 365, 366, 367, 368, 369, 370, 371, 372, 373, 374, 375, 376, 377, 378, 379, 380, 381, 382, 383, 384, 385, 386, 387, 388, 389, 390, 391, 392, 393, 394, 395, 396, 397, 398, 399, 400, 401, 402, 403, 404, 405, 406, 407, 408, 409, 410, 411, 412, 413, 414, 415, 416, 417, 418, 419, 420, 421, 422, 423, 424, 425, 426, 427, 428, 429, 430, 431, 432, 433, 434, 435, 436, 437, 438, 439, 440, 441, 442, 443, 444, 445, 446, 447, 448, 449, 450, 451, 452, 453, 454, 455, 456, 457],
      "AcquisitionTime": ["175339.015000", "175340.505000", "175341.995000", "175343.485000", "175344.975000", "175346.465000", "175347.955000", "175349.445000", "175350.935000", "175352.425000", "175353.915000", "175355.405000", "175356.895000", "175358.385000", "175359.875000", "175401.365000", "175402.855000", "175404.345000", "175405.835000", "175407.325000", "175408.815000", "175410.305000", "175411.795000", "175413.285000", "175414.775000", "175416.265000", "175417.755000", "175419.245000", "175420.735000", "175422.225000", "175423.715000", "175425.205000", "175426.695000", "175428.185000", "175429.675000", "175431.165000", "175432.655000", "175434.145000", "175435.635000", "175437.125000", "175438.615000", "175440.105000", "175441.595000", "175443.085000", "175444.575000", "175446.065000", "175447.555000", "175449.045000", "175450.535000", "175452.025000", "175453.515000", "175455.005000", "175456.495000", "175457.985000", "175459.475000", "175500.965000", "175502.455000", "175503.945000", "175505.435000", "175506.925000", "175508.415000", "175509.905000", "175511.395000", "175512.885000", "175514.375000", "175515.865000", "175517.355000", "175518.845000", "175520.335000", "175521.825000", "175523.315000", "175524.805000", "175526.295000", "175527.785000", "175529.275000", "175530.765000", "175532.255000", "175533.745000", "175535.235000", "175536.725000", "175538.215000", "175539.705000", "175541.195000", "175542.685000", "175544.175000", "175545.665000", "175547.155000", "175548.645000", "175550.135000", "175551.625000", "175553.115000", "175554.605000", "175556.095000", "175557.585000", "175559.075000", "175600.565000", "175602.055000", "175603.545000", "175605.035000", "175606.525000", "175608.015000", "175609.505000", "175610.995000", "175612.485000", "175613.975000", "175615.465000", "175616.955000", "175618.445000", "175619.935000", "175621.425000", "175622.915000", "175624.405000", "175625.895000", "175627.385000", "175628.875000", "175630.365000", "175631.855000", "175633.345000", "175634.835000", "175636.325000", "175637.815000", "175639.305000", "175640.795000", "175642.285000", "175643.775000", "175645.265000", "175646.755000", "175648.245000", "175649.735000", "175651.225000", "175652.715000", "175654.205000", "175655.695000", "175657.185000", "175658.675000", "175700.165000", "175701.655000", "175703.145000", "175704.635000", "175706.125000", "175707.615000", "175709.105000", "175710.595000", "175712.085000", "175713.575000", "175715.065000", "175716.555000", "175718.045000", "175719.535000", "175721.025000", "175722.515000", "175724.005000", "175725.495000", "175726.985000", "175728.475000", "175729.965000", "175731.455000", "175732.945000", "175734.435000", "175735.925000", "175737.415000", "175738.905000", "175740.395000", "175741.885000", "175743.375000", "175744.865000", "175746.355000", "175747.845000", "175749.335000", "175750.825000", "175752.315000", "175753.805000", "175755.295000", "175756.785000", "175758.275000", "175759.765000", "175801.255000", "175802.745000", "175804.235000", "175805.725000", "175807.215000", "175808.705000", "175810.195000", "175811.685000", "175813.175000", "175814.665000", "175816.155000", "175817.645000", "175819.135000", "175820.625000", "175822.115000", "175823.605000", "175825.095000", "175826.585000", "175828.075000", "175829.565000", "175831.055000", "175832.545000", "175834.035000", "175835.525000", "175837.015000", "175838.505000", "175839.995000", "175841.485000", "175842.975000", "175844.465000", "175845.955000", "175847.445000", "175848.935000", "175850.425000", "175851.915000", "175853.405000", "175854.895000", "175856.385000", "175857.875000", "175859.365000", "175900.855000", "175902.345000", "175903.835000", "175905.325000", "175906.815000", "175908.305000", "175909.795000", "175911.285000", "175912.775000", "175914.265000", "175915.755000", "175917.245000", "175918.735000", "175920.225000", "175921.715000", "175923.205000", "175924.695000", "175926.185000", "175927.675000", "175929.165000", "175930.655000", "175932.145000", "175933.635000", "175935.125000", "175936.615000", "175938.105000", "175939.595000", "175941.085000", "175942.575000", "175944.065000", "175945.555000", "175947.045000", "175948.535000", "175950.025000", "175951.515000", "175953.005000", "175954.495000", "175955.985000", "175957.475000", "175958.965000", "180000.455000", "180001.945000", "180003.435000", "180004.925000", "180006.415000", "180007.905000", "180009.395000", "180010.885000", "180012.375000", "180013.865000", "180015.355000", "180016.845000", "180018.335000", "180019.825000", "180021.315000", "180022.805000", "180024.295000", "180025.785000", "180027.275000", "180028.765000", "180030.255000", "180031.745000", "180033.235000", "180034.725000", "180036.215000", "180037.705000", "180039.195000", "180040.685000", "180042.175000", "180043.665000", "180045.155000", "180046.645000", "180048.135000", "180049.625000", "180051.115000", "180052.605000", "180054.095000", "180055.585000", "180057.075000", "180058.565000", "180100.055000", "180101.545000", "180103.035000", "180104.525000", "180106.015000", "180107.505000", "180108.995000", "180110.485000", "180111.975000", "180113.465000", "180114.955000", "180116.445000", "180117.935000", "180119.425000", "180120.915000", "180122.405000", "180123.895000", "180125.385000", "180126.875000", "180128.365000", "180129.855000", "180131.345000", "180132.835000", "180134.325000", "180135.815000", "180137.305000", "180138.795000", "180140.285000", "180141.775000", "180143.265000", "180144.755000", "180146.245000", "180147.735000", "180149.225000", "180150.715000", "180152.205000", "180153.695000", "180155.185000", "180156.675000", "180158.165000", "180159.655000", "180201.145000", "180202.635000", "180204.125000", "180205.615000", "180207.105000", "180208.595000", "180210.085000", "180211.575000", "180213.065000", "180214.555000", "180216.045000", "180217.535000", "180219.025000", "180220.515000", "180222.005000", "180223.495000", "180224.985000", "180226.475000", "180227.965000", "180229.455000", "180230.945000", "180232.435000", "180233.925000", "180235.415000", "180236.905000", "180238.395000", "180239.885000", "180241.375000", "180242.865000", "180244.355000", "180245.845000", "180247.335000", "180248.825000", "180250.315000", "180251.805000", "180253.295000", "180254.785000", "180256.275000", "180257.765000", "180259.255000", "180300.745000", "180302.235000", "180303.725000", "180305.215000", "180306.705000", "180308.195000", "180309.685000", "180311.175000", "180312.665000", "180314.155000", "180315.645000", "180317.135000", "180318.625000", "180320.115000", "180321.605000", "180323.095000", "180324.585000", "180326.075000", "180327.565000", "180329.055000", "180330.545000", "180332.035000", "180333.525000", "180335.015000", "180336.505000", "180337.995000", "180339.485000", "180340.975000", "180342.465000", "180343.955000", "180345.445000", "180346.935000", "180348.425000", "180349.915000", "180351.405000", "180352.895000", "180354.385000", "180355.875000", "180357.365000", "180358.855000", "180400.345000", "180401.835000", "180403.325000", "180404.815000", "180406.305000", "180407.795000", "180409.285000", "180410.775000", "180412.265000", "180413.755000", "180415.245000", "180416.735000", "180418.225000", "180419.715000", "180421.205000", "180422.695000", "180424.185000", "180425.675000", "180427.165000", "180428.655000", "180430.145000", "180431.635000", "180433.125000", "180434.615000", "180436.105000", "180437.595000", "180439.085000", "180440.575000", "180442.065000", "180443.555000", "180445.045000", "180446.535000", "180448.025000", "180449.515000", "180451.005000", "180452.495000", "180453.985000", "180455.475000", "180456.965000", "180458.455000"],
      "ContentTime": ["175451.713000", "175451.716000", "175451.719000", "175451.721000", "175451.724000", "175451.727000", "175451.729000", "175451.732000", "175451.734000", "175451.737000", "175451.740000", "175451.742000", "175451.745000", "175451.747000", "175451.761000", "175451.763000", "175451.766000", "175451.769000", "175451.771000", "175451.774000", "175451.776000", "175451.779000", "175451.781000", "175451.784000", "175511.670000", "175511.673000", "175511.676000", "175511.678000", "175511.681000", "175511.684000", "175511.686000", "175511.689000", "175511.692000", "175511.694000", "175511.697000", "175511.699000", "175511.702000", "175511.705000", "175511.707000", "175511.710000", "175511.712000", "175511.715000", "175511.717000", "175511.720000", "175531.658000", "175531.661000", "175531.663000", "175531.666000", "175531.669000", "175531.676000", "175531.679000", "175531.681000", "175531.684000", "175531.687000", "175531.689000", "175531.692000", "175531.694000", "175531.697000", "175531.699000", "175531.702000", "175531.705000", "175531.707000", "175531.710000", "175531.712000", "175551.668000", "175551.671000", "175551.674000", "175551.676000", "175551.679000", "175551.682000", "175551.685000", "175551.687000", "175551.690000", "175551.693000", "175551.695000", "175551.698000", "175551.700000", "175551.703000", "175551.705000", "175551.708000", "175551.723000", "175551.726000", "175551.728000", "175551.731000", "175631.712000", "175631.715000", "175631.717000", "175631.720000", "175631.723000", "175631.725000", "175631.728000", "175631.730000", "175631.733000", "175631.736000", "175631.738000", "175631.741000", "175631.743000", "175631.746000", "175631.749000", "175631.751000", "175631.754000", "175631.756000", "175631.759000", "175631.761000", "175631.764000", "175631.767000", "175631.769000", "175631.772000", "175631.774000", "175631.777000", "175631.780000", "175631.782000", "175631.785000", "175631.787000", "175631.790000", "175711.691000", "175711.694000", "175711.696000", "175711.699000", "175711.702000", "175711.704000", "175711.707000", "175711.710000", "175711.712000", "175711.715000", "175711.717000", "175711.720000", "175711.723000", "175711.725000", "175711.728000", "175711.730000", "175711.733000", "175711.735000", "175711.738000", "175711.741000", "175711.743000", "175711.746000", "175711.748000", "175711.751000", "175711.754000", "175711.756000", "175711.759000", "175751.704000", "175751.707000", "175751.709000", "175751.712000", "175751.714000", "175751.717000", "175751.720000", "175751.722000", "175751.725000", "175751.728000", "175751.730000", "175751.733000", "175751.735000", "175751.738000", "175751.740000", "175751.743000", "175751.746000", "175751.748000", "175751.751000", "175751.753000", "175751.756000", "175751.759000", "175751.761000", "175751.764000", "175751.766000", "175751.809000", "175751.811000", "175831.689000", "175831.691000", "175831.694000", "175831.697000", "175831.699000", "175831.702000", "175831.704000", "175831.707000", "175831.710000", "175831.712000", "175831.715000", "175831.717000", "175831.720000", "175831.723000", "175831.725000", "175831.728000", "175831.730000", "175831.733000", "175831.735000", "175831.738000", "175831.741000", "175831.743000", "175831.747000", "175831.749000", "175831.752000", "175831.754000", "175831.757000", "175911.697000", "175911.700000", "175911.703000", "175911.705000", "175911.708000", "175911.711000", "175911.713000", "175911.716000", "175911.718000", "175911.721000", "175911.724000", "175911.726000", "175911.729000", "175911.731000", "175911.734000", "175911.736000", "175911.739000", "175911.742000", "175911.744000", "175911.747000", "175911.750000", "175911.752000", "175911.755000", "175911.757000", "175911.760000", "175911.762000", "175911.765000", "175951.711000", "175951.714000", "175951.717000", "175951.719000", "175951.722000", "175951.724000", "175951.727000", "175951.729000", "175951.732000", "175951.735000", "175951.737000", "175951.740000", "175951.743000", "175951.745000", "175951.748000", "175951.750000", "175951.753000", "175951.755000", "175951.758000", "175951.760000", "175951.763000", "175951.766000", "175951.768000", "175951.818000", "175951.820000", "175951.823000", "180031.696000", "180031.698000", "180031.706000", "180031.709000", "180031.712000", "180031.714000", "180031.717000", "180031.719000", "180031.722000", "180031.724000", "180031.727000", "180031.730000", "180031.732000", "180031.735000", "180031.737000", "180031.740000", "180031.743000", "180031.745000", "180031.748000", "180031.750000", "180031.753000", "180031.756000", "180031.758000", "180031.761000", "180031.764000", "180031.766000", "180031.821000", "180111.704000", "180111.707000", "180111.710000", "180111.712000", "180111.715000", "180111.718000", "180111.720000", "180111.723000", "180111.725000", "180111.728000", "180111.730000", "180111.733000", "180111.736000", "180111.738000", "180111.741000", "180111.743000", "180111.754000", "180111.756000", "180111.759000", "180111.761000", "180111.764000", "180111.766000", "180111.808000", "180111.810000", "180111.813000", "180111.816000", "180111.818000", "180151.695000", "180151.698000", "180151.701000", "180151.704000", "180151.706000", "180151.709000", "180151.711000", "180151.714000", "180151.716000", "180151.727000", "180151.730000", "180151.732000", "180151.735000", "180151.737000", "180151.740000", "180151.743000", "180151.745000", "180151.748000", "180151.750000", "180151.753000", "180151.756000", "180151.758000", "180151.761000", "180151.763000", "180151.766000", "180151.769000", "180151.771000", "180231.709000", "180231.712000", "180231.715000", "180231.717000", "180231.720000", "180231.722000", "180231.725000", "180231.728000", "180231.730000", "180231.733000", "180231.735000", "180231.738000", "180231.741000", "180231.743000", "180231.746000", "180231.748000", "180231.751000", "180231.754000", "180231.756000", "180231.759000", "180231.761000", "180231.764000", "180231.766000", "180231.769000", "180231.772000", "180231.775000", "180231.777000", "180311.684000", "180311.687000", "180311.689000", "180311.692000", "180311.695000", "180311.697000", "180311.700000", "180311.702000", "180311.705000", "180311.707000", "180311.710000", "180311.713000", "180311.715000", "180311.718000", "180311.720000", "180311.723000", "180311.733000", "180311.735000", "180311.738000", "180311.741000", "180311.743000", "180311.746000", "180311.748000", "180311.751000", "180311.754000", "180311.756000", "180311.759000", "180351.681000", "180351.683000", "180351.690000", "180351.700000", "180351.703000", "180351.706000", "180351.708000", "180351.711000", "180351.713000", "180351.716000", "180351.719000", "180351.721000", "180351.724000", "180351.726000", "180351.729000", "180351.732000", "180351.734000", "180351.737000", "180351.739000", "180351.742000", "180351.745000", "180351.747000", "180351.750000", "180351.752000", "180351.755000", "180351.757000", "180431.699000", "180431.702000", "180431.704000", "180431.707000", "180431.709000", "180431.712000", "180431.715000", "180431.717000", "180431.720000", "180431.722000", "180431.725000", "180431.728000", "180431.742000", "180431.745000", "180431.747000", "180431.750000", "180431.752000", "180431.755000", "180431.757000", "180431.760000", "180431.763000", "180431.765000", "180431.768000", "180431.770000", "180431.773000", "180431.775000", "180431.778000", "180501.070000", "180501.073000", "180501.076000", "180501.078000", "180501.081000", "180501.083000", "180501.087000", "180501.090000", "180501.092000", "180501.095000", "180501.097000", "180501.100000", "180501.102000", "180501.105000", "180501.108000", "180501.110000", "180501.113000", "180501.115000", "180501.118000", "180501.121000"],
