{
  "AcquisitionMatrixPE": 104,
  "AcquisitionNumber": 1,
  "AcquisitionTime": "18:24:30.030000",
  "BandwidthPerPixelPhaseEncode": 17.17,
  "BaseResolution": 104,
  "BodyPartExamined": "BRAIN",
  "CoilCombinationMethod": "Sum of Squares",
  "ConsistencyInfo": "N4_VE11C_LATEST_20160120",
  "ConversionSoftware": "dcm2niix",
  "ConversionSoftwareVersion": "v1.0.20211006",
  "DerivedVendorReportedEchoSpacing": 0.000560011,
  "DeviceSerialNumber": "167006",
  "DwellTime": 2.1e-06,
  "EchoTime": 0.037,
  "EchoTime1": 0.037,
  "EchoTime2": 0.001,
  "EchoTrainLength": 104,
  "EffectiveEchoSpacing": 0.000560011,
  "FlipAngle": 52,
  "HeudiconvVersion": "0.11.3.post9+gc939bf8",
  "ImageComments": "Unaliased MB4/PE3/LB",
  "ImageOrientationPatientDICOM": [0.999616, -0.0277108, -0.000684383, 0.0254775, 0.928222, -0.371154],
  "ImageOrientationText": "Tra>Cor(-21.8)>Sag(-0.6)",
  "ImageType": [
    "ORIGINAL",
    "PRIMARY",
    "P",
    "MB",
    "ND",
    "MOSAIC",
    "PHASE"
],
  "ImagingFrequency": 123.259,
  "InPlanePhaseEncodingDirectionDICOM": "COL",
  "InstitutionAddress": "Chemin Queen-Mary 4565,Montreal,District,CA,H3W 1W5",
  "InstitutionName": "IUGM",
  "InstitutionalDepartmentName": "Department",
  "MRAcquisitionType": "2D",
  "MagneticFieldStrength": 3,
  "Manufacturer": "Siemens",
  "ManufacturersModelName": "Prisma_fit",
  "MatrixCoilMode": "SENSE",
  "Modality": "MR",
  "MultibandAccelerationFactor": 4,
  "PartialFourier": 1,
  "PatientPosition": "HFS",
  "PercentPhaseFOV": 100,
  "PercentSampling": 100,
  "PhaseEncodingDirection": "j",
  "PhaseEncodingSteps": 104,
  "PhaseResolution": 1,
  "PixelBandwidth": 2290,
  "ProcedureStepDescription": "games^mario",
  "ProtocolName": "func_task-mario_run-05",
  "PulseSequenceDetails": "%CustomerSeq%\\cmrr_mbep2d_bold",
  "ReceiveCoilActiveElements": "HC1-7;NC1,2",
  "ReceiveCoilName": "HeadNeck_64",
  "ReconMatrixPE": 104,
  "RepetitionTime": 1.49,
  "SAR": 0.0607204,
  "ScanOptions": "FS",
  "ScanningSequence": "EP",
  "SequenceName": "epfid2d1_104",
  "SequenceVariant": "SK\\SS",
  "SeriesDescription": "func_task-mario_run-05",
  "SeriesNumber": 23,
  "ShimSetting": [605, -7255, -8817, 449, -9, -344, 22, 29],
  "SliceThickness": 2,
  "SliceTiming": [0, 0.785, 0.0975, 0.8825, 0.1975, 0.98, 0.295, 1.0775, 0.3925, 1.1775, 0.49, 1.275, 0.5875, 1.3725, 0.6875, 0, 0.785, 0.0975, 0.8825, 0.1975, 0.98, 0.295, 1.0775, 0.3925, 1.1775, 0.49, 1.275, 0.5875, 1.3725, 0.6875, 0, 0.785, 0.0975, 0.8825, 0.1975, 0.98, 0.295, 1.0775, 0.3925, 1.1775, 0.49, 1.275, 0.5875, 1.3725, 0.6875, 0, 0.785, 0.0975, 0.8825, 0.1975, 0.98, 0.295, 1.0775, 0.3925, 1.1775, 0.49, 1.275, 0.5875, 1.3725, 0.6875],
  "SoftwareVersions": "syngo MR E11",
  "SpacingBetweenSlices": 2,
  "StationName": "MRC35049",
  "TaskName": "mario",
  "TotalReadoutTime": 0.0576811,
  "TxRefAmp": 267.999,
  "WipMemBlock": "072cb9cd-dd7d-4e25-aa4e-4fab81d4e16f||Sequence: R017 ve11c/master r/75a17815+; Jun 28 2022 16:32:11 by eja",
  "dcmmeta_affine": [
    [-1.9992314577102661, 0.05095505714416504, -0.021840473636984825, 102.01563262939453],
    [0.05542157217860222, 1.8564432859420776, -0.741988480091095, -70.67186737060547],
    [-0.0013687663013115525, 0.7423086166381836, 1.8571418523788452, -62.57225036621094],
    [0.0, 0.0, 0.0, 1.0]
],
  "dcmmeta_reorient_transform": [
    [0.0, -1.0, 0.0, 103.0],
    [1.0, 0.0, 0.0, 0.0],
    [0.0, 0.0, 1.0, 0.0],
    [0.0, 0.0, 0.0, 1.0]
],
  "dcmmeta_shape": [104, 104, 60, 464],
  "dcmmeta_slice_dim": 2,
  "dcmmeta_version": 0.6,
  "global": {
    "const": {
      "AcquisitionMatrix": [104, 0, 0, 104],
      "AngioFlag": "N",
      "BitsAllocated": 16,
      "BitsStored": 16,
      "BodyPartExamined": "BRAIN",
      "Columns": 832,
      "EchoNumbers": 1,
      "EchoTime": 37.0,
      "EchoTrainLength": 104,
      "FlipAngle": 52.0,
      "HighBit": 15,
      "ImageOrientationPatient": [0.99961574813782, -0.0277107866102, -0.000684383157, 0.02547752920002, 0.92822161760626, -0.3711543130752],
      "ImagePositionPatient": [-853.53190683873, -776.11367372696, 284.58410877222],
      "ImageType": [
        "ORIGINAL",
        "PRIMARY",
        "P",
        "MB",
        "ND",
        "MOSAIC"
],
      "ImagedNucleus": "1H",
      "ImagingFrequency": 123.25877,
      "InPlanePhaseEncodingDirection": "COL",
      "LargestImagePixelValue": 4095,
      "MRAcquisitionType": "2D",
      "MagneticFieldStrength": 3.0,
      "Manufacturer": "SIEMENS",
      "ManufacturerModelName": "Prisma_fit",
      "Modality": "MR",
      "NumberOfAverages": 1.0,
      "NumberOfPhaseEncodingSteps": 104,
      "PercentPhaseFieldOfView": 100.0,
      "PercentSampling": 100.0,
      "PerformedProcedureStepStartTime": "172302.154000",
      "PhotometricInterpretation": "MONOCHROME2",
      "PixelBandwidth": 2290.0,
      "PixelRepresentation": 0,
      "PixelSpacing": [2.0, 2.0],
      "ProtocolName": "func_task-mario_run-05",
      "RepetitionTime": 1490.0,
      "RescaleIntercept": -4096.0,
      "RescaleSlope": 2.0,
      "RescaleType": "US",
      "Rows": 832,
      "SAR": 0.0607204220721,
      "SamplesPerPixel": 1,
      "ScanOptions": "FS",
      "ScanningSequence": "EP",
      "SequenceName": "epfid2d1_104",
      "SequenceVariant": [
        "SK",
        "SS"
],
      "SeriesDescription": "func_task-mario_run-05",
      "SeriesNumber": 23,
      "SeriesTime": "182546.613000",
      "SliceLocation": -32.997952928116,
      "SliceThickness": 2.0,
      "SmallestImagePixelValue": 0,
      "SoftwareVersions": "syngo MR E11",
      "SpacingBetweenSlices": 1.9999999677671,
      "SpecificCharacterSet": "ISO_IR 100",
      "StudyID": "1",
      "StudyTime": "172302.086000",
      "TransmitCoilName": "Body",
      "VariableFlipAngleFlag": "N",
      "WindowCenterWidthExplanation": "Algo1",
      "dBdt": 0.0},
    "slices": {}
  },
  "time": {
    "samples": {
      "AcquisitionNumber": [1, 2, 3, 4, 5, 6, 7, 8, 9, 10, 11, 12, 13, 14, 15, 16, 17, 18, 19, 20, 21, 22, 23, 24, 25, 26, 27, 28, 29, 30, 31, 32, 33, 34, 35, 36, 37, 38, 39, 40, 41, 42, 43, 44, 45, 46, 47, 48, 49, 50, 51, 52, 53, 54, 55, 56, 57, 58, 59, 60, 61, 62, 63, 64, 65, 66, 67, 68, 69, 70, 71, 72, 73, 74, 75, 76, 77, 78, 79, 80, 81, 82, 83, 84, 85, 86, 87, 88, 89, 90, 91, 92, 93, 94, 95, 96, 97, 98, 99, 100, 101, 102, 103, 104, 105, 106, 107, 108, 109, 110, 111, 112, 113, 114, 115, 116, 117, 118, 119, 120, 121, 122, 123, 124, 125, 126, 127, 128, 129, 130, 131, 132, 133, 134, 135, 136, 137, 138, 139, 140, 141, 142, 143, 144, 145, 146, 147, 148, 149, 150, 151, 152, 153, 154, 155, 156, 157, 158, 159, 160, 161, 162, 163, 164, 165, 166, 167, 168, 169, 170, 171, 172, 173, 174, 175, 176, 177, 178, 179, 180, 181, 182, 183, 184, 185, 186, 187, 188, 189, 190, 191, 192, 193, 194, 195, 196, 197, 198, 199, 200, 201, 202, 203, 204, 205, 206, 207, 208, 209, 210, 211, 212, 213, 214, 215, 216, 217, 218, 219, 220, 221, 222, 223, 224, 225, 226, 227, 228, 229, 230, 231, 232, 233, 234, 235, 236, 237, 238, 239, 240, 241, 242, 243, 244, 245, 246, 247, 248, 249, 250, 251, 252, 253, 254, 255, 256, 257, 258, 259, 260, 261, 262, 263, 264, 265, 266, 267, 268, 269, 270, 271, 272, 273, 274, 275, 276, 277, 278, 279, 280, 281, 282, 283, 284, 285, 286, 287, 288, 289, 290, 291, 292, 293, 294, 295, 296, 297, 298, 299, 300, 301, 302, 303, 304, 305, 306, 307, 308, 309, 310, 311, 312, 313, 314, 315, 316, 317, 318, 319, 320, 321, 322, 323, 324, 325, 326, 327, 328, 329, 330, 331, 332, 333, 334, 335, 336, 337, 338, 339, 340, 341, 342, 343, 344, 345, 346, 347, 348, 349, 350, 351, 352, 353, 354, 355, 356, 357, 358, 359, 360, 361, 362, 363, 364, 365, 366, 367, 368, 369, 370, 371, 372, 373, 374, 375, 376, 377, 378, 379, 380, 381, 382, 383, 384, 385, 386, 387, 388, 389, 390, 391, 392, 393, 394, 395, 396, 397, 398, 399, 400, 401, 402, 403, 404, 405, 406, 407, 408, 409, 410, 411, 412, 413, 414, 415, 416, 417, 418, 419, 420, 421, 422, 423, 424, 425, 426, 427, 428, 429, 430, 431, 432, 433, 434, 435, 436, 437, 438, 439, 440, 441, 442, 443, 444, 445, 446, 447, 448, 449, 450, 451, 452, 453, 454, 455, 456, 457, 458, 459, 460, 461, 462, 463, 464],
      "AcquisitionTime": ["182430.030000", "182431.520000", "182433.010000", "182434.500000", "182435.990000", "182437.480000", "182438.970000", "182440.460000", "182441.950000", "182443.440000", "182444.930000", "182446.420000", "182447.910000", "182449.400000", "182450.890000", "182452.380000", "182453.870000", "182455.360000", "182456.850000", "182458.340000", "182459.830000", "182501.320000", "182502.810000", "182504.300000", "182505.790000", "182507.280000", "182508.770000", "182510.260000", "182511.750000", "182513.240000", "182514.730000", "182516.220000", "182517.710000", "182519.200000", "182520.690000", "182522.180000", "182523.670000", "182525.160000", "182526.650000", "182528.140000", "182529.630000", "182531.120000", "182532.610000", "182534.100000", "182535.590000", "182537.080000", "182538.570000", "182540.060000", "182541.550000", "182543.040000", "182544.530000", "182546.020000", "182547.510000", "182549.000000", "182550.490000", "182551.980000", "182553.470000", "182554.960000", "182556.450000", "182557.940000", "182559.430000", "182600.920000", "182602.410000", "182603.900000", "182605.390000", "182606.880000", "182608.370000", "182609.860000", "182611.350000", "182612.840000", "182614.330000", "182615.820000", "182617.310000", "182618.800000", "182620.290000", "182621.780000", "182623.270000", "182624.760000", "182626.250000", "182627.740000", "182629.230000", "182630.720000", "182632.210000", "182633.700000", "182635.190000", "182636.680000", "182638.170000", "182639.660000", "182641.150000", "182642.640000", "182644.130000", "182645.620000", "182647.110000", "182648.600000", "182650.090000", "182651.580000", "182653.070000", "182654.560000", "182656.050000", "182657.540000", "182659.030000", "182700.520000", "182702.010000", "182703.500000", "182704.990000", "182706.480000", "182707.970000", "182709.460000", "182710.950000", "182712.440000", "182713.930000", "182715.420000", "182716.910000", "182718.400000", "182719.890000", "182721.380000", "182722.870000", "182724.360000", "182725.850000", "182727.340000", "182728.830000", "182730.320000", "182731.810000", "182733.300000", "182734.790000", "182736.280000", "182737.770000", "182739.260000", "182740.750000", "182742.240000", "182743.730000", "182745.220000", "182746.710000", "182748.200000", "182749.690000", "182751.180000", "182752.670000", "182754.160000", "182755.650000", "182757.140000", "182758.630000", "182800.120000", "182801.610000", "182803.100000", "182804.590000", "182806.080000", "182807.570000", "182809.060000", "182810.550000", "182812.040000", "182813.530000", "182815.020000", "182816.510000", "182818.000000", "182819.490000", "182820.980000", "182822.470000", "182823.960000", "182825.450000", "182826.940000", "182828.430000", "182829.920000", "182831.410000", "182832.900000", "182834.390000", "182835.880000", "182837.370000", "182838.860000", "182840.350000", "182841.840000", "182843.330000", "182844.820000", "182846.310000", "182847.800000", "182849.290000", "182850.780000", "182852.270000", "182853.760000", "182855.250000", "182856.740000", "182858.230000", "182859.720000", "182901.210000", "182902.700000", "182904.190000", "182905.680000", "182907.170000", "182908.660000", "182910.150000", "182911.640000", "182913.130000", "182914.620000", "182916.110000", "182917.600000", "182919.090000", "182920.580000", "182922.070000", "182923.560000", "182925.050000", "182926.540000", "182928.030000", "182929.520000", "182931.010000", "182932.500000", "182933.990000", "182935.480000", "182936.970000", "182938.460000", "182939.950000", "182941.440000", "182942.930000", "182944.420000", "182945.910000", "182947.400000", "182948.890000", "182950.380000", "182951.870000", "182953.360000", "182954.850000", "182956.340000", "182957.830000", "182959.320000", "183000.810000", "183002.300000", "183003.790000", "183005.280000", "183006.770000", "183008.260000", "183009.750000", "183011.240000", "183012.730000", "183014.220000", "183015.710000", "183017.200000", "183018.690000", "183020.180000", "183021.670000", "183023.160000", "183024.650000", "183026.140000", "183027.630000", "183029.120000", "183030.610000", "183032.100000", "183033.590000", "183035.080000", "183036.570000", "183038.060000", "183039.550000", "183041.040000", "183042.530000", "183044.020000", "183045.510000", "183047.000000", "183048.490000", "183049.980000", "183051.470000", "183052.960000", "183054.450000", "183055.940000", "183057.430000", "183058.920000", "183100.410000", "183101.900000", "183103.390000", "183104.880000", "183106.370000", "183107.860000", "183109.350000", "183110.840000", "183112.330000", "183113.820000", "183115.310000", "183116.800000", "183118.290000", "183119.780000", "183121.270000", "183122.760000", "183124.250000", "183125.740000", "183127.230000", "183128.720000", "183130.210000", "183131.700000", "183133.190000", "183134.680000", "183136.170000", "183137.660000", "183139.150000", "183140.640000", "183142.130000", "183143.620000", "183145.110000", "183146.600000", "183148.090000", "183149.580000", "183151.070000", "183152.560000", "183154.050000", "183155.540000", "183157.030000", "183158.520000", "183200.010000", "183201.500000", "183202.990000", "183204.480000", "183205.970000", "183207.460000", "183208.950000", "183210.440000", "183211.930000", "183213.420000", "183214.910000", "183216.400000", "183217.890000", "183219.380000", "183220.870000", "183222.360000", "183223.850000", "183225.340000", "183226.830000", "183228.320000", "183229.810000", "183231.300000", "183232.790000", "183234.280000", "183235.770000", "183237.260000", "183238.750000", "183240.240000", "183241.730000", "183243.220000", "183244.710000", "183246.200000", "183247.690000", "183249.180000", "183250.670000", "183252.160000", "183253.650000", "183255.140000", "183256.630000", "183258.120000", "183259.610000", "183301.100000", "183302.590000", "183304.080000", "183305.570000", "183307.060000", "183308.550000", "183310.040000", "183311.530000", "183313.020000", "183314.510000", "183316.000000", "183317.490000", "183318.980000", "183320.470000", "183321.960000", "183323.450000", "183324.940000", "183326.430000", "183327.920000", "183329.410000", "183330.900000", "183332.390000", "183333.880000", "183335.370000", "183336.860000", "183338.350000", "183339.840000", "183341.330000", "183342.820000", "183344.310000", "183345.800000", "183347.290000", "183348.780000", "183350.270000", "183351.760000", "183353.250000", "183354.740000", "183356.230000", "183357.720000", "183359.210000", "183400.700000", "183402.190000", "183403.680000", "183405.170000", "183406.660000", "183408.150000", "183409.640000", "183411.130000", "183412.620000", "183414.110000", "183415.600000", "183417.090000", "183418.580000", "183420.070000", "183421.560000", "183423.050000", "183424.540000", "183426.030000", "183427.520000", "183429.010000", "183430.500000", "183431.990000", "183433.480000", "183434.970000", "183436.460000", "183437.950000", "183439.440000", "183440.930000", "183442.420000", "183443.910000", "183445.400000", "183446.890000", "183448.380000", "183449.870000", "183451.360000", "183452.850000", "183454.340000", "183455.830000", "183457.320000", "183458.810000", "183500.300000", "183501.790000", "183503.280000", "183504.770000", "183506.260000", "183507.750000", "183509.240000", "183510.730000", "183512.220000", "183513.710000", "183515.200000", "183516.690000", "183518.180000", "183519.670000", "183521.160000", "183522.650000", "183524.140000", "183525.630000", "183527.120000", "183528.610000", "183530.100000", "183531.590000", "183533.080000", "183534.570000", "183536.060000", "183537.550000", "183539.040000", "183540.530000", "183542.020000", "183543.510000", "183545.000000", "183546.490000", "183547.980000", "183549.470000", "183550.960000", "183552.450000", "183553.940000", "183555.430000", "183556.920000", "183558.410000", "183559.900000"],
      "ContentTime": ["182546.615000", "182546.618000", "182546.621000", "182546.623000", "182546.626000", "182546.629000", "182546.631000", "182546.634000", "182546.636000", "182546.639000", "182546.641000", "182546.644000", "182546.646000", "182546.649000", "182546.656000", "182546.658000", "182546.661000", "182546.663000", "182546.666000", "182546.668000", "182546.671000", "182546.673000", "182546.676000", "182546.678000", "182546.681000", "182546.683000", "182546.686000", "182546.688000", "182606.550000", "182606.552000", "182606.555000", "182606.557000", "182606.560000", "182606.563000", "182606.573000", "182606.576000", "182606.579000", "182606.581000", "182606.584000", "182606.586000", "182606.589000", "182606.591000", "182606.594000", "182606.596000", "182606.599000", "182606.601000", "182606.604000", "182606.607000", "182626.549000", "182626.551000", "182626.554000", "182626.556000", "182626.559000", "182626.561000", "182626.564000", "182626.567000", "182626.569000", "182626.572000", "182626.574000", "182626.577000", "182626.579000", "182626.582000", "182626.584000", "182626.587000", "182626.590000", "182626.592000", "182626.595000", "182626.597000", "182646.565000", "182646.568000", "182646.570000", "182646.573000", "182646.576000", "182646.578000", "182646.581000", "182646.584000", "182646.586000", "182646.589000", "182646.591000", "182646.594000", "182646.597000", "182646.599000", "182646.602000", "182646.604000", "182646.607000", "182646.609000", "182646.612000", "182646.614000", "182646.617000", "182726.585000", "182726.588000", "182726.591000", "182726.593000", "182726.596000", "182726.599000", "182726.601000", "182726.604000", "182726.606000", "182726.609000", "182726.612000", "182726.614000", "182726.617000", "182726.619000", "182726.622000", "182726.625000", "182726.627000", "182726.630000", "182726.632000", "182726.635000", "182726.638000", "182726.640000", "182726.643000", "182726.645000", "182726.648000", "182726.650000", "182726.653000", "182726.655000", "182726.658000", "182807.021000", "182807.023000", "182807.026000", "182807.029000", "182807.031000", "182807.034000", "182807.036000", "182807.039000", "182807.041000", "182807.044000", "182807.046000", "182807.049000", "182807.051000", "182807.054000", "182807.057000", "182807.059000", "182807.062000", "182807.064000", "182807.067000", "182807.069000", "182807.072000", "182807.074000", "182807.077000", "182807.080000", "182807.082000", "182807.085000", "182807.087000", "182846.567000", "182846.570000", "182846.573000", "182846.576000", "182846.579000", "182846.581000", "182846.596000", "182846.599000", "182846.601000", "182846.604000", "182846.607000", "182846.609000", "182846.612000", "182846.614000", "182846.617000", "182846.619000", "182846.622000", "182846.624000", "182846.627000", "182846.629000", "182846.632000", "182846.634000", "182846.637000", "182846.640000", "182846.642000", "182846.645000", "182906.524000", "182906.527000", "182906.529000", "182906.532000", "182906.534000", "182906.537000", "182906.540000", "182906.542000", "182906.545000", "182906.547000", "182906.550000", "182906.552000", "182906.555000", "182906.557000", "182946.589000", "182946.592000", "182946.595000", "182946.597000", "182946.600000", "182946.602000", "182946.605000", "182946.607000", "182946.610000", "182946.612000", "182946.615000", "182946.618000", "182946.620000", "182946.623000", "182946.625000", "182946.628000", "182946.667000", "182946.669000", "182946.672000", "182946.674000", "182946.677000", "182946.680000", "182946.682000", "182946.685000", "182946.687000", "182946.690000", "182946.692000", "183026.575000", "183026.578000", "183026.580000", "183026.583000", "183026.586000", "183026.588000", "183026.591000", "183026.593000", "183026.596000", "183026.598000", "183026.601000", "183026.603000", "183026.606000", "183026.609000", "183026.611000", "183026.614000", "183026.616000", "183026.619000", "183026.621000", "183026.624000", "183026.626000", "183026.629000", "183026.631000", "183026.634000", "183026.637000", "183026.639000", "183026.642000", "183106.594000", "183106.597000", "183106.600000", "183106.602000", "183106.605000", "183106.607000", "183106.610000", "183106.612000", "183106.615000", "183106.618000", "183106.620000", "183106.623000", "183106.625000", "183106.628000", "183106.631000", "183106.634000", "183106.638000", "183106.642000", "183106.645000", "183106.647000", "183106.650000", "183106.652000", "183106.655000", "183106.657000", "183106.660000", "183106.663000", "183146.573000", "183146.575000", "183146.578000", "183146.581000", "183146.583000", "183146.586000", "183146.589000", "183146.591000", "183146.594000", "183146.596000", "183146.599000", "183146.601000", "183146.604000", "183146.607000", "183146.609000", "183146.612000", "183146.614000", "183146.617000", "183146.619000", "183146.622000", "183146.625000", "183146.627000", "183146.630000", "183146.632000", "183146.635000", "183146.638000", "183146.640000", "183226.581000", "183226.584000", "183226.587000", "183226.590000", "183226.592000", "183226.595000", "183226.597000", "183226.600000", "183226.602000", "183226.605000", "183226.608000", "183226.610000", "183226.613000", "183226.615000", "183226.618000", "183226.620000", "183226.623000", "183226.626000", "183226.628000", "183226.631000", "183226.633000", "183226.636000", "183226.639000", "183226.641000", "183226.644000", "183226.646000", "183226.649000", "183306.589000", "183306.592000", "183306.595000", "183306.597000", "183306.600000", "183306.602000", "183306.605000", "183306.607000", "183306.610000", "183306.612000", "183306.615000", "183306.618000", "183306.620000", "183306.623000", "183306.625000", "183306.628000", "183306.630000", "183306.633000", "183306.636000", "183306.638000", "183306.641000", "183306.643000", "183306.646000", "183306.648000", "183306.651000", "183306.653000", "183306.656000", "183346.597000", "183346.600000", "183346.603000", "183346.605000", "183346.608000", "183346.611000", "183346.613000", "183346.616000", "183346.618000", "183346.621000", "183346.623000", "183346.626000", "183346.628000", "183346.631000", "183346.634000", "183346.636000", "183346.639000", "183346.641000", "183346.644000", "183346.646000", "183346.649000", "183346.651000", "183346.654000", "183346.657000", "183346.659000", "183346.662000", "183346.664000", "183426.600000", "183426.603000", "183426.605000", "183426.608000", "183426.610000", "183426.613000", "183426.616000", "183426.618000", "183426.621000", "183426.623000", "183426.626000", "183426.628000", "183426.631000", "183426.633000", "183426.636000", "183426.639000", "183426.641000", "183426.644000", "183426.646000", "183426.649000", "183426.651000", "183426.654000", "183426.656000", "183426.659000", "183426.662000", "183426.664000", "183426.667000", "183506.603000", "183506.606000", "183506.609000", "183506.611000", "183506.614000", "183506.616000", "183506.619000", "183506.621000", "183506.624000", "183506.627000", "183506.629000", "183506.632000", "183506.634000", "183506.637000", "183506.640000", "183506.642000", "183506.645000", "183506.647000", "183506.650000", "183506.652000", "183506.655000", "183506.657000", "183506.660000", "183506.663000", "183506.665000", "183506.668000", "183546.589000", "183546.592000", "183546.594000", "183546.597000", "183546.599000", "183546.602000", "183546.604000", "183546.607000", "183546.610000", "183546.613000", "183546.616000", "183546.618000", "183546.621000", "183546.623000", "183546.626000", "183546.629000", "183546.631000", "183546.634000", "183546.636000", "183546.639000", "183546.641000", "183546.644000", "183546.646000", "183546.649000", "183546.652000", "183546.654000", "183546.657000", "183602.161000", "183602.164000", "183602.167000", "183602.169000", "183602.172000", "183602.174000", "183602.177000", "183602.179000", "183602.182000", "183602.184000", "183602.187000"],
