{
  "AcquisitionMatrixPE": 104,
  "AcquisitionNumber": 1,
  "AcquisitionTime": "17:57:0.952500",
  "BandwidthPerPixelPhaseEncode": 17.17,
  "BaseResolution": 104,
  "BodyPartExamined": "BRAIN",
  "CoilCombinationMethod": "Sum of Squares",
  "ConsistencyInfo": "N4_VE11C_LATEST_20160120",
  "ConversionSoftware": "dcm2niix",
  "ConversionSoftwareVersion": "v1.0.20211006",
  "DerivedVendorReportedEchoSpacing": 0.000560011,
  "DeviceSerialNumber": "167006",
  "DwellTime": 2.1e-06,
  "EchoTime": 0.037,
  "EchoTrainLength": 104,
  "EffectiveEchoSpacing": 0.000560011,
  "FlipAngle": 52,
  "HeudiconvVersion": "0.11.3.post9+gc939bf8",
  "ImageComments": "Unaliased MB4/PE3/LB",
  "ImageOrientationPatientDICOM": [0.999616, -0.0277108, -0.000684383, 0.0254775, 0.928222, -0.371154],
  "ImageOrientationText": "Tra>Cor(-21.8)>Sag(-0.6)",
  "ImageType": [
    "ORIGINAL",
    "PRIMARY",
    "M",
    "MB",
    "ND",
    "MOSAIC"
],
  "ImagingFrequency": 123.259,
  "InPlanePhaseEncodingDirectionDICOM": "COL",
  "InstitutionAddress": "Chemin Queen-Mary 4565,Montreal,District,CA,H3W 1W5",
  "InstitutionName": "IUGM",
  "InstitutionalDepartmentName": "Department",
  "MRAcquisitionType": "2D",
  "MagneticFieldStrength": 3,
  "Manufacturer": "Siemens",
  "ManufacturersModelName": "Prisma_fit",
  "MatrixCoilMode": "SENSE",
  "Modality": "MR",
  "MultibandAccelerationFactor": 4,
  "PartialFourier": 1,
  "PatientPosition": "HFS",
  "PercentPhaseFOV": 100,
  "PercentSampling": 100,
  "PhaseEncodingDirection": "j",
  "PhaseEncodingSteps": 104,
  "PhaseResolution": 1,
  "PixelBandwidth": 2290,
  "ProcedureStepDescription": "games^mario",
  "ProtocolName": "func_task-mario_run-03",
  "PulseSequenceDetails": "%CustomerSeq%\\cmrr_mbep2d_bold",
  "ReceiveCoilActiveElements": "HC1-7;NC1,2",
  "ReceiveCoilName": "HeadNeck_64",
  "ReconMatrixPE": 104,
  "RepetitionTime": 1.49,
  "SAR": 0.0607204,
  "ScanOptions": "FS",
  "ScanningSequence": "EP",
  "SequenceName": "epfid2d1_104",
  "SequenceVariant": "SK\\SS",
  "SeriesDescription": "func_task-mario_run-03",
  "SeriesNumber": 16,
  "ShimSetting": [605, -7255, -8817, 449, -9, -344, 22, 29],
  "SliceThickness": 2,
  "SliceTiming": [0, 0.785, 0.0975, 0.8825, 0.195, 0.98, 0.295, 1.0775, 0.3925, 1.175, 0.49, 1.275, 0.5875, 1.3725, 0.685, 0, 0.785, 0.0975, 0.8825, 0.195, 0.98, 0.295, 1.0775, 0.3925, 1.175, 0.49, 1.275, 0.5875, 1.3725, 0.685, 0, 0.785, 0.0975, 0.8825, 0.195, 0.98, 0.295, 1.0775, 0.3925, 1.175, 0.49, 1.275, 0.5875, 1.3725, 0.685, 0, 0.785, 0.0975, 0.8825, 0.195, 0.98, 0.295, 1.0775, 0.3925, 1.175, 0.49, 1.275, 0.5875, 1.3725, 0.685],
  "SoftwareVersions": "syngo MR E11",
  "SpacingBetweenSlices": 2,
  "StationName": "MRC35049",
  "TaskName": "mario",
  "TotalReadoutTime": 0.0576811,
  "TxRefAmp": 267.999,
  "WipMemBlock": "cf9c2c43-0960-4b8a-8de9-54a8aadff945||Sequence: R017 ve11c/master r/75a17815+; Jun 28 2022 16:32:11 by eja",
  "dcmmeta_affine": [
    [-1.9992314577102661, 0.05095505714416504, -0.021840473636984825, 102.01563262939453],
    [0.05542157217860222, 1.8564432859420776, -0.741988480091095, -70.67186737060547],
    [-0.0013687663013115525, 0.7423086166381836, 1.8571418523788452, -62.57225036621094],
    [0.0, 0.0, 0.0, 1.0]
],
  "dcmmeta_reorient_transform": [
    [0.0, -1.0, 0.0, 103.0],
    [1.0, 0.0, 0.0, 0.0],
    [0.0, 0.0, 1.0, 0.0],
    [0.0, 0.0, 0.0, 1.0]
],
  "dcmmeta_shape": [104, 104, 60, 497],
  "dcmmeta_slice_dim": 2,
  "dcmmeta_version": 0.6,
  "global": {
    "const": {
      "AcquisitionMatrix": [104, 0, 0, 104],
      "AngioFlag": "N",
      "BitsAllocated": 16,
      "BitsStored": 16,
      "BodyPartExamined": "BRAIN",
      "Columns": 832,
      "EchoNumbers": 1,
      "EchoTime": 37.0,
      "EchoTrainLength": 104,
      "FlipAngle": 52.0,
      "HighBit": 15,
      "ImageOrientationPatient": [0.99961574813782, -0.0277107866102, -0.000684383157, 0.02547752920002, 0.92822161760626, -0.3711543130752],
      "ImagePositionPatient": [-853.53190683873, -776.11367372696, 284.58410877222],
      "ImageType": [
        "ORIGINAL",
        "PRIMARY",
        "M",
        "MB",
        "ND",
        "MOSAIC"
],
      "ImagedNucleus": "1H",
      "ImagingFrequency": 123.258759,
      "InPlanePhaseEncodingDirection": "COL",
      "MRAcquisitionType": "2D",
      "MagneticFieldStrength": 3.0,
      "Manufacturer": "SIEMENS",
      "ManufacturerModelName": "Prisma_fit",
      "Modality": "MR",
      "NumberOfAverages": 1.0,
      "NumberOfPhaseEncodingSteps": 104,
      "PercentPhaseFieldOfView": 100.0,
      "PercentSampling": 100.0,
      "PerformedProcedureStepStartTime": "172302.154000",
      "PhotometricInterpretation": "MONOCHROME2",
      "PixelBandwidth": 2290.0,
      "PixelRepresentation": 0,
      "PixelSpacing": [2.0, 2.0],
      "ProtocolName": "func_task-mario_run-03",
      "RepetitionTime": 1490.0,
      "Rows": 832,
      "SAR": 0.0607204220721,
      "SamplesPerPixel": 1,
      "ScanOptions": "FS",
      "ScanningSequence": "EP",
      "SequenceName": "epfid2d1_104",
      "SequenceVariant": [
        "SK",
        "SS"
],
      "SeriesDescription": "func_task-mario_run-03",
      "SeriesNumber": 16,
      "SeriesTime": "175818.216000",
      "SliceLocation": -32.997952928116,
      "SliceThickness": 2.0,
      "SmallestImagePixelValue": 0,
      "SoftwareVersions": "syngo MR E11",
      "SpacingBetweenSlices": 1.9999999677671,
      "SpecificCharacterSet": "ISO_IR 100",
      "StudyID": "1",
      "StudyTime": "172302.086000",
      "TransmitCoilName": "Body",
      "VariableFlipAngleFlag": "N",
      "WindowCenterWidthExplanation": "Algo1",
      "dBdt": 0.0},
    "slices": {}
  },
  "time": {
    "samples": {
      "AcquisitionNumber": [1, 2, 3, 4, 5, 6, 7, 8, 9, 10, 11, 12, 13, 14, 15, 16, 17, 18, 19, 20, 21, 22, 23, 24, 25, 26, 27, 28, 29, 30, 31, 32, 33, 34, 35, 36, 37, 38, 39, 40, 41, 42, 43, 44, 45, 46, 47, 48, 49, 50, 51, 52, 53, 54, 55, 56, 57, 58, 59, 60, 61, 62, 63, 64, 65, 66, 67, 68, 69, 70, 71, 72, 73, 74, 75, 76, 77, 78, 79, 80, 81, 82, 83, 84, 85, 86, 87, 88, 89, 90, 91, 92, 93, 94, 95, 96, 97, 98, 99, 100, 101, 102, 103, 104, 105, 106, 107, 108, 109, 110, 111, 112, 113, 114, 115, 116, 117, 118, 119, 120, 121, 122, 123, 124, 125, 126, 127, 128, 129, 130, 131, 132, 133, 134, 135, 136, 137, 138, 139, 140, 141, 142, 143, 144, 145, 146, 147, 148, 149, 150, 151, 152, 153, 154, 155, 156, 157, 158, 159, 160, 161, 162, 163, 164, 165, 166, 167, 168, 169, 170, 171, 172, 173, 174, 175, 176, 177, 178, 179, 180, 181, 182, 183, 184, 185, 186, 187, 188, 189, 190, 191, 192, 193, 194, 195, 196, 197, 198, 199, 200, 201, 202, 203, 204, 205, 206, 207, 208, 209, 210, 211, 212, 213, 214, 215, 216, 217, 218, 219, 220, 221, 222, 223, 224, 225, 226, 227, 228, 229, 230, 231, 232, 233, 234, 235, 236, 237, 238, 239, 240, 241, 242, 243, 244, 245, 246, 247, 248, 249, 250, 251, 252, 253, 254, 255, 256, 257, 258, 259, 260, 261, 262, 263, 264, 265, 266, 267, 268, 269, 270, 271, 272, 273, 274, 275, 276, 277, 278, 279, 280, 281, 282, 283, 284, 285, 286, 287, 288, 289, 290, 291, 292, 293, 294, 295, 296, 297, 298, 299, 300, 301, 302, 303, 304, 305, 306, 307, 308, 309, 310, 311, 312, 313, 314, 315, 316, 317, 318, 319, 320, 321, 322, 323, 324, 325, 326, 327, 328, 329, 330, 331, 332, 333, 334, 335, 336, 337, 338, 339, 340, 341, 342, 343, 344, 345, 346, 347, 348, 349, 350, 351, 352, 353, 354, 355, 356, 357, 358, 359, 360, 361, 362, 363, 364, 365, 366, 367, 368, 369, 370, 371, 372, 373, 374, 375, 376, 377, 378, 379, 380, 381, 382, 383, 384, 385, 386, 387, 388, 389, 390, 391, 392, 393, 394, 395, 396, 397, 398, 399, 400, 401, 402, 403, 404, 405, 406, 407, 408, 409, 410, 411, 412, 413, 414, 415, 416, 417, 418, 419, 420, 421, 422, 423, 424, 425, 426, 427, 428, 429, 430, 431, 432, 433, 434, 435, 436, 437, 438, 439, 440, 441, 442, 443, 444, 445, 446, 447, 448, 449, 450, 451, 452, 453, 454, 455, 456, 457, 458, 459, 460, 461, 462, 463, 464, 465, 466, 467, 468, 469, 470, 471, 472, 473, 474, 475, 476, 477, 478, 479, 480, 481, 482, 483, 484, 485, 486, 487, 488, 489, 490, 491, 492, 493, 494, 495, 496, 497],
      "AcquisitionTime": ["175700.952500", "175702.442500", "175703.932500", "175705.422500", "175706.912500", "175708.402500", "175709.892500", "175711.382500", "175712.872500", "175714.362500", "175715.852500", "175717.342500", "175718.832500", "175720.322500", "175721.812500", "175723.302500", "175724.792500", "175726.282500", "175727.772500", "175729.262500", "175730.752500", "175732.242500", "175733.732500", "175735.222500", "175736.712500", "175738.202500", "175739.692500", "175741.182500", "175742.672500", "175744.162500", "175745.652500", "175747.142500", "175748.632500", "175750.122500", "175751.612500", "175753.102500", "175754.592500", "175756.082500", "175757.572500", "175759.062500", "175800.552500", "175802.042500", "175803.532500", "175805.022500", "175806.512500", "175808.002500", "175809.492500", "175810.982500", "175812.472500", "175813.962500", "175815.452500", "175816.942500", "175818.432500", "175819.922500", "175821.412500", "175822.902500", "175824.392500", "175825.882500", "175827.372500", "175828.862500", "175830.352500", "175831.842500", "175833.332500", "175834.822500", "175836.312500", "175837.802500", "175839.292500", "175840.782500", "175842.272500", "175843.762500", "175845.252500", "175846.742500", "175848.232500", "175849.722500", "175851.212500", "175852.702500", "175854.192500", "175855.682500", "175857.172500", "175858.662500", "175900.152500", "175901.642500", "175903.132500", "175904.622500", "175906.112500", "175907.602500", "175909.092500", "175910.582500", "175912.072500", "175913.562500", "175915.052500", "175916.542500", "175918.032500", "175919.522500", "175921.012500", "175922.502500", "175923.992500", "175925.482500", "175926.972500", "175928.462500", "175929.952500", "175931.442500", "175932.932500", "175934.422500", "175935.912500", "175937.402500", "175938.892500", "175940.382500", "175941.872500", "175943.362500", "175944.852500", "175946.342500", "175947.832500", "175949.322500", "175950.812500", "175952.302500", "175953.792500", "175955.282500", "175956.772500", "175958.262500", "175959.752500", "180001.242500", "180002.732500", "180004.222500", "180005.712500", "180007.202500", "180008.692500", "180010.182500", "180011.672500", "180013.162500", "180014.652500", "180016.142500", "180017.632500", "180019.122500", "180020.612500", "180022.102500", "180023.592500", "180025.082500", "180026.572500", "180028.062500", "180029.552500", "180031.042500", "180032.532500", "180034.022500", "180035.512500", "180037.002500", "180038.492500", "180039.982500", "180041.472500", "180042.962500", "180044.452500", "180045.942500", "180047.432500", "180048.922500", "180050.412500", "180051.902500", "180053.392500", "180054.882500", "180056.372500", "180057.862500", "180059.352500", "180100.842500", "180102.332500", "180103.822500", "180105.312500", "180106.802500", "180108.292500", "180109.782500", "180111.272500", "180112.762500", "180114.252500", "180115.742500", "180117.232500", "180118.722500", "180120.212500", "180121.702500", "180123.192500", "180124.682500", "180126.172500", "180127.662500", "180129.152500", "180130.642500", "180132.132500", "180133.622500", "180135.112500", "180136.602500", "180138.092500", "180139.582500", "180141.072500", "180142.562500", "180144.052500", "180145.542500", "180147.032500", "180148.522500", "180150.012500", "180151.502500", "180152.992500", "180154.482500", "180155.972500", "180157.462500", "180158.952500", "180200.442500", "180201.932500", "180203.422500", "180204.912500", "180206.402500", "180207.892500", "180209.382500", "180210.872500", "180212.362500", "180213.852500", "180215.342500", "180216.832500", "180218.322500", "180219.812500", "180221.302500", "180222.792500", "180224.282500", "180225.772500", "180227.262500", "180228.752500", "180230.242500", "180231.732500", "180233.222500", "180234.712500", "180236.202500", "180237.692500", "180239.182500", "180240.672500", "180242.162500", "180243.652500", "180245.142500", "180246.632500", "180248.122500", "180249.612500", "180251.102500", "180252.592500", "180254.082500", "180255.572500", "180257.062500", "180258.552500", "180300.042500", "180301.532500", "180303.022500", "180304.512500", "180306.002500", "180307.492500", "180308.982500", "180310.472500", "180311.962500", "180313.452500", "180314.942500", "180316.432500", "180317.922500", "180319.412500", "180320.902500", "180322.392500", "180323.882500", "180325.372500", "180326.862500", "180328.352500", "180329.842500", "180331.332500", "180332.822500", "180334.312500", "180335.802500", "180337.292500", "180338.782500", "180340.272500", "180341.762500", "180343.252500", "180344.742500", "180346.232500", "180347.722500", "180349.212500", "180350.702500", "180352.192500", "180353.682500", "180355.172500", "180356.662500", "180358.152500", "180359.642500", "180401.132500", "180402.622500", "180404.112500", "180405.602500", "180407.092500", "180408.582500", "180410.072500", "180411.562500", "180413.052500", "180414.542500", "180416.032500", "180417.522500", "180419.012500", "180420.502500", "180421.992500", "180423.482500", "180424.972500", "180426.462500", "180427.952500", "180429.442500", "180430.932500", "180432.422500", "180433.912500", "180435.402500", "180436.892500", "180438.382500", "180439.872500", "180441.362500", "180442.852500", "180444.342500", "180445.832500", "180447.322500", "180448.812500", "180450.302500", "180451.792500", "180453.282500", "180454.772500", "180456.262500", "180457.752500", "180459.242500", "180500.732500", "180502.222500", "180503.712500", "180505.202500", "180506.692500", "180508.182500", "180509.672500", "180511.162500", "180512.652500", "180514.142500", "180515.632500", "180517.122500", "180518.612500", "180520.102500", "180521.592500", "180523.082500", "180524.572500", "180526.062500", "180527.552500", "180529.042500", "180530.532500", "180532.022500", "180533.512500", "180535.002500", "180536.492500", "180537.982500", "180539.472500", "180540.962500", "180542.452500", "180543.942500", "180545.432500", "180546.922500", "180548.412500", "180549.902500", "180551.392500", "180552.882500", "180554.372500", "180555.862500", "180557.352500", "180558.842500", "180600.332500", "180601.822500", "180603.312500", "180604.802500", "180606.292500", "180607.782500", "180609.272500", "180610.762500", "180612.252500", "180613.742500", "180615.232500", "180616.722500", "180618.212500", "180619.702500", "180621.192500", "180622.682500", "180624.172500", "180625.662500", "180627.152500", "180628.642500", "180630.132500", "180631.622500", "180633.112500", "180634.602500", "180636.092500", "180637.582500", "180639.072500", "180640.562500", "180642.052500", "180643.542500", "180645.032500", "180646.522500", "180648.012500", "180649.502500", "180650.992500", "180652.482500", "180653.972500", "180655.462500", "180656.952500", "180658.442500", "180659.932500", "180701.422500", "180702.912500", "180704.402500", "180705.892500", "180707.382500", "180708.872500", "180710.362500", "180711.852500", "180713.342500", "180714.832500", "180716.322500", "180717.812500", "180719.302500", "180720.792500", "180722.282500", "180723.772500", "180725.262500", "180726.752500", "180728.242500", "180729.732500", "180731.222500", "180732.712500", "180734.202500", "180735.692500", "180737.182500", "180738.672500", "180740.162500", "180741.652500", "180743.142500", "180744.632500", "180746.122500", "180747.612500", "180749.102500", "180750.592500", "180752.082500", "180753.572500", "180755.062500", "180756.552500", "180758.042500", "180759.532500", "180801.022500", "180802.512500", "180804.002500", "180805.492500", "180806.982500", "180808.472500", "180809.962500", "180811.452500", "180812.942500", "180814.432500", "180815.922500", "180817.412500", "180818.902500", "180820.392500", "180821.882500", "180823.372500", "180824.862500", "180826.352500", "180827.842500", "180829.332500", "180830.822500", "180832.312500", "180833.802500", "180835.292500", "180836.782500", "180838.272500", "180839.762500", "180841.252500", "180842.742500", "180844.232500", "180845.722500", "180847.212500", "180848.702500", "180850.192500", "180851.682500", "180853.172500", "180854.662500", "180856.152500", "180857.642500", "180859.132500", "180900.622500", "180902.112500", "180903.602500", "180905.092500", "180906.582500", "180908.072500", "180909.562500", "180911.052500", "180912.542500", "180914.032500", "180915.522500", "180917.012500", "180918.502500", "180919.992500"],
      "ContentTime": ["175818.219000", "175818.223000", "175818.227000", "175818.230000", "175818.233000", "175818.237000", "175818.240000", "175818.243000", "175818.247000", "175818.250000", "175818.253000", "175818.257000", "175818.260000", "175818.263000", "175818.267000", "175818.270000", "175818.273000", "175818.277000", "175818.288000", "175818.291000", "175818.294000", "175818.298000", "175818.301000", "175818.304000", "175818.308000", "175818.311000", "175838.184000", "175838.198000", "175838.201000", "175838.204000", "175838.208000", "175838.211000", "175838.215000", "175838.218000", "175838.222000", "175838.225000", "175838.228000", "175838.232000", "175838.235000", "175838.239000", "175838.242000", "175838.245000", "175838.253000", "175838.256000", "175838.259000", "175838.263000", "175858.184000", "175858.188000", "175858.191000", "175858.195000", "175858.198000", "175858.202000", "175858.205000", "175858.208000", "175858.212000", "175858.215000", "175858.218000", "175858.222000", "175858.225000", "175858.228000", "175858.232000", "175858.235000", "175858.238000", "175858.242000", "175858.257000", "175858.260000", "175918.184000", "175918.188000", "175918.191000", "175918.195000", "175918.198000", "175918.201000", "175918.205000", "175918.208000", "175918.211000", "175918.215000", "175918.218000", "175918.221000", "175918.225000", "175918.228000", "175918.231000", "175918.235000", "175918.238000", "175918.245000", "175918.248000", "175918.252000", "175958.184000", "175958.188000", "175958.191000", "175958.195000", "175958.198000", "175958.201000", "175958.205000", "175958.208000", "175958.212000", "175958.215000", "175958.218000", "175958.222000", "175958.225000", "175958.228000", "175958.232000", "175958.235000", "175958.239000", "175958.242000", "175958.245000", "175958.255000", "175958.259000", "175958.262000", "175958.265000", "175958.269000", "175958.272000", "175958.275000", "175958.279000", "175958.282000", "175958.286000", "175958.289000", "175958.292000", "175958.296000", "180038.183000", "180038.187000", "180038.262000", "180038.265000", "180038.269000", "180038.272000", "180038.276000", "180038.279000", "180038.282000", "180038.286000", "180038.289000", "180038.292000", "180038.296000", "180038.299000", "180038.302000", "180038.306000", "180038.309000", "180038.312000", "180038.316000", "180038.319000", "180038.323000", "180038.326000", "180038.329000", "180038.333000", "180038.336000", "180038.339000", "180038.343000", "180118.184000", "180118.188000", "180118.192000", "180118.195000", "180118.198000", "180118.203000", "180118.206000", "180118.210000", "180118.213000", "180118.217000", "180118.220000", "180118.223000", "180118.227000", "180118.230000", "180118.234000", "180118.237000", "180118.241000", "180118.244000", "180118.247000", "180118.265000", "180118.268000", "180118.272000", "180118.275000", "180118.278000", "180118.282000", "180118.285000", "180158.184000", "180158.188000", "180158.191000", "180158.195000", "180158.198000", "180158.201000", "180158.205000", "180158.208000", "180158.211000", "180158.215000", "180158.218000", "180158.222000", "180158.225000", "180158.228000", "180158.232000", "180158.235000", "180158.238000", "180158.242000", "180158.245000", "180158.248000", "180158.257000", "180158.260000", "180158.264000", "180158.267000", "180158.270000", "180158.274000", "180158.277000", "180238.184000", "180238.188000", "180238.191000", "180238.195000", "180238.198000", "180238.202000", "180238.205000", "180238.208000", "180238.212000", "180238.215000", "180238.219000", "180238.222000", "180238.225000", "180238.229000", "180238.232000", "180238.235000", "180238.239000", "180238.242000", "180238.246000", "180238.249000", "180238.252000", "180238.256000", "180238.259000", "180238.262000", "180238.266000", "180238.269000", "180238.273000", "180318.184000", "180318.188000", "180318.192000", "180318.195000", "180318.198000", "180318.202000", "180318.205000", "180318.208000", "180318.212000", "180318.215000", "180318.218000", "180318.222000", "180318.225000", "180318.228000", "180318.232000", "180318.241000", "180318.245000", "180318.248000", "180318.252000", "180318.255000", "180318.258000", "180318.262000", "180318.265000", "180318.268000", "180318.272000", "180318.275000", "180318.278000", "180358.184000", "180358.188000", "180358.191000", "180358.195000", "180358.198000", "180358.202000", "180358.205000", "180358.208000", "180358.221000", "180358.224000", "180358.228000", "180358.231000", "180358.234000", "180358.238000", "180358.241000", "180358.245000", "180358.248000", "180358.251000", "180358.259000", "180358.263000", "180358.266000", "180358.269000", "180358.273000", "180358.276000", "180358.279000", "180358.283000", "180358.286000", "180438.184000", "180438.188000", "180438.191000", "180438.195000", "180438.198000", "180438.202000", "180438.205000", "180438.208000", "180438.212000", "180438.215000", "180438.218000", "180438.222000", "180438.225000", "180438.229000", "180438.232000", "180438.235000", "180438.239000", "180438.242000", "180438.246000", "180438.249000", "180438.253000", "180438.256000", "180438.259000", "180438.263000", "180438.266000", "180438.269000", "180438.273000", "180518.183000", "180518.187000", "180518.190000", "180518.194000", "180518.197000", "180518.200000", "180518.204000", "180518.207000", "180518.211000", "180518.214000", "180518.217000", "180518.221000", "180518.224000", "180518.228000", "180518.231000", "180518.234000", "180518.238000", "180518.241000", "180518.244000", "180518.248000", "180518.251000", "180518.255000", "180518.258000", "180518.261000", "180518.265000", "180518.268000", "180518.271000", "180558.184000", "180558.188000", "180558.191000", "180558.196000", "180558.199000", "180558.203000", "180558.206000", "180558.210000", "180558.213000", "180558.216000", "180558.220000", "180558.223000", "180558.226000", "180558.230000", "180558.233000", "180558.236000", "180558.240000", "180558.243000", "180558.246000", "180558.250000", "180558.265000", "180558.268000", "180558.272000", "180558.275000", "180558.278000", "180558.282000", "180638.184000", "180638.188000", "180638.191000", "180638.196000", "180638.200000", "180638.203000", "180638.207000", "180638.210000", "180638.214000", "180638.217000", "180638.220000", "180638.224000", "180638.227000", "180638.230000", "180638.234000", "180638.237000", "180638.241000", "180638.244000", "180638.247000", "180638.251000", "180638.254000", "180638.257000", "180638.261000", "180638.264000", "180638.267000", "180638.276000", "180638.280000", "180718.184000", "180718.188000", "180718.192000", "180718.195000", "180718.198000", "180718.202000", "180718.205000", "180718.208000", "180718.212000", "180718.215000", "180718.218000", "180718.222000", "180718.226000", "180718.229000", "180718.232000", "180718.236000", "180718.239000", "180718.242000", "180718.246000", "180718.249000", "180718.253000", "180718.256000", "180718.259000", "180718.263000", "180718.266000", "180718.269000", "180718.273000", "180758.184000", "180758.188000", "180758.191000", "180758.195000", "180758.198000", "180758.202000", "180758.205000", "180758.208000", "180758.212000", "180758.215000", "180758.218000", "180758.222000", "180758.225000", "180758.228000", "180758.232000", "180758.235000", "180758.239000", "180758.242000", "180758.245000", "180758.249000", "180758.252000", "180758.255000", "180758.259000", "180758.267000", "180758.270000", "180758.273000", "180758.277000", "180838.184000", "180838.188000", "180838.191000", "180838.195000", "180838.198000", "180838.201000", "180838.205000", "180838.208000", "180838.211000", "180838.215000", "180838.227000", "180838.230000", "180838.234000", "180838.237000", "180838.240000", "180838.244000", "180838.247000", "180838.251000", "180838.254000", "180838.257000", "180838.261000", "180838.264000", "180838.267000", "180838.271000", "180838.274000", "180838.277000", "180838.281000", "180858.185000", "180858.188000", "180858.192000", "180858.195000", "180858.198000", "180858.202000", "180858.205000", "180858.208000", "180858.212000", "180858.215000", "180858.219000", "180858.222000", "180858.225000", "180922.796000", "180922.800000", "180922.803000", "180922.807000", "180922.810000", "180922.814000", "180922.817000", "180922.821000", "180922.824000", "180922.827000", "180922.831000", "180922.834000", "180922.838000", "180922.841000", "180922.844000", "180922.848000", "180922.851000"],
