{
  "AcquisitionMatrixPE": 104,
  "AcquisitionNumber": 1,
  "AcquisitionTime": "18:11:42.357500",
  "BandwidthPerPixelPhaseEncode": 17.17,
  "BaseResolution": 104,
  "BodyPartExamined": "BRAIN",
  "CoilCombinationMethod": "Sum of Squares",
  "ConsistencyInfo": "N4_VE11C_LATEST_20160120",
  "ConversionSoftware": "dcm2niix",
  "ConversionSoftwareVersion": "v1.0.20211006",
  "DerivedVendorReportedEchoSpacing": 0.000560011,
  "DeviceSerialNumber": "167006",
  "DwellTime": 2.1e-06,
  "EchoTime": 0.037,
  "EchoTime1": 0.037,
  "EchoTime2": 0.001,
  "EchoTrainLength": 104,
  "EffectiveEchoSpacing": 0.000560011,
  "FlipAngle": 52,
  "HeudiconvVersion": "0.11.3.post9+gc939bf8",
  "ImageComments": "Unaliased MB4/PE3/LB",
  "ImageOrientationPatientDICOM": [0.999616, -0.0277108, -0.000684383, 0.0254775, 0.928222, -0.371154],
  "ImageOrientationText": "Tra>Cor(-21.8)>Sag(-0.6)",
  "ImageType": [
    "ORIGINAL",
    "PRIMARY",
    "P",
    "MB",
    "ND",
    "MOSAIC",
    "PHASE"
],
  "ImagingFrequency": 123.259,
  "InPlanePhaseEncodingDirectionDICOM": "COL",
  "InstitutionAddress": "Chemin Queen-Mary 4565,Montreal,District,CA,H3W 1W5",
  "InstitutionName": "IUGM",
  "InstitutionalDepartmentName": "Department",
  "MRAcquisitionType": "2D",
  "MagneticFieldStrength": 3,
  "Manufacturer": "Siemens",
  "ManufacturersModelName": "Prisma_fit",
  "MatrixCoilMode": "SENSE",
  "Modality": "MR",
  "MultibandAccelerationFactor": 4,
  "PartialFourier": 1,
  "PatientPosition": "HFS",
  "PercentPhaseFOV": 100,
  "PercentSampling": 100,
  "PhaseEncodingDirection": "j",
  "PhaseEncodingSteps": 104,
  "PhaseResolution": 1,
  "PixelBandwidth": 2290,
  "ProcedureStepDescription": "games^mario",
  "ProtocolName": "func_task-mario_run-04",
  "PulseSequenceDetails": "%CustomerSeq%\\cmrr_mbep2d_bold",
  "ReceiveCoilActiveElements": "HC1-7;NC1,2",
  "ReceiveCoilName": "HeadNeck_64",
  "ReconMatrixPE": 104,
  "RepetitionTime": 1.49,
  "SAR": 0.0607204,
  "ScanOptions": "FS",
  "ScanningSequence": "EP",
  "SequenceName": "epfid2d1_104",
  "SequenceVariant": "SK\\SS",
  "SeriesDescription": "func_task-mario_run-04",
  "SeriesNumber": 20,
  "ShimSetting": [605, -7255, -8817, 449, -9, -344, 22, 29],
  "SliceThickness": 2,
  "SliceTiming": [0, 0.785, 0.1, 0.8825, 0.1975, 0.98, 0.295, 1.08, 0.3925, 1.1775, 0.49, 1.275, 0.59, 1.3725, 0.6875, 0, 0.785, 0.1, 0.8825, 0.1975, 0.98, 0.295, 1.08, 0.3925, 1.1775, 0.49, 1.275, 0.59, 1.3725, 0.6875, 0, 0.785, 0.1, 0.8825, 0.1975, 0.98, 0.295, 1.08, 0.3925, 1.1775, 0.49, 1.275, 0.59, 1.3725, 0.6875, 0, 0.785, 0.1, 0.8825, 0.1975, 0.98, 0.295, 1.08, 0.3925, 1.1775, 0.49, 1.275, 0.59, 1.3725, 0.6875],
  "SoftwareVersions": "syngo MR E11",
  "SpacingBetweenSlices": 2,
  "StationName": "MRC35049",
  "TaskName": "mario",
  "TotalReadoutTime": 0.0576811,
  "TxRefAmp": 267.999,
  "WipMemBlock": "09753a34-6b72-40d1-8795-825889b5d4ce||Sequence: R017 ve11c/master r/75a17815+; Jun 28 2022 16:32:11 by eja",
  "dcmmeta_affine": [
    [-1.9992314577102661, 0.05095505714416504, -0.021840473636984825, 102.01563262939453],
    [0.05542157217860222, 1.8564432859420776, -0.741988480091095, -70.67186737060547],
    [-0.0013687663013115525, 0.7423086166381836, 1.8571418523788452, -62.57225036621094],
    [0.0, 0.0, 0.0, 1.0]
],
  "dcmmeta_reorient_transform": [
    [0.0, -1.0, 0.0, 103.0],
    [1.0, 0.0, 0.0, 0.0],
    [0.0, 0.0, 1.0, 0.0],
    [0.0, 0.0, 0.0, 1.0]
],
  "dcmmeta_shape": [104, 104, 60, 423],
  "dcmmeta_slice_dim": 2,
  "dcmmeta_version": 0.6,
  "global": {
    "const": {
      "AcquisitionMatrix": [104, 0, 0, 104],
      "AngioFlag": "N",
      "BitsAllocated": 16,
      "BitsStored": 16,
      "BodyPartExamined": "BRAIN",
      "Columns": 832,
      "EchoNumbers": 1,
      "EchoTime": 37.0,
      "EchoTrainLength": 104,
      "FlipAngle": 52.0,
      "HighBit": 15,
      "ImageOrientationPatient": [0.99961574813782, -0.0277107866102, -0.000684383157, 0.02547752920002, 0.92822161760626, -0.3711543130752],
      "ImagePositionPatient": [-853.53190683873, -776.11367372696, 284.58410877222],
      "ImageType": [
        "ORIGINAL",
        "PRIMARY",
        "P",
        "MB",
        "ND",
        "MOSAIC"
],
      "ImagedNucleus": "1H",
      "ImagingFrequency": 123.258768,
      "InPlanePhaseEncodingDirection": "COL",
      "LargestImagePixelValue": 4095,
      "MRAcquisitionType": "2D",
      "MagneticFieldStrength": 3.0,
      "Manufacturer": "SIEMENS",
      "ManufacturerModelName": "Prisma_fit",
      "Modality": "MR",
      "NumberOfAverages": 1.0,
      "NumberOfPhaseEncodingSteps": 104,
      "PercentPhaseFieldOfView": 100.0,
      "PercentSampling": 100.0,
      "PerformedProcedureStepStartTime": "172302.154000",
      "PhotometricInterpretation": "MONOCHROME2",
      "PixelBandwidth": 2290.0,
      "PixelRepresentation": 0,
      "PixelSpacing": [2.0, 2.0],
      "ProtocolName": "func_task-mario_run-04",
      "RepetitionTime": 1490.0,
      "RescaleIntercept": -4096.0,
      "RescaleSlope": 2.0,
      "RescaleType": "US",
      "Rows": 832,
      "SAR": 0.0607204220721,
      "SamplesPerPixel": 1,
      "ScanOptions": "FS",
      "ScanningSequence": "EP",
      "SequenceName": "epfid2d1_104",
      "SequenceVariant": [
        "SK",
        "SS"
],
      "SeriesDescription": "func_task-mario_run-04",
      "SeriesNumber": 20,
      "SeriesTime": "181305.644000",
      "SliceLocation": -32.997952928116,
      "SliceThickness": 2.0,
      "SmallestImagePixelValue": 0,
      "SoftwareVersions": "syngo MR E11",
      "SpacingBetweenSlices": 1.9999999677671,
      "SpecificCharacterSet": "ISO_IR 100",
      "StudyID": "1",
      "StudyTime": "172302.086000",
      "TransmitCoilName": "Body",
      "VariableFlipAngleFlag": "N",
      "WindowCenterWidthExplanation": "Algo1",
      "dBdt": 0.0},
    "slices": {}
  },
  "time": {
    "samples": {
      "AcquisitionNumber": [1, 2, 3, 4, 5, 6, 7, 8, 9, 10, 11, 12, 13, 14, 15, 16, 17, 18, 19, 20, 21, 22, 23, 24, 25, 26, 27, 28, 29, 30, 31, 32, 33, 34, 35, 36, 37, 38, 39, 40, 41, 42, 43, 44, 45, 46, 47, 48, 49, 50, 51, 52, 53, 54, 55, 56, 57, 58, 59, 60, 61, 62, 63, 64, 65, 66, 67, 68, 69, 70, 71, 72, 73, 74, 75, 76, 77, 78, 79, 80, 81, 82, 83, 84, 85, 86, 87, 88, 89, 90, 91, 92, 93, 94, 95, 96, 97, 98, 99, 100, 101, 102, 103, 104, 105, 106, 107, 108, 109, 110, 111, 112, 113, 114, 115, 116, 117, 118, 119, 120, 121, 122, 123, 124, 125, 126, 127, 128, 129, 130, 131, 132, 133, 134, 135, 136, 137, 138, 139, 140, 141, 142, 143, 144, 145, 146, 147, 148, 149, 150, 151, 152, 153, 154, 155, 156, 157, 158, 159, 160, 161, 162, 163, 164, 165, 166, 167, 168, 169, 170, 171, 172, 173, 174, 175, 176, 177, 178, 179, 180, 181, 182, 183, 184, 185, 186, 187, 188, 189, 190, 191, 192, 193, 194, 195, 196, 197, 198, 199, 200, 201, 202, 203, 204, 205, 206, 207, 208, 209, 210, 211, 212, 213, 214, 215, 216, 217, 218, 219, 220, 221, 222, 223, 224, 225, 226, 227, 228, 229, 230, 231, 232, 233, 234, 235, 236, 237, 238, 239, 240, 241, 242, 243, 244, 245, 246, 247, 248, 249, 250, 251, 252, 253, 254, 255, 256, 257, 258, 259, 260, 261, 262, 263, 264, 265, 266, 267, 268, 269, 270, 271, 272, 273, 274, 275, 276, 277, 278, 279, 280, 281, 282, 283, 284, 285, 286, 287, 288, 289, 290, 291, 292, 293, 294, 295, 296, 297, 298, 299, 300, 301, 302, 303, 304, 305, 306, 307, 308, 309, 310, 311, 312, 313, 314, 315, 316, 317, 318, 319, 320, 321, 322, 323, 324, 325, 326, 327, 328, 329, 330, 331, 332, 333, 334, 335, 336, 337, 338, 339, 340, 341, 342, 343, 344, 345, 346, 347, 348, 349, 350, 351, 352, 353, 354, 355, 356, 357, 358, 359, 360, 361, 362, 363, 364, 365, 366, 367, 368, 369, 370, 371, 372, 373, 374, 375, 376, 377, 378, 379, 380, 381, 382, 383, 384, 385, 386, 387, 388, 389, 390, 391, 392, 393, 394, 395, 396, 397, 398, 399, 400, 401, 402, 403, 404, 405, 406, 407, 408, 409, 410, 411, 412, 413, 414, 415, 416, 417, 418, 419, 420, 421, 422, 423],
      "AcquisitionTime": ["181142.357500", "181143.847500", "181145.337500", "181146.827500", "181148.317500", "181149.807500", "181151.297500", "181152.787500", "181154.277500", "181155.767500", "181157.257500", "181158.747500", "181200.237500", "181201.727500", "181203.217500", "181204.707500", "181206.197500", "181207.687500", "181209.177500", "181210.667500", "181212.157500", "181213.647500", "181215.137500", "181216.627500", "181218.117500", "181219.607500", "181221.097500", "181222.587500", "181224.077500", "181225.567500", "181227.057500", "181228.547500", "181230.037500", "181231.527500", "181233.017500", "181234.507500", "181235.997500", "181237.487500", "181238.977500", "181240.467500", "181241.957500", "181243.447500", "181244.937500", "181246.427500", "181247.917500", "181249.407500", "181250.897500", "181252.387500", "181253.877500", "181255.367500", "181256.857500", "181258.347500", "181259.837500", "181301.327500", "181302.817500", "181304.307500", "181305.797500", "181307.287500", "181308.777500", "181310.267500", "181311.757500", "181313.247500", "181314.737500", "181316.227500", "181317.717500", "181319.207500", "181320.697500", "181322.187500", "181323.677500", "181325.167500", "181326.657500", "181328.147500", "181329.637500", "181331.127500", "181332.617500", "181334.107500", "181335.597500", "181337.087500", "181338.577500", "181340.067500", "181341.557500", "181343.047500", "181344.537500", "181346.027500", "181347.517500", "181349.007500", "181350.497500", "181351.987500", "181353.477500", "181354.967500", "181356.457500", "181357.947500", "181359.437500", "181400.927500", "181402.417500", "181403.907500", "181405.397500", "181406.887500", "181408.377500", "181409.867500", "181411.357500", "181412.847500", "181414.337500", "181415.827500", "181417.317500", "181418.807500", "181420.297500", "181421.787500", "181423.277500", "181424.767500", "181426.257500", "181427.747500", "181429.237500", "181430.727500", "181432.217500", "181433.707500", "181435.197500", "181436.687500", "181438.177500", "181439.667500", "181441.157500", "181442.647500", "181444.137500", "181445.627500", "181447.117500", "181448.607500", "181450.097500", "181451.587500", "181453.077500", "181454.567500", "181456.057500", "181457.547500", "181459.037500", "181500.527500", "181502.017500", "181503.507500", "181504.997500", "181506.487500", "181507.977500", "181509.467500", "181510.957500", "181512.447500", "181513.937500", "181515.427500", "181516.917500", "181518.407500", "181519.897500", "181521.387500", "181522.877500", "181524.367500", "181525.857500", "181527.347500", "181528.837500", "181530.327500", "181531.817500", "181533.307500", "181534.797500", "181536.287500", "181537.777500", "181539.267500", "181540.757500", "181542.247500", "181543.737500", "181545.227500", "181546.717500", "181548.207500", "181549.697500", "181551.187500", "181552.677500", "181554.167500", "181555.657500", "181557.147500", "181558.637500", "181600.127500", "181601.617500", "181603.107500", "181604.597500", "181606.087500", "181607.577500", "181609.067500", "181610.557500", "181612.047500", "181613.537500", "181615.027500", "181616.517500", "181618.007500", "181619.497500", "181620.987500", "181622.477500", "181623.967500", "181625.457500", "181626.947500", "181628.437500", "181629.927500", "181631.417500", "181632.907500", "181634.397500", "181635.887500", "181637.377500", "181638.867500", "181640.357500", "181641.847500", "181643.337500", "181644.827500", "181646.317500", "181647.807500", "181649.297500", "181650.787500", "181652.277500", "181653.767500", "181655.257500", "181656.747500", "181658.237500", "181659.727500", "181701.217500", "181702.707500", "181704.197500", "181705.687500", "181707.177500", "181708.667500", "181710.157500", "181711.647500", "181713.137500", "181714.627500", "181716.117500", "181717.607500", "181719.097500", "181720.587500", "181722.077500", "181723.567500", "181725.057500", "181726.547500", "181728.037500", "181729.527500", "181731.017500", "181732.507500", "181733.997500", "181735.487500", "181736.977500", "181738.467500", "181739.957500", "181741.447500", "181742.937500", "181744.427500", "181745.917500", "181747.407500", "181748.897500", "181750.387500", "181751.877500", "181753.367500", "181754.857500", "181756.347500", "181757.837500", "181759.327500", "181800.817500", "181802.307500", "181803.797500", "181805.287500", "181806.777500", "181808.267500", "181809.757500", "181811.247500", "181812.737500", "181814.227500", "181815.717500", "181817.207500", "181818.697500", "181820.187500", "181821.677500", "181823.167500", "181824.657500", "181826.147500", "181827.637500", "181829.127500", "181830.617500", "181832.107500", "181833.597500", "181835.087500", "181836.577500", "181838.067500", "181839.557500", "181841.047500", "181842.537500", "181844.027500", "181845.517500", "181847.007500", "181848.497500", "181849.987500", "181851.477500", "181852.967500", "181854.457500", "181855.947500", "181857.437500", "181858.927500", "181900.417500", "181901.907500", "181903.397500", "181904.887500", "181906.377500", "181907.867500", "181909.357500", "181910.847500", "181912.337500", "181913.827500", "181915.317500", "181916.807500", "181918.297500", "181919.787500", "181921.277500", "181922.767500", "181924.257500", "181925.747500", "181927.237500", "181928.727500", "181930.217500", "181931.707500", "181933.197500", "181934.687500", "181936.177500", "181937.667500", "181939.157500", "181940.647500", "181942.137500", "181943.627500", "181945.117500", "181946.607500", "181948.097500", "181949.587500", "181951.077500", "181952.567500", "181954.057500", "181955.547500", "181957.037500", "181958.527500", "182000.017500", "182001.507500", "182002.997500", "182004.487500", "182005.977500", "182007.467500", "182008.957500", "182010.447500", "182011.937500", "182013.427500", "182014.917500", "182016.407500", "182017.897500", "182019.387500", "182020.877500", "182022.367500", "182023.857500", "182025.347500", "182026.837500", "182028.327500", "182029.817500", "182031.307500", "182032.797500", "182034.287500", "182035.777500", "182037.267500", "182038.757500", "182040.247500", "182041.737500", "182043.227500", "182044.717500", "182046.207500", "182047.697500", "182049.187500", "182050.677500", "182052.167500", "182053.657500", "182055.147500", "182056.637500", "182058.127500", "182059.617500", "182101.107500", "182102.597500", "182104.087500", "182105.577500", "182107.067500", "182108.557500", "182110.047500", "182111.537500", "182113.027500", "182114.517500", "182116.007500", "182117.497500", "182118.987500", "182120.477500", "182121.967500", "182123.457500", "182124.947500", "182126.437500", "182127.927500", "182129.417500", "182130.907500", "182132.397500", "182133.887500", "182135.377500", "182136.867500", "182138.357500", "182139.847500", "182141.337500", "182142.827500", "182144.317500", "182145.807500", "182147.297500", "182148.787500", "182150.277500", "182151.767500", "182153.257500", "182154.747500", "182156.237500", "182157.727500", "182159.217500", "182200.707500", "182202.197500", "182203.687500", "182205.177500", "182206.667500", "182208.157500", "182209.647500", "182211.137500"],
      "ContentTime": ["181305.646000", "181305.649000", "181305.652000", "181305.654000", "181305.657000", "181305.659000", "181305.662000", "181305.664000", "181305.667000", "181305.669000", "181305.672000", "181305.674000", "181305.677000", "181305.679000", "181305.682000", "181305.684000", "181305.687000", "181305.689000", "181305.692000", "181305.694000", "181305.697000", "181305.699000", "181305.702000", "181305.705000", "181305.707000", "181305.710000", "181305.712000", "181305.715000", "181305.717000", "181305.720000", "181305.722000", "181305.725000", "181305.727000", "181325.547000", "181325.550000", "181325.552000", "181325.555000", "181325.558000", "181325.560000", "181325.563000", "181325.566000", "181325.569000", "181325.581000", "181325.584000", "181325.587000", "181325.590000", "181325.593000", "181325.595000", "181325.598000", "181325.601000", "181325.604000", "181325.606000", "181325.609000", "181325.612000", "181345.545000", "181345.548000", "181345.551000", "181345.553000", "181345.556000", "181345.558000", "181345.561000", "181345.563000", "181345.566000", "181345.568000", "181345.571000", "181345.573000", "181345.576000", "181345.579000", "181345.581000", "181345.584000", "181345.586000", "181345.589000", "181345.591000", "181345.594000", "181405.534000", "181405.537000", "181405.539000", "181405.542000", "181405.544000", "181405.547000", "181405.550000", "181405.552000", "181405.555000", "181405.557000", "181405.560000", "181405.563000", "181405.565000", "181405.568000", "181405.570000", "181405.573000", "181405.575000", "181405.578000", "181405.581000", "181405.584000", "181445.587000", "181445.590000", "181445.593000", "181445.595000", "181445.598000", "181445.600000", "181445.603000", "181445.606000", "181445.608000", "181445.611000", "181445.613000", "181445.616000", "181445.618000", "181445.621000", "181445.623000", "181445.626000", "181445.628000", "181445.631000", "181445.633000", "181445.636000", "181445.638000", "181445.641000", "181445.643000", "181445.646000", "181445.649000", "181445.651000", "181445.654000", "181445.656000", "181525.983000", "181525.986000", "181525.988000", "181525.991000", "181525.993000", "181525.996000", "181525.998000", "181526.001000", "181526.003000", "181526.006000", "181526.009000", "181526.011000", "181526.014000", "181526.016000", "181526.019000", "181526.021000", "181526.024000", "181526.027000", "181526.029000", "181526.032000", "181526.035000", "181526.037000", "181526.040000", "181526.042000", "181526.045000", "181526.048000", "181526.050000", "181605.585000", "181605.588000", "181605.590000", "181605.593000", "181605.596000", "181605.598000", "181605.601000", "181605.603000", "181605.606000", "181605.608000", "181605.611000", "181605.613000", "181605.616000", "181605.619000", "181605.621000", "181605.624000", "181605.626000", "181605.629000", "181605.631000", "181605.634000", "181605.636000", "181605.639000", "181605.641000", "181605.644000", "181605.646000", "181605.649000", "181605.652000", "181645.589000", "181645.591000", "181645.594000", "181645.597000", "181645.599000", "181645.602000", "181645.604000", "181645.607000", "181645.609000", "181645.612000", "181645.614000", "181645.617000", "181645.619000", "181645.622000", "181645.624000", "181645.627000", "181645.630000", "181645.632000", "181645.635000", "181645.637000", "181645.640000", "181645.642000", "181645.645000", "181645.647000", "181645.650000", "181645.652000", "181725.590000", "181725.593000", "181725.596000", "181725.598000", "181725.601000", "181725.603000", "181725.606000", "181725.608000", "181725.611000", "181725.613000", "181725.616000", "181725.619000", "181725.621000", "181725.624000", "181725.626000", "181725.629000", "181725.632000", "181725.634000", "181725.637000", "181725.639000", "181725.642000", "181725.644000", "181725.647000", "181725.649000", "181725.652000", "181725.654000", "181725.657000", "181805.570000", "181805.572000", "181805.575000", "181805.578000", "181805.580000", "181805.583000", "181805.585000", "181805.588000", "181805.590000", "181805.593000", "181805.595000", "181805.598000", "181805.601000", "181805.603000", "181805.606000", "181805.608000", "181805.611000", "181805.613000", "181805.616000", "181805.618000", "181805.621000", "181805.623000", "181805.626000", "181805.628000", "181805.631000", "181805.634000", "181805.636000", "181845.589000", "181845.592000", "181845.595000", "181845.597000", "181845.600000", "181845.602000", "181845.605000", "181845.607000", "181845.610000", "181845.612000", "181845.615000", "181845.618000", "181845.620000", "181845.623000", "181845.625000", "181845.628000", "181845.630000", "181845.633000", "181845.635000", "181845.638000", "181845.640000", "181845.643000", "181845.646000", "181845.648000", "181845.651000", "181845.653000", "181845.656000", "181905.518000", "181905.521000", "181905.523000", "181905.526000", "181905.528000", "181905.531000", "181905.533000", "181905.536000", "181905.544000", "181905.547000", "181905.550000", "181905.552000", "181905.555000", "181945.589000", "181945.592000", "181945.595000", "181945.597000", "181945.600000", "181945.602000", "181945.605000", "181945.607000", "181945.610000", "181945.612000", "181945.615000", "181945.618000", "181945.620000", "181945.623000", "181945.625000", "181945.628000", "181945.630000", "181945.633000", "181945.635000", "181945.638000", "181945.640000", "181945.643000", "181945.645000", "181945.648000", "181945.650000", "181945.653000", "181945.655000", "182025.574000", "182025.577000", "182025.580000", "182025.582000", "182025.585000", "182025.587000", "182025.590000", "182025.593000", "182025.595000", "182025.598000", "182025.600000", "182025.603000", "182025.605000", "182025.608000", "182025.610000", "182025.613000", "182025.615000", "182025.618000", "182025.621000", "182025.623000", "182025.626000", "182025.628000", "182025.631000", "182025.633000", "182025.636000", "182025.638000", "182025.641000", "182105.572000", "182105.575000", "182105.577000", "182105.580000", "182105.583000", "182105.585000", "182105.588000", "182105.590000", "182105.593000", "182105.595000", "182105.598000", "182105.601000", "182105.603000", "182105.606000", "182105.608000", "182105.611000", "182105.613000", "182105.616000", "182105.618000", "182105.621000", "182105.623000", "182105.626000", "182105.629000", "182105.631000", "182105.634000", "182105.636000", "182105.639000", "182145.580000", "182145.583000", "182145.586000", "182145.588000", "182145.591000", "182145.593000", "182145.596000", "182145.598000", "182145.601000", "182145.604000", "182145.606000", "182145.609000", "182145.611000", "182145.614000", "182145.616000", "182145.619000", "182145.622000", "182145.624000", "182145.627000", "182145.629000", "182145.632000", "182145.634000", "182145.637000", "182145.639000", "182145.642000", "182145.644000", "182145.647000", "182214.130000", "182214.132000", "182214.135000", "182214.138000", "182214.140000", "182214.143000", "182214.145000", "182214.148000", "182214.150000", "182214.153000", "182214.155000", "182214.158000", "182214.161000", "182214.163000", "182214.166000", "182214.168000", "182214.171000", "182214.173000", "182214.176000"],
      "InstanceCreationTime": ["181305.646000", "181305.649000", "181305.652000", "181305.654000", "181305.657000", "181305.659000", "181305.662000", "181305.664000", "181305.667000", "181305.669000", "181305.672000", "181305.674000", "181305.677000", "181305.679000", "181305.682000", "181305.684000", "181305.687000", "181305.689000", "181305.692000", "181305.694000", "181305.697000", "181305.699000", "181305.702000", "181305.705000", "181305.707000", "181305.710000", "181305.712000", "181305.715000", "181305.717000", "181305.720000", "181305.722000", "181305.725000", "181305.727000", "181325.547000", "181325.550000", "181325.552000", "181325.555000", "181325.558000", "181325.560000", "181325.563000", "181325.566000", "181325.569000", "181325.581000", "181325.584000", "181325.587000", "181325.590000", "181325.593000", "181325.595000", "181325.598000", "181325.601000", "181325.604000", "181325.606000", "181325.609000", "181325.612000", "181345.545000", "181345.548000", "181345.551000", "181345.553000", "181345.556000", "181345.558000", "181345.561000", "181345.563000", "181345.566000", "181345.568000", "181345.571000", "181345.573000", "181345.576000", "181345.579000", "181345.581000", "181345.584000", "181345.586000", "181345.589000", "181345.591000", "181345.594000", "181405.534000", "181405.537000", "181405.539000", "181405.542000", "181405.544000", "181405.547000", "181405.550000", "181405.552000", "181405.555000", "181405.557000", "181405.560000", "181405.563000", "181405.565000", "181405.568000", "181405.570000", "181405.573000", "181405.575000", "181405.578000", "181405.581000", "181405.584000", "181445.587000", "181445.590000", "181445.593000", "181445.595000", "181445.598000", "181445.600000", "181445.603000", "181445.606000", "181445.608000", "181445.611000", "181445.613000", "181445.616000", "181445.618000", "181445.621000", "181445.623000", "181445.626000", "181445.628000", "181445.631000", "181445.633000", "181445.636000", "181445.638000", "181445.641000", "181445.643000", "181445.646000", "181445.649000", "181445.651000", "181445.654000", "181445.656000", "181525.983000", "181525.986000", "181525.988000", "181525.991000", "181525.993000", "181525.996000", "181525.998000", "181526.001000", "181526.003000", "181526.006000", "181526.009000", "181526.011000", "181526.014000", "181526.016000", "181526.019000", "181526.021000", "181526.024000", "181526.027000", "181526.029000", "181526.032000", "181526.035000", "181526.037000", "181526.040000", "181526.042000", "181526.045000", "181526.048000", "181526.050000", "181605.585000", "181605.588000", "181605.590000", "181605.593000", "181605.596000", "181605.598000", "181605.601000", "181605.603000", "181605.606000", "181605.608000", "181605.611000", "181605.613000", "181605.616000", "181605.619000", "181605.621000", "181605.624000", "181605.626000", "181605.629000", "181605.631000", "181605.634000", "181605.636000", "181605.639000", "181605.641000", "181605.644000", "181605.646000", "181605.649000", "181605.652000", "181645.589000", "181645.591000", "181645.594000", "181645.597000", "181645.599000", "181645.602000", "181645.604000", "181645.607000", "181645.609000", "181645.612000", "181645.614000", "181645.617000", "181645.619000", "181645.622000", "181645.624000", "181645.627000", "181645.630000", "181645.632000", "181645.635000", "181645.637000", "181645.640000", "181645.642000", "181645.645000", "181645.647000", "181645.650000", "181645.652000", "181725.590000", "181725.593000", "181725.596000", "181725.598000", "181725.601000", "181725.603000", "181725.606000", "181725.608000", "181725.611000", "181725.613000", "181725.616000", "181725.619000", "181725.621000", "181725.624000", "181725.626000", "181725.629000", "181725.632000", "181725.634000", "181725.637000", "181725.639000", "181725.642000", "181725.644000", "181725.647000", "181725.649000", "181725.652000", "181725.654000", "181725.657000", "181805.570000", "181805.572000", "181805.575000", "181805.578000", "181805.580000", "181805.583000", "181805.585000", "181805.588000", "181805.590000", "181805.593000", "181805.595000", "181805.598000", "181805.601000", "181805.603000", "181805.606000", "181805.608000", "181805.611000", "181805.613000", "181805.616000", "181805.618000", "181805.621000", "181805.623000", "181805.626000", "181805.628000", "181805.631000", "181805.634000", "181805.636000", "181845.589000", "181845.592000", "181845.595000", "181845.597000", "181845.600000", "181845.602000", "181845.605000", "181845.607000", "181845.610000", "181845.612000", "181845.615000", "181845.618000", "181845.620000", "181845.623000", "181845.625000", "181845.628000", "181845.630000", "181845.633000", "181845.635000", "181845.638000", "181845.640000", "181845.643000", "181845.646000", "181845.648000", "181845.651000", "181845.653000", "181845.656000", "181905.518000", "181905.521000", "181905.523000", "181905.526000", "181905.528000", "181905.531000", "181905.533000", "181905.536000", "181905.544000", "181905.547000", "181905.550000", "181905.552000", "181905.555000", "181945.589000", "181945.592000", "181945.595000", "181945.597000", "181945.600000", "181945.602000", "181945.605000", "181945.607000", "181945.610000", "181945.612000", "181945.615000", "181945.618000", "181945.620000", "181945.623000", "181945.625000", "181945.628000", "181945.630000", "181945.633000", "181945.635000", "181945.638000", "181945.640000", "181945.643000", "181945.645000", "181945.648000", "181945.650000", "181945.653000", "181945.655000", "182025.574000", "182025.577000", "182025.580000", "182025.582000", "182025.585000", "182025.587000", "182025.590000", "182025.593000", "182025.595000", "182025.598000", "182025.600000", "182025.603000", "182025.605000", "182025.608000", "182025.610000", "182025.613000", "182025.615000", "182025.618000", "182025.621000", "182025.623000", "182025.626000", "182025.628000", "182025.631000", "182025.633000", "182025.636000", "182025.638000", "182025.641000", "182105.572000", "182105.575000", "182105.577000", "182105.580000", "182105.583000", "182105.585000", "182105.588000", "182105.590000", "182105.593000", "182105.595000", "182105.598000", "182105.601000", "182105.603000", "182105.606000", "182105.608000", "182105.611000", "182105.613000", "182105.616000", "182105.618000", "182105.621000", "182105.623000", "182105.626000", "182105.629000", "182105.631000", "182105.634000", "182105.636000", "182105.639000", "182145.580000", "182145.583000", "182145.586000", "182145.588000", "182145.591000", "182145.593000", "182145.596000", "182145.598000", "182145.601000", "182145.604000", "182145.606000", "182145.609000", "182145.611000", "182145.614000", "182145.616000", "182145.619000", "182145.622000", "182145.624000", "182145.627000", "182145.629000", "182145.632000", "182145.634000", "182145.637000", "182145.639000", "182145.642000", "182145.644000", "182145.647000", "182214.130000", "182214.132000", "182214.135000", "182214.138000", "182214.140000", "182214.143000", "182214.145000", "182214.148000", "182214.150000", "182214.153000", "182214.155000", "182214.158000", "182214.161000", "182214.163000", "182214.166000", "182214.168000", "182214.171000", "182214.173000", "182214.176000"],
