{
  "AcquisitionMatrixPE": 104,
  "AcquisitionNumber": 1,
  "AcquisitionTime": "18:11:42.357500",
  "BandwidthPerPixelPhaseEncode": 17.17,
  "BaseResolution": 104,
  "BodyPartExamined": "BRAIN",
  "CoilCombinationMethod": "Sum of Squares",
  "ConsistencyInfo": "N4_VE11C_LATEST_20160120",
  "ConversionSoftware": "dcm2niix",
  "ConversionSoftwareVersion": "v1.0.20211006",
  "DerivedVendorReportedEchoSpacing": 0.000560011,
  "DeviceSerialNumber": "167006",
  "DwellTime": 2.1e-06,
  "EchoTime": 0.037,
  "EchoTrainLength": 104,
  "EffectiveEchoSpacing": 0.000560011,
  "FlipAngle": 52,
  "HeudiconvVersion": "0.11.3.post9+gc939bf8",
  "ImageComments": "Unaliased MB4/PE3/LB",
  "ImageOrientationPatientDICOM": [0.999616, -0.0277108, -0.000684383, 0.0254775, 0.928222, -0.371154],
  "ImageOrientationText": "Tra>Cor(-21.8)>Sag(-0.6)",
  "ImageType": [
    "ORIGINAL",
    "PRIMARY",
    "M",
    "MB",
    "ND",
    "MOSAIC"
],
  "ImagingFrequency": 123.259,
  "InPlanePhaseEncodingDirectionDICOM": "COL",
  "InstitutionAddress": "Chemin Queen-Mary 4565,Montreal,District,CA,H3W 1W5",
  "InstitutionName": "IUGM",
  "InstitutionalDepartmentName": "Department",
  "MRAcquisitionType": "2D",
  "MagneticFieldStrength": 3,
  "Manufacturer": "Siemens",
  "ManufacturersModelName": "Prisma_fit",
  "MatrixCoilMode": "SENSE",
  "Modality": "MR",
  "MultibandAccelerationFactor": 4,
  "PartialFourier": 1,
  "PatientPosition": "HFS",
  "PercentPhaseFOV": 100,
  "PercentSampling": 100,
  "PhaseEncodingDirection": "j",
  "PhaseEncodingSteps": 104,
  "PhaseResolution": 1,
  "PixelBandwidth": 2290,
  "ProcedureStepDescription": "games^mario",
  "ProtocolName": "func_task-mario_run-04",
  "PulseSequenceDetails": "%CustomerSeq%\\cmrr_mbep2d_bold",
  "ReceiveCoilActiveElements": "HC1-7;NC1,2",
  "ReceiveCoilName": "HeadNeck_64",
  "ReconMatrixPE": 104,
  "RepetitionTime": 1.49,
  "SAR": 0.0607204,
  "ScanOptions": "FS",
  "ScanningSequence": "EP",
  "SequenceName": "epfid2d1_104",
  "SequenceVariant": "SK\\SS",
  "SeriesDescription": "func_task-mario_run-04",
  "SeriesNumber": 19,
  "ShimSetting": [605, -7255, -8817, 449, -9, -344, 22, 29],
  "SliceThickness": 2,
  "SliceTiming": [0, 0.785, 0.1, 0.8825, 0.1975, 0.98, 0.295, 1.08, 0.3925, 1.1775, 0.49, 1.275, 0.59, 1.3725, 0.6875, 0, 0.785, 0.1, 0.8825, 0.1975, 0.98, 0.295, 1.08, 0.3925, 1.1775, 0.49, 1.275, 0.59, 1.3725, 0.6875, 0, 0.785, 0.1, 0.8825, 0.1975, 0.98, 0.295, 1.08, 0.3925, 1.1775, 0.49, 1.275, 0.59, 1.3725, 0.6875, 0, 0.785, 0.1, 0.8825, 0.1975, 0.98, 0.295, 1.08, 0.3925, 1.1775, 0.49, 1.275, 0.59, 1.3725, 0.6875],
  "SoftwareVersions": "syngo MR E11",
  "SpacingBetweenSlices": 2,
  "StationName": "MRC35049",
  "TaskName": "mario",
  "TotalReadoutTime": 0.0576811,
  "TxRefAmp": 267.999,
  "WipMemBlock": "09753a34-6b72-40d1-8795-825889b5d4ce||Sequence: R017 ve11c/master r/75a17815+; Jun 28 2022 16:32:11 by eja",
  "dcmmeta_affine": [
    [-1.9992314577102661, 0.05095505714416504, -0.021840473636984825, 102.01563262939453],
    [0.05542157217860222, 1.8564432859420776, -0.741988480091095, -70.67186737060547],
    [-0.0013687663013115525, 0.7423086166381836, 1.8571418523788452, -62.57225036621094],
    [0.0, 0.0, 0.0, 1.0]
],
  "dcmmeta_reorient_transform": [
    [0.0, -1.0, 0.0, 103.0],
    [1.0, 0.0, 0.0, 0.0],
    [0.0, 0.0, 1.0, 0.0],
    [0.0, 0.0, 0.0, 1.0]
],
  "dcmmeta_shape": [104, 104, 60, 423],
  "dcmmeta_slice_dim": 2,
  "dcmmeta_version": 0.6,
  "global": {
    "const": {
      "AcquisitionMatrix": [104, 0, 0, 104],
      "AngioFlag": "N",
      "BitsAllocated": 16,
      "BitsStored": 16,
      "BodyPartExamined": "BRAIN",
      "Columns": 832,
      "EchoNumbers": 1,
      "EchoTime": 37.0,
      "EchoTrainLength": 104,
      "FlipAngle": 52.0,
      "HighBit": 15,
      "ImageOrientationPatient": [0.99961574813782, -0.0277107866102, -0.000684383157, 0.02547752920002, 0.92822161760626, -0.3711543130752],
      "ImagePositionPatient": [-853.53190683873, -776.11367372696, 284.58410877222],
      "ImageType": [
        "ORIGINAL",
        "PRIMARY",
        "M",
        "MB",
        "ND",
        "MOSAIC"
],
      "ImagedNucleus": "1H",
      "ImagingFrequency": 123.258768,
      "InPlanePhaseEncodingDirection": "COL",
      "MRAcquisitionType": "2D",
      "MagneticFieldStrength": 3.0,
      "Manufacturer": "SIEMENS",
      "ManufacturerModelName": "Prisma_fit",
      "Modality": "MR",
      "NumberOfAverages": 1.0,
      "NumberOfPhaseEncodingSteps": 104,
      "PercentPhaseFieldOfView": 100.0,
      "PercentSampling": 100.0,
      "PerformedProcedureStepStartTime": "172302.154000",
      "PhotometricInterpretation": "MONOCHROME2",
      "PixelBandwidth": 2290.0,
      "PixelRepresentation": 0,
      "PixelSpacing": [2.0, 2.0],
      "ProtocolName": "func_task-mario_run-04",
      "RepetitionTime": 1490.0,
      "Rows": 832,
      "SAR": 0.0607204220721,
      "SamplesPerPixel": 1,
      "ScanOptions": "FS",
      "ScanningSequence": "EP",
      "SequenceName": "epfid2d1_104",
      "SequenceVariant": [
        "SK",
        "SS"
],
      "SeriesDescription": "func_task-mario_run-04",
      "SeriesNumber": 19,
      "SeriesTime": "181305.464000",
      "SliceLocation": -32.997952928116,
      "SliceThickness": 2.0,
      "SmallestImagePixelValue": 0,
      "SoftwareVersions": "syngo MR E11",
      "SpacingBetweenSlices": 1.9999999677671,
      "SpecificCharacterSet": "ISO_IR 100",
      "StudyID": "1",
      "StudyTime": "172302.086000",
      "TransmitCoilName": "Body",
      "VariableFlipAngleFlag": "N",
      "WindowCenterWidthExplanation": "Algo1",
      "dBdt": 0.0},
    "slices": {}
  },
  "time": {
    "samples": {
      "AcquisitionNumber": [1, 2, 3, 4, 5, 6, 7, 8, 9, 10, 11, 12, 13, 14, 15, 16, 17, 18, 19, 20, 21, 22, 23, 24, 25, 26, 27, 28, 29, 30, 31, 32, 33, 34, 35, 36, 37, 38, 39, 40, 41, 42, 43, 44, 45, 46, 47, 48, 49, 50, 51, 52, 53, 54, 55, 56, 57, 58, 59, 60, 61, 62, 63, 64, 65, 66, 67, 68, 69, 70, 71, 72, 73, 74, 75, 76, 77, 78, 79, 80, 81, 82, 83, 84, 85, 86, 87, 88, 89, 90, 91, 92, 93, 94, 95, 96, 97, 98, 99, 100, 101, 102, 103, 104, 105, 106, 107, 108, 109, 110, 111, 112, 113, 114, 115, 116, 117, 118, 119, 120, 121, 122, 123, 124, 125, 126, 127, 128, 129, 130, 131, 132, 133, 134, 135, 136, 137, 138, 139, 140, 141, 142, 143, 144, 145, 146, 147, 148, 149, 150, 151, 152, 153, 154, 155, 156, 157, 158, 159, 160, 161, 162, 163, 164, 165, 166, 167, 168, 169, 170, 171, 172, 173, 174, 175, 176, 177, 178, 179, 180, 181, 182, 183, 184, 185, 186, 187, 188, 189, 190, 191, 192, 193, 194, 195, 196, 197, 198, 199, 200, 201, 202, 203, 204, 205, 206, 207, 208, 209, 210, 211, 212, 213, 214, 215, 216, 217, 218, 219, 220, 221, 222, 223, 224, 225, 226, 227, 228, 229, 230, 231, 232, 233, 234, 235, 236, 237, 238, 239, 240, 241, 242, 243, 244, 245, 246, 247, 248, 249, 250, 251, 252, 253, 254, 255, 256, 257, 258, 259, 260, 261, 262, 263, 264, 265, 266, 267, 268, 269, 270, 271, 272, 273, 274, 275, 276, 277, 278, 279, 280, 281, 282, 283, 284, 285, 286, 287, 288, 289, 290, 291, 292, 293, 294, 295, 296, 297, 298, 299, 300, 301, 302, 303, 304, 305, 306, 307, 308, 309, 310, 311, 312, 313, 314, 315, 316, 317, 318, 319, 320, 321, 322, 323, 324, 325, 326, 327, 328, 329, 330, 331, 332, 333, 334, 335, 336, 337, 338, 339, 340, 341, 342, 343, 344, 345, 346, 347, 348, 349, 350, 351, 352, 353, 354, 355, 356, 357, 358, 359, 360, 361, 362, 363, 364, 365, 366, 367, 368, 369, 370, 371, 372, 373, 374, 375, 376, 377, 378, 379, 380, 381, 382, 383, 384, 385, 386, 387, 388, 389, 390, 391, 392, 393, 394, 395, 396, 397, 398, 399, 400, 401, 402, 403, 404, 405, 406, 407, 408, 409, 410, 411, 412, 413, 414, 415, 416, 417, 418, 419, 420, 421, 422, 423],
      "AcquisitionTime": ["181142.357500", "181143.847500", "181145.337500", "181146.827500", "181148.317500", "181149.807500", "181151.297500", "181152.787500", "181154.277500", "181155.767500", "181157.257500", "181158.747500", "181200.237500", "181201.727500", "181203.217500", "181204.707500", "181206.197500", "181207.687500", "181209.177500", "181210.667500", "181212.157500", "181213.647500", "181215.137500", "181216.627500", "181218.117500", "181219.607500", "181221.097500", "181222.587500", "181224.077500", "181225.567500", "181227.057500", "181228.547500", "181230.037500", "181231.527500", "181233.017500", "181234.507500", "181235.997500", "181237.487500", "181238.977500", "181240.467500", "181241.957500", "181243.447500", "181244.937500", "181246.427500", "181247.917500", "181249.407500", "181250.897500", "181252.387500", "181253.877500", "181255.367500", "181256.857500", "181258.347500", "181259.837500", "181301.327500", "181302.817500", "181304.307500", "181305.797500", "181307.287500", "181308.777500", "181310.267500", "181311.757500", "181313.247500", "181314.737500", "181316.227500", "181317.717500", "181319.207500", "181320.697500", "181322.187500", "181323.677500", "181325.167500", "181326.657500", "181328.147500", "181329.637500", "181331.127500", "181332.617500", "181334.107500", "181335.597500", "181337.087500", "181338.577500", "181340.067500", "181341.557500", "181343.047500", "181344.537500", "181346.027500", "181347.517500", "181349.007500", "181350.497500", "181351.987500", "181353.477500", "181354.967500", "181356.457500", "181357.947500", "181359.437500", "181400.927500", "181402.417500", "181403.907500", "181405.397500", "181406.887500", "181408.377500", "181409.867500", "181411.357500", "181412.847500", "181414.337500", "181415.827500", "181417.317500", "181418.807500", "181420.297500", "181421.787500", "181423.277500", "181424.767500", "181426.257500", "181427.747500", "181429.237500", "181430.727500", "181432.217500", "181433.707500", "181435.197500", "181436.687500", "181438.177500", "181439.667500", "181441.157500", "181442.647500", "181444.137500", "181445.627500", "181447.117500", "181448.607500", "181450.097500", "181451.587500", "181453.077500", "181454.567500", "181456.057500", "181457.547500", "181459.037500", "181500.527500", "181502.017500", "181503.507500", "181504.997500", "181506.487500", "181507.977500", "181509.467500", "181510.957500", "181512.447500", "181513.937500", "181515.427500", "181516.917500", "181518.407500", "181519.897500", "181521.387500", "181522.877500", "181524.367500", "181525.857500", "181527.347500", "181528.837500", "181530.327500", "181531.817500", "181533.307500", "181534.797500", "181536.287500", "181537.777500", "181539.267500", "181540.757500", "181542.247500", "181543.737500", "181545.227500", "181546.717500", "181548.207500", "181549.697500", "181551.187500", "181552.677500", "181554.167500", "181555.657500", "181557.147500", "181558.637500", "181600.127500", "181601.617500", "181603.107500", "181604.597500", "181606.087500", "181607.577500", "181609.067500", "181610.557500", "181612.047500", "181613.537500", "181615.027500", "181616.517500", "181618.007500", "181619.497500", "181620.987500", "181622.477500", "181623.967500", "181625.457500", "181626.947500", "181628.437500", "181629.927500", "181631.417500", "181632.907500", "181634.397500", "181635.887500", "181637.377500", "181638.867500", "181640.357500", "181641.847500", "181643.337500", "181644.827500", "181646.317500", "181647.807500", "181649.297500", "181650.787500", "181652.277500", "181653.767500", "181655.257500", "181656.747500", "181658.237500", "181659.727500", "181701.217500", "181702.707500", "181704.197500", "181705.687500", "181707.177500", "181708.667500", "181710.157500", "181711.647500", "181713.137500", "181714.627500", "181716.117500", "181717.607500", "181719.097500", "181720.587500", "181722.077500", "181723.567500", "181725.057500", "181726.547500", "181728.037500", "181729.527500", "181731.017500", "181732.507500", "181733.997500", "181735.487500", "181736.977500", "181738.467500", "181739.957500", "181741.447500", "181742.937500", "181744.427500", "181745.917500", "181747.407500", "181748.897500", "181750.387500", "181751.877500", "181753.367500", "181754.857500", "181756.347500", "181757.837500", "181759.327500", "181800.817500", "181802.307500", "181803.797500", "181805.287500", "181806.777500", "181808.267500", "181809.757500", "181811.247500", "181812.737500", "181814.227500", "181815.717500", "181817.207500", "181818.697500", "181820.187500", "181821.677500", "181823.167500", "181824.657500", "181826.147500", "181827.637500", "181829.127500", "181830.617500", "181832.107500", "181833.597500", "181835.087500", "181836.577500", "181838.067500", "181839.557500", "181841.047500", "181842.537500", "181844.027500", "181845.517500", "181847.007500", "181848.497500", "181849.987500", "181851.477500", "181852.967500", "181854.457500", "181855.947500", "181857.437500", "181858.927500", "181900.417500", "181901.907500", "181903.397500", "181904.887500", "181906.377500", "181907.867500", "181909.357500", "181910.847500", "181912.337500", "181913.827500", "181915.317500", "181916.807500", "181918.297500", "181919.787500", "181921.277500", "181922.767500", "181924.257500", "181925.747500", "181927.237500", "181928.727500", "181930.217500", "181931.707500", "181933.197500", "181934.687500", "181936.177500", "181937.667500", "181939.157500", "181940.647500", "181942.137500", "181943.627500", "181945.117500", "181946.607500", "181948.097500", "181949.587500", "181951.077500", "181952.567500", "181954.057500", "181955.547500", "181957.037500", "181958.527500", "182000.017500", "182001.507500", "182002.997500", "182004.487500", "182005.977500", "182007.467500", "182008.957500", "182010.447500", "182011.937500", "182013.427500", "182014.917500", "182016.407500", "182017.897500", "182019.387500", "182020.877500", "182022.367500", "182023.857500", "182025.347500", "182026.837500", "182028.327500", "182029.817500", "182031.307500", "182032.797500", "182034.287500", "182035.777500", "182037.267500", "182038.757500", "182040.247500", "182041.737500", "182043.227500", "182044.717500", "182046.207500", "182047.697500", "182049.187500", "182050.677500", "182052.167500", "182053.657500", "182055.147500", "182056.637500", "182058.127500", "182059.617500", "182101.107500", "182102.597500", "182104.087500", "182105.577500", "182107.067500", "182108.557500", "182110.047500", "182111.537500", "182113.027500", "182114.517500", "182116.007500", "182117.497500", "182118.987500", "182120.477500", "182121.967500", "182123.457500", "182124.947500", "182126.437500", "182127.927500", "182129.417500", "182130.907500", "182132.397500", "182133.887500", "182135.377500", "182136.867500", "182138.357500", "182139.847500", "182141.337500", "182142.827500", "182144.317500", "182145.807500", "182147.297500", "182148.787500", "182150.277500", "182151.767500", "182153.257500", "182154.747500", "182156.237500", "182157.727500", "182159.217500", "182200.707500", "182202.197500", "182203.687500", "182205.177500", "182206.667500", "182208.157500", "182209.647500", "182211.137500"],
      "ContentTime": ["181305.468000", "181305.472000", "181305.476000", "181305.479000", "181305.483000", "181305.486000", "181305.491000", "181305.494000", "181305.497000", "181305.501000", "181305.504000", "181305.507000", "181305.511000", "181305.522000", "181305.525000", "181305.529000", "181305.532000", "181305.535000", "181305.539000", "181305.542000", "181305.545000", "181305.549000", "181305.552000", "181305.555000", "181305.559000", "181305.569000", "181305.573000", "181305.576000", "181305.579000", "181305.583000", "181305.586000", "181305.589000", "181305.593000", "181325.433000", "181325.437000", "181325.441000", "181325.444000", "181325.448000", "181325.452000", "181325.456000", "181325.459000", "181325.463000", "181325.466000", "181325.470000", "181325.474000", "181325.477000", "181325.481000", "181325.485000", "181325.488000", "181325.492000", "181325.495000", "181325.499000", "181325.503000", "181325.506000", "181345.433000", "181345.437000", "181345.440000", "181345.444000", "181345.455000", "181345.458000", "181345.462000", "181345.465000", "181345.468000", "181345.472000", "181345.475000", "181345.478000", "181345.482000", "181345.485000", "181345.488000", "181345.492000", "181345.495000", "181345.498000", "181345.502000", "181345.505000", "181405.434000", "181405.438000", "181405.441000", "181405.445000", "181405.448000", "181405.451000", "181405.455000", "181405.458000", "181405.461000", "181405.465000", "181405.468000", "181405.472000", "181405.475000", "181405.478000", "181405.482000", "181405.485000", "181405.488000", "181405.492000", "181405.495000", "181405.499000", "181445.434000", "181445.438000", "181445.441000", "181445.445000", "181445.448000", "181445.451000", "181445.455000", "181445.458000", "181445.461000", "181445.465000", "181445.468000", "181445.472000", "181445.475000", "181445.478000", "181445.481000", "181445.485000", "181445.488000", "181445.492000", "181445.495000", "181445.498000", "181445.502000", "181445.505000", "181445.508000", "181445.512000", "181445.515000", "181445.528000", "181445.532000", "181445.535000", "181525.433000", "181525.437000", "181525.440000", "181525.444000", "181525.447000", "181525.450000", "181525.454000", "181525.457000", "181525.460000", "181525.464000", "181525.467000", "181525.471000", "181525.474000", "181525.477000", "181525.481000", "181525.484000", "181525.488000", "181525.491000", "181525.494000", "181525.498000", "181525.501000", "181525.505000", "181525.508000", "181525.511000", "181525.515000", "181525.518000", "181525.521000", "181605.433000", "181605.437000", "181605.440000", "181605.444000", "181605.447000", "181605.451000", "181605.454000", "181605.457000", "181605.461000", "181605.464000", "181605.467000", "181605.471000", "181605.474000", "181605.477000", "181605.481000", "181605.484000", "181605.488000", "181605.491000", "181605.494000", "181605.498000", "181605.501000", "181605.504000", "181605.508000", "181605.511000", "181605.514000", "181605.518000", "181605.521000", "181645.434000", "181645.438000", "181645.442000", "181645.446000", "181645.449000", "181645.453000", "181645.456000", "181645.459000", "181645.463000", "181645.466000", "181645.469000", "181645.473000", "181645.476000", "181645.480000", "181645.483000", "181645.497000", "181645.501000", "181645.504000", "181645.507000", "181645.511000", "181645.514000", "181645.518000", "181645.521000", "181645.524000", "181645.528000", "181645.531000", "181725.433000", "181725.437000", "181725.440000", "181725.444000", "181725.447000", "181725.451000", "181725.454000", "181725.457000", "181725.461000", "181725.464000", "181725.467000", "181725.471000", "181725.474000", "181725.485000", "181725.489000", "181725.492000", "181725.495000", "181725.499000", "181725.502000", "181725.505000", "181725.509000", "181725.512000", "181725.515000", "181725.519000", "181725.522000", "181725.526000", "181725.529000", "181805.433000", "181805.437000", "181805.440000", "181805.444000", "181805.447000", "181805.451000", "181805.454000", "181805.457000", "181805.461000", "181805.465000", "181805.468000", "181805.472000", "181805.475000", "181805.478000", "181805.482000", "181805.485000", "181805.488000", "181805.492000", "181805.495000", "181805.498000", "181805.502000", "181805.509000", "181805.513000", "181805.516000", "181805.519000", "181805.523000", "181805.526000", "181845.434000", "181845.438000", "181845.441000", "181845.445000", "181845.448000", "181845.452000", "181845.455000", "181845.458000", "181845.462000", "181845.466000", "181845.469000", "181845.472000", "181845.476000", "181845.479000", "181845.483000", "181845.486000", "181845.489000", "181845.493000", "181845.496000", "181845.499000", "181845.503000", "181845.506000", "181845.509000", "181845.513000", "181845.516000", "181845.519000", "181845.523000", "181905.434000", "181905.438000", "181905.442000", "181905.445000", "181905.448000", "181905.452000", "181905.455000", "181905.458000", "181905.462000", "181905.465000", "181905.469000", "181905.472000", "181905.475000", "181945.433000", "181945.437000", "181945.456000", "181945.459000", "181945.462000", "181945.466000", "181945.469000", "181945.473000", "181945.476000", "181945.479000", "181945.483000", "181945.486000", "181945.489000", "181945.493000", "181945.496000", "181945.500000", "181945.503000", "181945.506000", "181945.510000", "181945.513000", "181945.516000", "181945.520000", "181945.523000", "181945.527000", "181945.530000", "181945.533000", "181945.537000", "182025.433000", "182025.437000", "182025.440000", "182025.444000", "182025.447000", "182025.451000", "182025.454000", "182025.457000", "182025.461000", "182025.464000", "182025.468000", "182025.471000", "182025.474000", "182025.478000", "182025.481000", "182025.484000", "182025.488000", "182025.491000", "182025.495000", "182025.498000", "182025.501000", "182025.505000", "182025.508000", "182025.511000", "182025.515000", "182025.518000", "182025.526000", "182105.434000", "182105.438000", "182105.441000", "182105.445000", "182105.448000", "182105.453000", "182105.457000", "182105.460000", "182105.464000", "182105.467000", "182105.470000", "182105.474000", "182105.477000", "182105.480000", "182105.484000", "182105.487000", "182105.490000", "182105.494000", "182105.497000", "182105.500000", "182105.504000", "182105.507000", "182105.511000", "182105.514000", "182105.517000", "182105.521000", "182105.524000", "182145.434000", "182145.438000", "182145.441000", "182145.445000", "182145.448000", "182145.451000", "182145.455000", "182145.458000", "182145.462000", "182145.465000", "182145.468000", "182145.472000", "182145.475000", "182145.478000", "182145.493000", "182145.496000", "182145.499000", "182145.503000", "182145.506000", "182145.510000", "182145.513000", "182145.516000", "182145.520000", "182145.523000", "182145.526000", "182145.530000", "182145.533000", "182213.995000", "182214.000000", "182214.003000", "182214.007000", "182214.010000", "182214.014000", "182214.017000", "182214.020000", "182214.024000", "182214.027000", "182214.030000", "182214.034000", "182214.037000", "182214.041000", "182214.044000", "182214.047000", "182214.051000", "182214.054000", "182214.057000"],
      "InstanceCreationTime": ["181305.468000", "181305.472000", "181305.476000", "181305.479000", "181305.483000", "181305.486000", "181305.491000", "181305.494000", "181305.497000", "181305.501000", "181305.504000", "181305.507000", "181305.511000", "181305.522000", "181305.525000", "181305.529000", "181305.532000", "181305.535000", "181305.539000", "181305.542000", "181305.545000", "181305.549000", "181305.552000", "181305.555000", "181305.559000", "181305.569000", "181305.573000", "181305.576000", "181305.579000", "181305.583000", "181305.586000", "181305.589000", "181305.593000", "181325.433000", "181325.437000", "181325.441000", "181325.444000", "181325.448000", "181325.452000", "181325.456000", "181325.459000", "181325.463000", "181325.466000", "181325.470000", "181325.474000", "181325.477000", "181325.481000", "181325.485000", "181325.488000", "181325.492000", "181325.495000", "181325.499000", "181325.503000", "181325.506000", "181345.433000", "181345.437000", "181345.440000", "181345.444000", "181345.455000", "181345.458000", "181345.462000", "181345.465000", "181345.468000", "181345.472000", "181345.475000", "181345.478000", "181345.482000", "181345.485000", "181345.488000", "181345.492000", "181345.495000", "181345.498000", "181345.502000", "181345.505000", "181405.434000", "181405.438000", "181405.441000", "181405.445000", "181405.448000", "181405.451000", "181405.455000", "181405.458000", "181405.461000", "181405.465000", "181405.468000", "181405.472000", "181405.475000", "181405.478000", "181405.482000", "181405.485000", "181405.488000", "181405.492000", "181405.495000", "181405.499000", "181445.434000", "181445.438000", "181445.441000", "181445.445000", "181445.448000", "181445.451000", "181445.455000", "181445.458000", "181445.461000", "181445.465000", "181445.468000", "181445.472000", "181445.475000", "181445.478000", "181445.481000", "181445.485000", "181445.488000", "181445.492000", "181445.495000", "181445.498000", "181445.502000", "181445.505000", "181445.508000", "181445.512000", "181445.515000", "181445.528000", "181445.532000", "181445.535000", "181525.433000", "181525.437000", "181525.440000", "181525.444000", "181525.447000", "181525.450000", "181525.454000", "181525.457000", "181525.460000", "181525.464000", "181525.467000", "181525.471000", "181525.474000", "181525.477000", "181525.481000", "181525.484000", "181525.488000", "181525.491000", "181525.494000", "181525.498000", "181525.501000", "181525.505000", "181525.508000", "181525.511000", "181525.515000", "181525.518000", "181525.521000", "181605.433000", "181605.437000", "181605.440000", "181605.444000", "181605.447000", "181605.451000", "181605.454000", "181605.457000", "181605.461000", "181605.464000", "181605.467000", "181605.471000", "181605.474000", "181605.477000", "181605.481000", "181605.484000", "181605.488000", "181605.491000", "181605.494000", "181605.498000", "181605.501000", "181605.504000", "181605.508000", "181605.511000", "181605.514000", "181605.518000", "181605.521000", "181645.434000", "181645.438000", "181645.442000", "181645.446000", "181645.449000", "181645.453000", "181645.456000", "181645.459000", "181645.463000", "181645.466000", "181645.469000", "181645.473000", "181645.476000", "181645.480000", "181645.483000", "181645.497000", "181645.501000", "181645.504000", "181645.507000", "181645.511000", "181645.514000", "181645.518000", "181645.521000", "181645.524000", "181645.528000", "181645.531000", "181725.433000", "181725.437000", "181725.440000", "181725.444000", "181725.447000", "181725.451000", "181725.454000", "181725.457000", "181725.461000", "181725.464000", "181725.467000", "181725.471000", "181725.474000", "181725.485000", "181725.489000", "181725.492000", "181725.495000", "181725.499000", "181725.502000", "181725.505000", "181725.509000", "181725.512000", "181725.515000", "181725.519000", "181725.522000", "181725.526000", "181725.529000", "181805.433000", "181805.437000", "181805.440000", "181805.444000", "181805.447000", "181805.451000", "181805.454000", "181805.457000", "181805.461000", "181805.465000", "181805.468000", "181805.472000", "181805.475000", "181805.478000", "181805.482000", "181805.485000", "181805.488000", "181805.492000", "181805.495000", "181805.498000", "181805.502000", "181805.509000", "181805.513000", "181805.516000", "181805.519000", "181805.523000", "181805.526000", "181845.434000", "181845.438000", "181845.441000", "181845.445000", "181845.448000", "181845.452000", "181845.455000", "181845.458000", "181845.462000", "181845.466000", "181845.469000", "181845.472000", "181845.476000", "181845.479000", "181845.483000", "181845.486000", "181845.489000", "181845.493000", "181845.496000", "181845.499000", "181845.503000", "181845.506000", "181845.509000", "181845.513000", "181845.516000", "181845.519000", "181845.523000", "181905.434000", "181905.438000", "181905.442000", "181905.445000", "181905.448000", "181905.452000", "181905.455000", "181905.458000", "181905.462000", "181905.465000", "181905.469000", "181905.472000", "181905.475000", "181945.433000", "181945.437000", "181945.456000", "181945.459000", "181945.462000", "181945.466000", "181945.469000", "181945.473000", "181945.476000", "181945.479000", "181945.483000", "181945.486000", "181945.489000", "181945.493000", "181945.496000", "181945.500000", "181945.503000", "181945.506000", "181945.510000", "181945.513000", "181945.516000", "181945.520000", "181945.523000", "181945.527000", "181945.530000", "181945.533000", "181945.537000", "182025.433000", "182025.437000", "182025.440000", "182025.444000", "182025.447000", "182025.451000", "182025.454000", "182025.457000", "182025.461000", "182025.464000", "182025.468000", "182025.471000", "182025.474000", "182025.478000", "182025.481000", "182025.484000", "182025.488000", "182025.491000", "182025.495000", "182025.498000", "182025.501000", "182025.505000", "182025.508000", "182025.511000", "182025.515000", "182025.518000", "182025.526000", "182105.434000", "182105.438000", "182105.441000", "182105.445000", "182105.448000", "182105.453000", "182105.457000", "182105.460000", "182105.464000", "182105.467000", "182105.470000", "182105.474000", "182105.477000", "182105.480000", "182105.484000", "182105.487000", "182105.490000", "182105.494000", "182105.497000", "182105.500000", "182105.504000", "182105.507000", "182105.511000", "182105.514000", "182105.517000", "182105.521000", "182105.524000", "182145.434000", "182145.438000", "182145.441000", "182145.445000", "182145.448000", "182145.451000", "182145.455000", "182145.458000", "182145.462000", "182145.465000", "182145.468000", "182145.472000", "182145.475000", "182145.478000", "182145.493000", "182145.496000", "182145.499000", "182145.503000", "182145.506000", "182145.510000", "182145.513000", "182145.516000", "182145.520000", "182145.523000", "182145.526000", "182145.530000", "182145.533000", "182213.995000", "182214.000000", "182214.003000", "182214.007000", "182214.010000", "182214.014000", "182214.017000", "182214.020000", "182214.024000", "182214.027000", "182214.030000", "182214.034000", "182214.037000", "182214.041000", "182214.044000", "182214.047000", "182214.051000", "182214.054000", "182214.057000"],
