{
  "AcquisitionMatrixPE": 104,
  "AcquisitionNumber": 1,
  "AcquisitionTime": "17:44:24.962500",
  "BandwidthPerPixelPhaseEncode": 17.17,
  "BaseResolution": 104,
  "BodyPartExamined": "BRAIN",
  "CoilCombinationMethod": "Sum of Squares",
  "ConsistencyInfo": "N4_VE11C_LATEST_20160120",
  "ConversionSoftware": "dcm2niix",
  "ConversionSoftwareVersion": "v1.0.20211006",
  "DerivedVendorReportedEchoSpacing": 0.000560011,
  "DeviceSerialNumber": "167006",
  "DwellTime": 2.1e-06,
  "EchoTime": 0.037,
  "EchoTime1": 0.037,
  "EchoTime2": 0.001,
  "EchoTrainLength": 104,
  "EffectiveEchoSpacing": 0.000560011,
  "FlipAngle": 52,
  "HeudiconvVersion": "0.11.3.post9+gc939bf8",
  "ImageComments": "Unaliased MB4/PE3/LB",
  "ImageOrientationPatientDICOM": [0.999616, -0.0277108, -0.000684383, 0.0254775, 0.928222, -0.371154],
  "ImageOrientationText": "Tra>Cor(-21.8)>Sag(-0.6)",
  "ImageType": [
    "ORIGINAL",
    "PRIMARY",
    "P",
    "MB",
    "ND",
    "MOSAIC",
    "PHASE"
],
  "ImagingFrequency": 123.259,
  "InPlanePhaseEncodingDirectionDICOM": "COL",
  "InstitutionAddress": "Chemin Queen-Mary 4565,Montreal,District,CA,H3W 1W5",
  "InstitutionName": "IUGM",
  "InstitutionalDepartmentName": "Department",
  "MRAcquisitionType": "2D",
  "MagneticFieldStrength": 3,
  "Manufacturer": "Siemens",
  "ManufacturersModelName": "Prisma_fit",
  "MatrixCoilMode": "SENSE",
  "Modality": "MR",
  "MultibandAccelerationFactor": 4,
  "PartialFourier": 1,
  "PatientPosition": "HFS",
  "PercentPhaseFOV": 100,
  "PercentSampling": 100,
  "PhaseEncodingDirection": "j",
  "PhaseEncodingSteps": 104,
  "PhaseResolution": 1,
  "PixelBandwidth": 2290,
  "ProcedureStepDescription": "games^mario",
  "ProtocolName": "func_task-mario_run-02",
  "PulseSequenceDetails": "%CustomerSeq%\\cmrr_mbep2d_bold",
  "ReceiveCoilActiveElements": "HC1-7;NC1,2",
  "ReceiveCoilName": "HeadNeck_64",
  "ReconMatrixPE": 104,
  "RepetitionTime": 1.49,
  "SAR": 0.0607204,
  "ScanOptions": "FS",
  "ScanningSequence": "EP",
  "SequenceName": "epfid2d1_104",
  "SequenceVariant": "SK\\SS",
  "SeriesDescription": "func_task-mario_run-02",
  "SeriesNumber": 14,
  "ShimSetting": [605, -7255, -8817, 449, -9, -344, 22, 29],
  "SliceThickness": 2,
  "SliceTiming": [0, 0.785, 0.0975, 0.8825, 0.1975, 0.98, 0.295, 1.0775, 0.3925, 1.1775, 0.49, 1.275, 0.5875, 1.3725, 0.6875, 0, 0.785, 0.0975, 0.8825, 0.1975, 0.98, 0.295, 1.0775, 0.3925, 1.1775, 0.49, 1.275, 0.5875, 1.3725, 0.6875, 0, 0.785, 0.0975, 0.8825, 0.1975, 0.98, 0.295, 1.0775, 0.3925, 1.1775, 0.49, 1.275, 0.5875, 1.3725, 0.6875, 0, 0.785, 0.0975, 0.8825, 0.1975, 0.98, 0.295, 1.0775, 0.3925, 1.1775, 0.49, 1.275, 0.5875, 1.3725, 0.6875],
  "SoftwareVersions": "syngo MR E11",
  "SpacingBetweenSlices": 2,
  "StationName": "MRC35049",
  "TaskName": "mario",
  "TotalReadoutTime": 0.0576811,
  "TxRefAmp": 267.999,
  "WipMemBlock": "e6546e54-d3b4-4c80-8a2c-df021e2a4a53||Sequence: R017 ve11c/master r/75a17815+; Jun 28 2022 16:32:11 by eja",
  "dcmmeta_affine": [
    [-1.9992314577102661, 0.05095505714416504, -0.021840473636984825, 102.01563262939453],
    [0.05542157217860222, 1.8564432859420776, -0.741988480091095, -70.67186737060547],
    [-0.0013687663013115525, 0.7423086166381836, 1.8571418523788452, -62.57225036621094],
    [0.0, 0.0, 0.0, 1.0]
],
  "dcmmeta_reorient_transform": [
    [0.0, -1.0, 0.0, 103.0],
    [1.0, 0.0, 0.0, 0.0],
    [0.0, 0.0, 1.0, 0.0],
    [0.0, 0.0, 0.0, 1.0]
],
  "dcmmeta_shape": [104, 104, 60, 459],
  "dcmmeta_slice_dim": 2,
  "dcmmeta_version": 0.6,
  "global": {
    "const": {
      "AcquisitionMatrix": [104, 0, 0, 104],
      "AngioFlag": "N",
      "BitsAllocated": 16,
      "BitsStored": 16,
      "BodyPartExamined": "BRAIN",
      "Columns": 832,
      "EchoNumbers": 1,
      "EchoTime": 37.0,
      "EchoTrainLength": 104,
      "FlipAngle": 52.0,
      "HighBit": 15,
      "ImageOrientationPatient": [0.99961574813782, -0.0277107866102, -0.000684383157, 0.02547752920002, 0.92822161760626, -0.3711543130752],
      "ImagePositionPatient": [-853.53190683873, -776.11367372696, 284.58410877222],
      "ImageType": [
        "ORIGINAL",
        "PRIMARY",
        "P",
        "MB",
        "ND",
        "MOSAIC"
],
      "ImagedNucleus": "1H",
      "ImagingFrequency": 123.258757,
      "InPlanePhaseEncodingDirection": "COL",
      "LargestImagePixelValue": 4095,
      "MRAcquisitionType": "2D",
      "MagneticFieldStrength": 3.0,
      "Manufacturer": "SIEMENS",
      "ManufacturerModelName": "Prisma_fit",
      "Modality": "MR",
      "NumberOfAverages": 1.0,
      "NumberOfPhaseEncodingSteps": 104,
      "PercentPhaseFieldOfView": 100.0,
      "PercentSampling": 100.0,
      "PerformedProcedureStepStartTime": "172302.154000",
      "PhotometricInterpretation": "MONOCHROME2",
      "PixelBandwidth": 2290.0,
      "PixelRepresentation": 0,
      "PixelSpacing": [2.0, 2.0],
      "ProtocolName": "func_task-mario_run-02",
      "RepetitionTime": 1490.0,
      "RescaleIntercept": -4096.0,
      "RescaleSlope": 2.0,
      "RescaleType": "US",
      "Rows": 832,
      "SAR": 0.0607204220721,
      "SamplesPerPixel": 1,
      "ScanOptions": "FS",
      "ScanningSequence": "EP",
      "SequenceName": "epfid2d1_104",
      "SequenceVariant": [
        "SK",
        "SS"
],
      "SeriesDescription": "func_task-mario_run-02",
      "SeriesNumber": 14,
      "SeriesTime": "174546.643000",
      "SliceLocation": -32.997952928116,
      "SliceThickness": 2.0,
      "SmallestImagePixelValue": 0,
      "SoftwareVersions": "syngo MR E11",
      "SpacingBetweenSlices": 1.9999999677671,
      "SpecificCharacterSet": "ISO_IR 100",
      "StudyID": "1",
      "StudyTime": "172302.086000",
      "TransmitCoilName": "Body",
      "VariableFlipAngleFlag": "N",
      "WindowCenterWidthExplanation": "Algo1",
      "dBdt": 0.0},
    "slices": {}
  },
  "time": {
    "samples": {
      "AcquisitionNumber": [1, 2, 3, 4, 5, 6, 7, 8, 9, 10, 11, 12, 13, 14, 15, 16, 17, 18, 19, 20, 21, 22, 23, 24, 25, 26, 27, 28, 29, 30, 31, 32, 33, 34, 35, 36, 37, 38, 39, 40, 41, 42, 43, 44, 45, 46, 47, 48, 49, 50, 51, 52, 53, 54, 55, 56, 57, 58, 59, 60, 61, 62, 63, 64, 65, 66, 67, 68, 69, 70, 71, 72, 73, 74, 75, 76, 77, 78, 79, 80, 81, 82, 83, 84, 85, 86, 87, 88, 89, 90, 91, 92, 93, 94, 95, 96, 97, 98, 99, 100, 101, 102, 103, 104, 105, 106, 107, 108, 109, 110, 111, 112, 113, 114, 115, 116, 117, 118, 119, 120, 121, 122, 123, 124, 125, 126, 127, 128, 129, 130, 131, 132, 133, 134, 135, 136, 137, 138, 139, 140, 141, 142, 143, 144, 145, 146, 147, 148, 149, 150, 151, 152, 153, 154, 155, 156, 157, 158, 159, 160, 161, 162, 163, 164, 165, 166, 167, 168, 169, 170, 171, 172, 173, 174, 175, 176, 177, 178, 179, 180, 181, 182, 183, 184, 185, 186, 187, 188, 189, 190, 191, 192, 193, 194, 195, 196, 197, 198, 199, 200, 201, 202, 203, 204, 205, 206, 207, 208, 209, 210, 211, 212, 213, 214, 215, 216, 217, 218, 219, 220, 221, 222, 223, 224, 225, 226, 227, 228, 229, 230, 231, 232, 233, 234, 235, 236, 237, 238, 239, 240, 241, 242, 243, 244, 245, 246, 247, 248, 249, 250, 251, 252, 253, 254, 255, 256, 257, 258, 259, 260, 261, 262, 263, 264, 265, 266, 267, 268, 269, 270, 271, 272, 273, 274, 275, 276, 277, 278, 279, 280, 281, 282, 283, 284, 285, 286, 287, 288, 289, 290, 291, 292, 293, 294, 295, 296, 297, 298, 299, 300, 301, 302, 303, 304, 305, 306, 307, 308, 309, 310, 311, 312, 313, 314, 315, 316, 317, 318, 319, 320, 321, 322, 323, 324, 325, 326, 327, 328, 329, 330, 331, 332, 333, 334, 335, 336, 337, 338, 339, 340, 341, 342, 343, 344, 345, 346, 347, 348, 349, 350, 351, 352, 353, 354, 355, 356, 357, 358, 359, 360, 361, 362, 363, 364, 365, 366, 367, 368, 369, 370, 371, 372, 373, 374, 375, 376, 377, 378, 379, 380, 381, 382, 383, 384, 385, 386, 387, 388, 389, 390, 391, 392, 393, 394, 395, 396, 397, 398, 399, 400, 401, 402, 403, 404, 405, 406, 407, 408, 409, 410, 411, 412, 413, 414, 415, 416, 417, 418, 419, 420, 421, 422, 423, 424, 425, 426, 427, 428, 429, 430, 431, 432, 433, 434, 435, 436, 437, 438, 439, 440, 441, 442, 443, 444, 445, 446, 447, 448, 449, 450, 451, 452, 453, 454, 455, 456, 457, 458, 459],
      "AcquisitionTime": ["174424.962500", "174426.452500", "174427.942500", "174429.432500", "174430.922500", "174432.412500", "174433.902500", "174435.392500", "174436.882500", "174438.372500", "174439.862500", "174441.352500", "174442.842500", "174444.332500", "174445.822500", "174447.312500", "174448.802500", "174450.292500", "174451.782500", "174453.272500", "174454.762500", "174456.252500", "174457.742500", "174459.232500", "174500.722500", "174502.212500", "174503.702500", "174505.192500", "174506.682500", "174508.172500", "174509.662500", "174511.152500", "174512.642500", "174514.132500", "174515.622500", "174517.112500", "174518.602500", "174520.092500", "174521.582500", "174523.072500", "174524.562500", "174526.052500", "174527.542500", "174529.032500", "174530.522500", "174532.012500", "174533.502500", "174534.992500", "174536.482500", "174537.972500", "174539.462500", "174540.952500", "174542.442500", "174543.932500", "174545.422500", "174546.912500", "174548.402500", "174549.892500", "174551.382500", "174552.872500", "174554.362500", "174555.852500", "174557.342500", "174558.832500", "174600.322500", "174601.812500", "174603.302500", "174604.792500", "174606.282500", "174607.772500", "174609.262500", "174610.752500", "174612.242500", "174613.732500", "174615.222500", "174616.712500", "174618.202500", "174619.692500", "174621.182500", "174622.672500", "174624.162500", "174625.652500", "174627.142500", "174628.632500", "174630.122500", "174631.612500", "174633.102500", "174634.592500", "174636.082500", "174637.572500", "174639.062500", "174640.552500", "174642.042500", "174643.532500", "174645.022500", "174646.512500", "174648.002500", "174649.492500", "174650.982500", "174652.472500", "174653.962500", "174655.452500", "174656.942500", "174658.432500", "174659.922500", "174701.412500", "174702.902500", "174704.392500", "174705.882500", "174707.372500", "174708.862500", "174710.352500", "174711.842500", "174713.332500", "174714.822500", "174716.312500", "174717.802500", "174719.292500", "174720.782500", "174722.272500", "174723.762500", "174725.252500", "174726.742500", "174728.232500", "174729.722500", "174731.212500", "174732.702500", "174734.192500", "174735.682500", "174737.172500", "174738.662500", "174740.152500", "174741.642500", "174743.132500", "174744.622500", "174746.112500", "174747.602500", "174749.092500", "174750.582500", "174752.072500", "174753.562500", "174755.052500", "174756.542500", "174758.032500", "174759.522500", "174801.012500", "174802.502500", "174803.992500", "174805.482500", "174806.972500", "174808.462500", "174809.952500", "174811.442500", "174812.932500", "174814.422500", "174815.912500", "174817.402500", "174818.892500", "174820.382500", "174821.872500", "174823.362500", "174824.852500", "174826.342500", "174827.832500", "174829.322500", "174830.812500", "174832.302500", "174833.792500", "174835.282500", "174836.772500", "174838.262500", "174839.752500", "174841.242500", "174842.732500", "174844.222500", "174845.712500", "174847.202500", "174848.692500", "174850.182500", "174851.672500", "174853.162500", "174854.652500", "174856.142500", "174857.632500", "174859.122500", "174900.612500", "174902.102500", "174903.592500", "174905.082500", "174906.572500", "174908.062500", "174909.552500", "174911.042500", "174912.532500", "174914.022500", "174915.512500", "174917.002500", "174918.492500", "174919.982500", "174921.472500", "174922.962500", "174924.452500", "174925.942500", "174927.432500", "174928.922500", "174930.412500", "174931.902500", "174933.392500", "174934.882500", "174936.372500", "174937.862500", "174939.352500", "174940.842500", "174942.332500", "174943.822500", "174945.312500", "174946.802500", "174948.292500", "174949.782500", "174951.272500", "174952.762500", "174954.252500", "174955.742500", "174957.232500", "174958.722500", "175000.212500", "175001.702500", "175003.192500", "175004.682500", "175006.172500", "175007.662500", "175009.152500", "175010.642500", "175012.132500", "175013.622500", "175015.112500", "175016.602500", "175018.092500", "175019.582500", "175021.072500", "175022.562500", "175024.052500", "175025.542500", "175027.032500", "175028.522500", "175030.012500", "175031.502500", "175032.992500", "175034.482500", "175035.972500", "175037.462500", "175038.952500", "175040.442500", "175041.932500", "175043.422500", "175044.912500", "175046.402500", "175047.892500", "175049.382500", "175050.872500", "175052.362500", "175053.852500", "175055.342500", "175056.832500", "175058.322500", "175059.812500", "175101.302500", "175102.792500", "175104.282500", "175105.772500", "175107.262500", "175108.752500", "175110.242500", "175111.732500", "175113.222500", "175114.712500", "175116.202500", "175117.692500", "175119.182500", "175120.672500", "175122.162500", "175123.652500", "175125.142500", "175126.632500", "175128.122500", "175129.612500", "175131.102500", "175132.592500", "175134.082500", "175135.572500", "175137.062500", "175138.552500", "175140.042500", "175141.532500", "175143.022500", "175144.512500", "175146.002500", "175147.492500", "175148.982500", "175150.472500", "175151.962500", "175153.452500", "175154.942500", "175156.432500", "175157.922500", "175159.412500", "175200.902500", "175202.392500", "175203.882500", "175205.372500", "175206.862500", "175208.352500", "175209.842500", "175211.332500", "175212.822500", "175214.312500", "175215.802500", "175217.292500", "175218.782500", "175220.272500", "175221.762500", "175223.252500", "175224.742500", "175226.232500", "175227.722500", "175229.212500", "175230.702500", "175232.192500", "175233.682500", "175235.172500", "175236.662500", "175238.152500", "175239.642500", "175241.132500", "175242.622500", "175244.112500", "175245.602500", "175247.092500", "175248.582500", "175250.072500", "175251.562500", "175253.052500", "175254.542500", "175256.032500", "175257.522500", "175259.012500", "175300.502500", "175301.992500", "175303.482500", "175304.972500", "175306.462500", "175307.952500", "175309.442500", "175310.932500", "175312.422500", "175313.912500", "175315.402500", "175316.892500", "175318.382500", "175319.872500", "175321.362500", "175322.852500", "175324.342500", "175325.832500", "175327.322500", "175328.812500", "175330.302500", "175331.792500", "175333.282500", "175334.772500", "175336.262500", "175337.752500", "175339.242500", "175340.732500", "175342.222500", "175343.712500", "175345.202500", "175346.692500", "175348.182500", "175349.672500", "175351.162500", "175352.652500", "175354.142500", "175355.632500", "175357.122500", "175358.612500", "175400.102500", "175401.592500", "175403.082500", "175404.572500", "175406.062500", "175407.552500", "175409.042500", "175410.532500", "175412.022500", "175413.512500", "175415.002500", "175416.492500", "175417.982500", "175419.472500", "175420.962500", "175422.452500", "175423.942500", "175425.432500", "175426.922500", "175428.412500", "175429.902500", "175431.392500", "175432.882500", "175434.372500", "175435.862500", "175437.352500", "175438.842500", "175440.332500", "175441.822500", "175443.312500", "175444.802500", "175446.292500", "175447.782500", "175449.272500", "175450.762500", "175452.252500", "175453.742500", "175455.232500", "175456.722500", "175458.212500", "175459.702500", "175501.192500", "175502.682500", "175504.172500", "175505.662500", "175507.152500", "175508.642500", "175510.132500", "175511.622500", "175513.112500", "175514.602500", "175516.092500", "175517.582500", "175519.072500", "175520.562500", "175522.052500", "175523.542500", "175525.032500", "175526.522500", "175528.012500", "175529.502500", "175530.992500", "175532.482500", "175533.972500", "175535.462500", "175536.952500", "175538.442500", "175539.932500", "175541.422500", "175542.912500", "175544.402500", "175545.892500", "175547.382500"],
      "ContentTime": ["174546.645000", "174546.648000", "174546.651000", "174546.653000", "174546.656000", "174546.658000", "174546.661000", "174546.663000", "174546.666000", "174546.668000", "174546.671000", "174546.673000", "174546.676000", "174546.678000", "174546.681000", "174546.683000", "174546.686000", "174546.688000", "174546.691000", "174546.694000", "174546.696000", "174546.699000", "174546.701000", "174546.709000", "174546.712000", "174546.714000", "174546.717000", "174546.719000", "174546.722000", "174546.724000", "174546.727000", "174546.734000", "174546.736000", "174606.564000", "174606.566000", "174606.569000", "174606.571000", "174606.574000", "174606.576000", "174606.579000", "174606.581000", "174606.585000", "174606.588000", "174606.590000", "174606.593000", "174606.595000", "174606.598000", "174606.604000", "174606.606000", "174606.609000", "174606.611000", "174606.614000", "174606.617000", "174626.557000", "174626.560000", "174626.562000", "174626.565000", "174626.567000", "174626.570000", "174626.572000", "174626.575000", "174626.577000", "174626.580000", "174626.583000", "174626.585000", "174626.588000", "174626.590000", "174626.593000", "174626.595000", "174626.598000", "174626.600000", "174626.603000", "174626.605000", "174646.550000", "174646.553000", "174646.556000", "174646.558000", "174646.561000", "174646.563000", "174646.566000", "174646.569000", "174646.571000", "174646.574000", "174646.576000", "174646.579000", "174646.581000", "174646.584000", "174646.586000", "174646.589000", "174646.591000", "174646.594000", "174646.596000", "174646.599000", "174726.592000", "174726.595000", "174726.598000", "174726.600000", "174726.603000", "174726.605000", "174726.609000", "174726.611000", "174726.614000", "174726.616000", "174726.619000", "174726.621000", "174726.624000", "174726.627000", "174726.629000", "174726.632000", "174726.634000", "174726.637000", "174726.639000", "174726.642000", "174726.644000", "174726.647000", "174726.649000", "174726.652000", "174726.654000", "174726.657000", "174726.659000", "174726.662000", "174806.588000", "174806.591000", "174806.594000", "174806.596000", "174806.599000", "174806.601000", "174806.604000", "174806.606000", "174806.609000", "174806.611000", "174806.614000", "174806.616000", "174806.619000", "174806.622000", "174806.624000", "174806.627000", "174806.629000", "174806.632000", "174806.634000", "174806.637000", "174806.639000", "174806.642000", "174806.644000", "174806.647000", "174806.649000", "174806.652000", "174806.654000", "174846.585000", "174846.588000", "174846.591000", "174846.594000", "174846.596000", "174846.599000", "174846.602000", "174846.604000", "174846.607000", "174846.609000", "174846.612000", "174846.614000", "174846.617000", "174846.620000", "174846.622000", "174846.625000", "174846.627000", "174846.630000", "174846.632000", "174846.635000", "174846.637000", "174846.640000", "174846.642000", "174846.645000", "174846.647000", "174846.650000", "174846.653000", "174906.538000", "174906.540000", "174906.543000", "174906.546000", "174906.548000", "174906.551000", "174906.553000", "174906.556000", "174906.558000", "174906.561000", "174906.563000", "174906.566000", "174906.568000", "174946.574000", "174946.577000", "174946.579000", "174946.582000", "174946.585000", "174946.587000", "174946.590000", "174946.592000", "174946.595000", "174946.597000", "174946.600000", "174946.602000", "174946.605000", "174946.607000", "174946.610000", "174946.613000", "174946.615000", "174946.618000", "174946.621000", "174946.623000", "174946.626000", "174946.629000", "174946.631000", "174946.634000", "174946.636000", "174946.639000", "174946.642000", "175026.593000", "175026.596000", "175026.599000", "175026.601000", "175026.604000", "175026.606000", "175026.609000", "175026.611000", "175026.614000", "175026.617000", "175026.619000", "175026.622000", "175026.624000", "175026.627000", "175026.629000", "175026.632000", "175026.634000", "175026.637000", "175026.640000", "175026.642000", "175026.645000", "175026.647000", "175026.650000", "175026.652000", "175026.655000", "175026.657000", "175026.660000", "175106.591000", "175106.594000", "175106.596000", "175106.599000", "175106.601000", "175106.604000", "175106.607000", "175106.609000", "175106.612000", "175106.614000", "175106.617000", "175106.619000", "175106.622000", "175106.624000", "175106.627000", "175106.629000", "175106.632000", "175106.634000", "175106.637000", "175106.640000", "175106.642000", "175106.645000", "175106.647000", "175106.650000", "175106.652000", "175106.655000", "175106.657000", "175146.581000", "175146.584000", "175146.594000", "175146.597000", "175146.599000", "175146.602000", "175146.605000", "175146.607000", "175146.610000", "175146.612000", "175146.615000", "175146.618000", "175146.620000", "175146.623000", "175146.625000", "175146.628000", "175146.631000", "175146.633000", "175146.636000", "175146.638000", "175146.641000", "175146.643000", "175146.646000", "175146.649000", "175146.651000", "175146.654000", "175226.590000", "175226.592000", "175226.613000", "175226.615000", "175226.618000", "175226.620000", "175226.623000", "175226.625000", "175226.628000", "175226.631000", "175226.633000", "175226.636000", "175226.638000", "175226.641000", "175226.643000", "175226.646000", "175226.649000", "175226.651000", "175226.654000", "175226.656000", "175226.659000", "175226.662000", "175226.664000", "175226.667000", "175226.669000", "175226.672000", "175226.674000", "175306.599000", "175306.601000", "175306.604000", "175306.607000", "175306.609000", "175306.612000", "175306.614000", "175306.617000", "175306.619000", "175306.622000", "175306.624000", "175306.627000", "175306.630000", "175306.632000", "175306.635000", "175306.637000", "175306.640000", "175306.642000", "175306.645000", "175306.647000", "175306.650000", "175306.652000", "175306.655000", "175306.658000", "175306.660000", "175306.663000", "175306.665000", "175346.589000", "175346.592000", "175346.595000", "175346.597000", "175346.600000", "175346.603000", "175346.605000", "175346.608000", "175346.610000", "175346.613000", "175346.615000", "175346.618000", "175346.620000", "175346.623000", "175346.625000", "175346.628000", "175346.631000", "175346.633000", "175346.636000", "175346.638000", "175346.641000", "175346.643000", "175346.646000", "175346.648000", "175346.651000", "175346.653000", "175346.656000", "175426.579000", "175426.582000", "175426.584000", "175426.587000", "175426.589000", "175426.592000", "175426.595000", "175426.597000", "175426.600000", "175426.602000", "175426.605000", "175426.607000", "175426.610000", "175426.612000", "175426.615000", "175426.618000", "175426.620000", "175426.623000", "175426.625000", "175426.628000", "175426.630000", "175426.633000", "175426.636000", "175426.638000", "175426.641000", "175426.643000", "175426.646000", "175506.576000", "175506.579000", "175506.581000", "175506.584000", "175506.586000", "175506.589000", "175506.592000", "175506.594000", "175506.597000", "175506.599000", "175506.602000", "175506.604000", "175506.607000", "175506.609000", "175506.612000", "175506.614000", "175506.617000", "175506.620000", "175506.622000", "175506.625000", "175506.627000", "175506.630000", "175506.632000", "175506.635000", "175506.638000", "175506.640000", "175506.643000", "175546.580000", "175546.582000", "175546.585000", "175546.588000", "175546.590000", "175546.593000", "175546.595000", "175546.598000", "175546.600000", "175546.603000", "175546.605000", "175546.608000", "175546.611000", "175546.613000", "175546.616000", "175546.618000", "175546.621000", "175546.623000", "175546.626000", "175546.628000", "175546.631000", "175546.634000", "175546.636000", "175546.639000", "175546.641000", "175546.644000", "175546.646000", "175549.973000", "175549.976000"],
