{
  "AcquisitionMatrixPE": 104,
  "AcquisitionNumber": 1,
  "AcquisitionTime": "15:32:41.887500",
  "BandwidthPerPixelPhaseEncode": 17.17,
  "BaseResolution": 104,
  "BodyPartExamined": "BRAIN",
  "CoilString": "HC1-7;NC1_2",
  "ConsistencyInfo": "N4_VE11C_LATEST_20160120",
  "ConversionSoftware": "dcm2niix",
  "ConversionSoftwareVersion": "v1.0.20190902",
  "DerivedVendorReportedEchoSpacing": 0.000560011,
  "DeviceSerialNumber": "167006",
  "DwellTime": 2.1e-06,
  "EchoTime": 0.037,
  "EchoTrainLength": 104,
  "EffectiveEchoSpacing": 0.000560011,
  "FlipAngle": 52,
  "HeudiconvVersion": "0.10.0",
  "ImageComments": "Unaliased_MB4_PE3_LB",
  "ImageOrientationPatientDICOM": [0.998571, -0.0455506, 0.0279382, 0.0523329, 0.93933, -0.338998],
  "ImageType": [
    "ORIGINAL",
    "PRIMARY",
    "P",
    "MB",
    "ND",
    "MOSAIC"
],
  "ImagingFrequency": 123.259,
  "InPlanePhaseEncodingDirectionDICOM": "COL",
  "InstitutionAddress": "Chemin_Queen-Mary_4565_Montreal_District_CA_H3W_1W5",
  "InstitutionName": "IUGM",
  "InstitutionalDepartmentName": "Department",
  "MRAcquisitionType": "2D",
  "MagneticFieldStrength": 3,
  "Manufacturer": "Siemens",
  "ManufacturersModelName": "Prisma_fit",
  "Modality": "MR",
  "MultibandAccelerationFactor": 4,
  "PartialFourier": 1,
  "PatientPosition": "HFS",
  "PercentPhaseFOV": 100,
  "PhaseEncodingDirection": "j",
  "PhaseEncodingSteps": 104,
  "PhaseResolution": 1,
  "PixelBandwidth": 2290,
  "ProcedureStepDescription": "games_mario",
  "ProtocolName": "func_task-mario_run-01",
  "PulseSequenceDetails": "%CustomerSeq%_cmrr_mbep2d_bold",
  "ReceiveCoilActiveElements": "HC1-7;NC1,2",
  "ReceiveCoilName": "HeadNeck_64",
  "ReconMatrixPE": 104,
  "RepetitionTime": 1.49,
  "SAR": 0.0666972,
  "ScanOptions": "FS",
  "ScanningSequence": "EP",
  "SequenceName": "epfid2d1_104",
  "SequenceVariant": "SK_SS",
  "SeriesDescription": "func_task-mario_run-01",
  "SeriesNumber": 11,
  "ShimSetting": [631, -7249, -8825, 586, 9, -202, -71, -1],
  "SliceThickness": 2,
  "SliceTiming": [0, 0.7825, 0.0975, 0.88, 0.195, 0.98, 0.2925, 1.0775, 0.39, 1.175, 0.49, 1.2725, 0.5875, 1.37, 0.685, 0, 0.7825, 0.0975, 0.88, 0.195, 0.98, 0.2925, 1.0775, 0.39, 1.175, 0.49, 1.2725, 0.5875, 1.37, 0.685, 0, 0.7825, 0.0975, 0.88, 0.195, 0.98, 0.2925, 1.0775, 0.39, 1.175, 0.49, 1.2725, 0.5875, 1.37, 0.685, 0, 0.7825, 0.0975, 0.88, 0.195, 0.98, 0.2925, 1.0775, 0.39, 1.175, 0.49, 1.2725, 0.5875, 1.37, 0.685],
  "SoftwareVersions": "syngo_MR_E11",
  "SpacingBetweenSlices": 2,
  "StationName": "MRC35049",
  "TaskName": "mario",
  "TotalReadoutTime": 0.0576811,
  "TxRefAmp": 304.84,
  "WipMemBlock": "7b2e8c4f-cf6d-479f-ac9f-a47a1e794dca||Sequence: R016 ve11c/master r/e634e98; Dec 19 2017 11:00:25 by eja",
  "dcmmeta_affine": [
    [-1.9971425533294678, 0.10466570407152176, 0.021603282541036606, 100.76628112792969],
    [0.09110124409198761, 1.878660798072815, -0.679951548576355, -69.90733337402344],
    [0.05587642639875412, 0.677996039390564, 1.8807443380355835, -68.94155883789062],
    [0.0, 0.0, 0.0, 1.0]
],
  "dcmmeta_reorient_transform": [
    [0.0, -1.0, 0.0, 103.0],
    [1.0, 0.0, 0.0, 0.0],
    [0.0, 0.0, 1.0, 0.0],
    [0.0, 0.0, 0.0, 1.0]
],
  "dcmmeta_shape": [104, 104, 60, 422],
  "dcmmeta_slice_dim": 2,
  "dcmmeta_version": 0.6,
  "global": {
    "const": {
      "AcquisitionMatrix": [104, 0, 0, 104],
      "AngioFlag": "N",
      "BitsAllocated": 16,
      "BitsStored": 16,
      "BodyPartExamined": "BRAIN",
      "Columns": 832,
      "EchoNumbers": 1,
      "EchoTime": 37.0,
      "EchoTrainLength": 104,
      "FlipAngle": 52.0,
      "HighBit": 15,
      "ImageOrientationPatient": [0.9985712779099, -0.0455506226938, 0.02793821228339, 0.05233285281436, 0.93933040537533, -0.3389980266222],
      "ImagePositionPatient": [-876.60505677753, -774.26640936375, 227.3435784266],
      "ImageType": [
        "ORIGINAL",
        "PRIMARY",
        "P",
        "MB",
        "ND",
        "MOSAIC"
],
      "ImagedNucleus": "1H",
      "ImagingFrequency": 123.258888,
      "InPlanePhaseEncodingDirection": "COL",
      "LargestImagePixelValue": 4095,
      "MRAcquisitionType": "2D",
      "MagneticFieldStrength": 3.0,
      "Manufacturer": "SIEMENS",
      "ManufacturerModelName": "Prisma_fit",
      "Modality": "MR",
      "NumberOfAverages": 1.0,
      "NumberOfPhaseEncodingSteps": 104,
      "PercentPhaseFieldOfView": 100.0,
      "PercentSampling": 100.0,
      "PerformedProcedureStepStartTime": "151114.113000",
      "PhotometricInterpretation": "MONOCHROME2",
      "PixelBandwidth": 2290.0,
      "PixelRepresentation": 0,
      "PixelSpacing": [2.0, 2.0],
      "ProtocolName": "func_task-mario_run-01",
      "RepetitionTime": 1490.0,
      "RescaleIntercept": -4096.0,
      "RescaleSlope": 2.0,
      "RescaleType": "US",
      "Rows": 832,
      "SAR": 0.06669719515007,
      "SamplesPerPixel": 1,
      "ScanOptions": "FS",
      "ScanningSequence": "EP",
      "SequenceName": "epfid2d1_104",
      "SequenceVariant": [
        "SK",
        "SS"
],
      "SeriesDescription": "func_task-mario_run-01",
      "SeriesNumber": 11,
      "SeriesTime": "153357.799000",
      "SliceLocation": -39.975481206064,
      "SliceThickness": 2.0,
      "SmallestImagePixelValue": 0,
      "SoftwareVersions": "syngo MR E11",
      "SpacingBetweenSlices": 2.0000000340795,
      "SpecificCharacterSet": "ISO_IR 100",
      "StudyID": "1",
      "StudyTime": "151114.041000",
      "TransmitCoilName": "Body",
      "VariableFlipAngleFlag": "N",
      "WindowCenterWidthExplanation": "Algo1",
      "dBdt": 0.0},
    "slices": {}
  },
  "time": {
    "samples": {
      "AcquisitionNumber": [1, 2, 3, 4, 5, 6, 7, 8, 9, 10, 11, 12, 13, 14, 15, 16, 17, 18, 19, 20, 21, 22, 23, 24, 25, 26, 27, 28, 29, 30, 31, 32, 33, 34, 35, 36, 37, 38, 39, 40, 41, 42, 43, 44, 45, 46, 47, 48, 49, 50, 51, 52, 53, 54, 55, 56, 57, 58, 59, 60, 61, 62, 63, 64, 65, 66, 67, 68, 69, 70, 71, 72, 73, 74, 75, 76, 77, 78, 79, 80, 81, 82, 83, 84, 85, 86, 87, 88, 89, 90, 91, 92, 93, 94, 95, 96, 97, 98, 99, 100, 101, 102, 103, 104, 105, 106, 107, 108, 109, 110, 111, 112, 113, 114, 115, 116, 117, 118, 119, 120, 121, 122, 123, 124, 125, 126, 127, 128, 129, 130, 131, 132, 133, 134, 135, 136, 137, 138, 139, 140, 141, 142, 143, 144, 145, 146, 147, 148, 149, 150, 151, 152, 153, 154, 155, 156, 157, 158, 159, 160, 161, 162, 163, 164, 165, 166, 167, 168, 169, 170, 171, 172, 173, 174, 175, 176, 177, 178, 179, 180, 181, 182, 183, 184, 185, 186, 187, 188, 189, 190, 191, 192, 193, 194, 195, 196, 197, 198, 199, 200, 201, 202, 203, 204, 205, 206, 207, 208, 209, 210, 211, 212, 213, 214, 215, 216, 217, 218, 219, 220, 221, 222, 223, 224, 225, 226, 227, 228, 229, 230, 231, 232, 233, 234, 235, 236, 237, 238, 239, 240, 241, 242, 243, 244, 245, 246, 247, 248, 249, 250, 251, 252, 253, 254, 255, 256, 257, 258, 259, 260, 261, 262, 263, 264, 265, 266, 267, 268, 269, 270, 271, 272, 273, 274, 275, 276, 277, 278, 279, 280, 281, 282, 283, 284, 285, 286, 287, 288, 289, 290, 291, 292, 293, 294, 295, 296, 297, 298, 299, 300, 301, 302, 303, 304, 305, 306, 307, 308, 309, 310, 311, 312, 313, 314, 315, 316, 317, 318, 319, 320, 321, 322, 323, 324, 325, 326, 327, 328, 329, 330, 331, 332, 333, 334, 335, 336, 337, 338, 339, 340, 341, 342, 343, 344, 345, 346, 347, 348, 349, 350, 351, 352, 353, 354, 355, 356, 357, 358, 359, 360, 361, 362, 363, 364, 365, 366, 367, 368, 369, 370, 371, 372, 373, 374, 375, 376, 377, 378, 379, 380, 381, 382, 383, 384, 385, 386, 387, 388, 389, 390, 391, 392, 393, 394, 395, 396, 397, 398, 399, 400, 401, 402, 403, 404, 405, 406, 407, 408, 409, 410, 411, 412, 413, 414, 415, 416, 417, 418, 419, 420, 421, 422],
      "AcquisitionTime": ["153241.887500", "153243.377500", "153244.867500", "153246.357500", "153247.847500", "153249.337500", "153250.827500", "153252.317500", "153253.807500", "153255.297500", "153256.787500", "153258.277500", "153259.767500", "153301.257500", "153302.747500", "153304.237500", "153305.727500", "153307.217500", "153308.707500", "153310.197500", "153311.687500", "153313.177500", "153314.667500", "153316.157500", "153317.647500", "153319.137500", "153320.627500", "153322.117500", "153323.607500", "153325.097500", "153326.587500", "153328.077500", "153329.567500", "153331.057500", "153332.547500", "153334.037500", "153335.527500", "153337.017500", "153338.507500", "153339.997500", "153341.487500", "153342.977500", "153344.467500", "153345.957500", "153347.447500", "153348.937500", "153350.427500", "153351.917500", "153353.407500", "153354.897500", "153356.387500", "153357.877500", "153359.367500", "153400.857500", "153402.347500", "153403.837500", "153405.327500", "153406.817500", "153408.307500", "153409.797500", "153411.287500", "153412.777500", "153414.267500", "153415.757500", "153417.247500", "153418.737500", "153420.227500", "153421.717500", "153423.207500", "153424.697500", "153426.187500", "153427.677500", "153429.167500", "153430.657500", "153432.147500", "153433.637500", "153435.127500", "153436.617500", "153438.107500", "153439.597500", "153441.087500", "153442.577500", "153444.067500", "153445.557500", "153447.047500", "153448.537500", "153450.027500", "153451.517500", "153453.007500", "153454.497500", "153455.987500", "153457.477500", "153458.967500", "153500.457500", "153501.947500", "153503.437500", "153504.927500", "153506.417500", "153507.907500", "153509.397500", "153510.887500", "153512.377500", "153513.867500", "153515.357500", "153516.847500", "153518.337500", "153519.827500", "153521.317500", "153522.807500", "153524.297500", "153525.787500", "153527.277500", "153528.767500", "153530.257500", "153531.747500", "153533.237500", "153534.727500", "153536.217500", "153537.707500", "153539.197500", "153540.687500", "153542.177500", "153543.667500", "153545.157500", "153546.647500", "153548.137500", "153549.627500", "153551.117500", "153552.607500", "153554.097500", "153555.587500", "153557.077500", "153558.567500", "153600.057500", "153601.547500", "153603.037500", "153604.527500", "153606.017500", "153607.507500", "153608.997500", "153610.487500", "153611.977500", "153613.467500", "153614.957500", "153616.447500", "153617.937500", "153619.427500", "153620.917500", "153622.407500", "153623.897500", "153625.387500", "153626.877500", "153628.367500", "153629.857500", "153631.347500", "153632.837500", "153634.327500", "153635.817500", "153637.307500", "153638.797500", "153640.287500", "153641.777500", "153643.267500", "153644.757500", "153646.247500", "153647.737500", "153649.227500", "153650.717500", "153652.207500", "153653.697500", "153655.187500", "153656.677500", "153658.167500", "153659.657500", "153701.147500", "153702.637500", "153704.127500", "153705.617500", "153707.107500", "153708.597500", "153710.087500", "153711.577500", "153713.067500", "153714.557500", "153716.047500", "153717.537500", "153719.027500", "153720.517500", "153722.007500", "153723.497500", "153724.987500", "153726.477500", "153727.967500", "153729.457500", "153730.947500", "153732.437500", "153733.927500", "153735.417500", "153736.907500", "153738.397500", "153739.887500", "153741.377500", "153742.867500", "153744.357500", "153745.847500", "153747.337500", "153748.827500", "153750.317500", "153751.807500", "153753.297500", "153754.787500", "153756.277500", "153757.767500", "153759.257500", "153800.747500", "153802.237500", "153803.727500", "153805.217500", "153806.707500", "153808.197500", "153809.687500", "153811.177500", "153812.667500", "153814.157500", "153815.647500", "153817.137500", "153818.627500", "153820.117500", "153821.607500", "153823.097500", "153824.587500", "153826.077500", "153827.567500", "153829.057500", "153830.547500", "153832.037500", "153833.527500", "153835.017500", "153836.507500", "153837.997500", "153839.487500", "153840.977500", "153842.467500", "153843.957500", "153845.447500", "153846.937500", "153848.427500", "153849.917500", "153851.407500", "153852.897500", "153854.387500", "153855.877500", "153857.367500", "153858.857500", "153900.347500", "153901.837500", "153903.327500", "153904.817500", "153906.307500", "153907.797500", "153909.287500", "153910.777500", "153912.267500", "153913.757500", "153915.247500", "153916.737500", "153918.227500", "153919.717500", "153921.207500", "153922.697500", "153924.187500", "153925.677500", "153927.167500", "153928.657500", "153930.147500", "153931.637500", "153933.127500", "153934.617500", "153936.107500", "153937.597500", "153939.087500", "153940.577500", "153942.067500", "153943.557500", "153945.047500", "153946.537500", "153948.027500", "153949.517500", "153951.007500", "153952.497500", "153953.987500", "153955.477500", "153956.967500", "153958.457500", "153959.947500", "154001.437500", "154002.927500", "154004.417500", "154005.907500", "154007.397500", "154008.887500", "154010.377500", "154011.867500", "154013.357500", "154014.847500", "154016.337500", "154017.827500", "154019.317500", "154020.807500", "154022.297500", "154023.787500", "154025.277500", "154026.767500", "154028.257500", "154029.747500", "154031.237500", "154032.727500", "154034.217500", "154035.707500", "154037.197500", "154038.687500", "154040.177500", "154041.667500", "154043.157500", "154044.647500", "154046.137500", "154047.627500", "154049.117500", "154050.607500", "154052.097500", "154053.587500", "154055.077500", "154056.567500", "154058.057500", "154059.547500", "154101.037500", "154102.527500", "154104.017500", "154105.507500", "154106.997500", "154108.487500", "154109.977500", "154111.467500", "154112.957500", "154114.447500", "154115.937500", "154117.427500", "154118.917500", "154120.407500", "154121.897500", "154123.387500", "154124.877500", "154126.367500", "154127.857500", "154129.347500", "154130.837500", "154132.327500", "154133.817500", "154135.307500", "154136.797500", "154138.287500", "154139.777500", "154141.267500", "154142.757500", "154144.247500", "154145.737500", "154147.227500", "154148.717500", "154150.207500", "154151.697500", "154153.187500", "154154.677500", "154156.167500", "154157.657500", "154159.147500", "154200.637500", "154202.127500", "154203.617500", "154205.107500", "154206.597500", "154208.087500", "154209.577500", "154211.067500", "154212.557500", "154214.047500", "154215.537500", "154217.027500", "154218.517500", "154220.007500", "154221.497500", "154222.987500", "154224.477500", "154225.967500", "154227.457500", "154228.947500", "154230.437500", "154231.927500", "154233.417500", "154234.907500", "154236.397500", "154237.887500", "154239.377500", "154240.867500", "154242.357500", "154243.847500", "154245.337500", "154246.827500", "154248.317500", "154249.807500", "154251.297500", "154252.787500", "154254.277500", "154255.767500", "154257.257500", "154258.747500", "154300.237500", "154301.727500", "154303.217500", "154304.707500", "154306.197500", "154307.687500", "154309.177500"],
      "ContentTime": ["153357.801000", "153357.804000", "153357.807000", "153357.809000", "153357.812000", "153357.814000", "153357.823000", "153357.825000", "153357.828000", "153357.830000", "153357.833000", "153357.835000", "153357.838000", "153357.840000", "153357.851000", "153357.853000", "153357.856000", "153357.858000", "153357.861000", "153357.863000", "153357.866000", "153357.868000", "153357.871000", "153417.753000", "153417.756000", "153417.763000", "153417.765000", "153417.768000", "153417.771000", "153417.773000", "153417.776000", "153417.779000", "153417.781000", "153417.784000", "153417.787000", "153417.789000", "153417.792000", "153417.794000", "153417.797000", "153417.799000", "153417.802000", "153417.804000", "153417.807000", "153437.769000", "153437.772000", "153437.774000", "153437.777000", "153437.779000", "153437.782000", "153437.784000", "153437.787000", "153437.789000", "153437.792000", "153437.794000", "153437.797000", "153437.799000", "153437.802000", "153437.805000", "153437.807000", "153437.810000", "153437.812000", "153437.815000", "153437.817000", "153457.757000", "153457.759000", "153457.762000", "153457.765000", "153457.767000", "153457.770000", "153457.772000", "153457.775000", "153457.777000", "153457.780000", "153457.782000", "153457.785000", "153457.787000", "153457.790000", "153457.792000", "153457.795000", "153457.798000", "153457.800000", "153457.803000", "153457.805000", "153457.808000", "153517.750000", "153517.753000", "153517.755000", "153517.758000", "153517.760000", "153517.766000", "153517.768000", "153517.771000", "153517.773000", "153517.776000", "153517.778000", "153517.781000", "153517.783000", "153517.786000", "153517.789000", "153517.791000", "153517.794000", "153517.796000", "153517.799000", "153517.801000", "153557.781000", "153557.784000", "153557.787000", "153557.789000", "153557.792000", "153557.794000", "153557.797000", "153557.799000", "153557.802000", "153557.804000", "153557.807000", "153557.810000", "153557.812000", "153557.819000", "153557.822000", "153557.824000", "153557.827000", "153557.829000", "153557.832000", "153557.835000", "153557.837000", "153557.840000", "153557.842000", "153557.845000", "153557.847000", "153557.850000", "153557.852000", "153638.422000", "153638.425000", "153638.428000", "153638.430000", "153638.433000", "153638.435000", "153638.438000", "153638.440000", "153638.443000", "153638.445000", "153638.448000", "153638.450000", "153638.453000", "153638.455000", "153638.458000", "153638.460000", "153638.463000", "153638.466000", "153638.468000", "153638.471000", "153638.473000", "153638.476000", "153638.478000", "153638.481000", "153638.483000", "153638.486000", "153638.488000", "153717.785000", "153717.788000", "153717.790000", "153717.793000", "153717.795000", "153717.798000", "153717.800000", "153717.803000", "153717.806000", "153717.808000", "153717.811000", "153717.813000", "153717.816000", "153717.818000", "153717.821000", "153717.824000", "153717.826000", "153717.829000", "153717.832000", "153717.834000", "153717.837000", "153717.839000", "153717.842000", "153717.844000", "153717.847000", "153717.850000", "153757.788000", "153757.790000", "153757.793000", "153757.795000", "153757.798000", "153757.801000", "153757.803000", "153757.806000", "153757.808000", "153757.811000", "153757.813000", "153757.816000", "153757.818000", "153757.821000", "153757.823000", "153757.826000", "153757.828000", "153757.836000", "153757.838000", "153757.841000", "153757.844000", "153757.846000", "153757.849000", "153757.851000", "153757.854000", "153757.856000", "153757.859000", "153817.729000", "153817.732000", "153817.734000", "153817.737000", "153817.739000", "153817.742000", "153817.745000", "153817.747000", "153817.750000", "153817.752000", "153817.755000", "153817.757000", "153817.760000", "153817.763000", "153857.817000", "153857.820000", "153857.822000", "153857.825000", "153857.827000", "153857.830000", "153857.832000", "153857.835000", "153857.837000", "153857.840000", "153857.842000", "153857.845000", "153857.848000", "153857.850000", "153857.853000", "153857.855000", "153857.858000", "153857.860000", "153857.863000", "153857.865000", "153857.868000", "153857.871000", "153857.873000", "153857.876000", "153857.878000", "153857.881000", "153937.790000", "153937.793000", "153937.796000", "153937.798000", "153937.801000", "153937.803000", "153937.806000", "153937.809000", "153937.811000", "153937.814000", "153937.816000", "153937.819000", "153937.821000", "153937.824000", "153937.826000", "153937.829000", "153937.832000", "153937.834000", "153937.837000", "153937.839000", "153937.842000", "153937.844000", "153937.847000", "153937.849000", "153937.852000", "153937.862000", "153937.865000", "154017.782000", "154017.785000", "154017.788000", "154017.790000", "154017.793000", "154017.795000", "154017.798000", "154017.800000", "154017.803000", "154017.806000", "154017.808000", "154017.811000", "154017.813000", "154017.816000", "154017.818000", "154017.821000", "154017.823000", "154017.826000", "154017.828000", "154017.831000", "154017.834000", "154017.842000", "154017.844000", "154017.847000", "154017.849000", "154017.852000", "154017.855000", "154057.790000", "154057.793000", "154057.796000", "154057.798000", "154057.801000", "154057.803000", "154057.806000", "154057.808000", "154057.811000", "154057.821000", "154057.823000", "154057.826000", "154057.829000", "154057.831000", "154057.834000", "154057.836000", "154057.848000", "154057.851000", "154057.854000", "154057.856000", "154057.859000", "154057.862000", "154057.864000", "154057.867000", "154057.869000", "154057.872000", "154057.874000", "154137.784000", "154137.787000", "154137.790000", "154137.792000", "154137.795000", "154137.797000", "154137.800000", "154137.803000", "154137.805000", "154137.808000", "154137.810000", "154137.813000", "154137.815000", "154137.818000", "154137.821000", "154137.823000", "154137.826000", "154137.828000", "154137.831000", "154137.833000", "154137.836000", "154137.838000", "154137.841000", "154137.844000", "154137.846000", "154137.849000", "154137.851000", "154217.782000", "154217.785000", "154217.787000", "154217.790000", "154217.793000", "154217.795000", "154217.798000", "154217.800000", "154217.803000", "154217.805000", "154217.808000", "154217.810000", "154217.813000", "154217.816000", "154217.818000", "154217.821000", "154217.823000", "154217.826000", "154217.828000", "154217.831000", "154217.833000", "154217.836000", "154217.838000", "154217.841000", "154217.843000", "154217.846000", "154217.849000", "154257.774000", "154257.777000", "154257.780000", "154257.782000", "154257.785000", "154257.787000", "154257.790000", "154257.792000", "154257.795000", "154257.798000", "154257.800000", "154257.803000", "154257.805000", "154257.808000", "154257.810000", "154257.813000", "154257.815000", "154257.818000", "154257.821000", "154257.830000", "154257.833000", "154257.835000", "154257.838000", "154257.841000", "154257.843000", "154257.846000", "154257.848000", "154312.034000", "154312.037000", "154312.039000", "154312.042000", "154312.044000", "154312.047000", "154312.050000", "154312.052000", "154312.055000"],
      "InstanceCreationTime": ["153357.801000", "153357.804000", "153357.807000", "153357.809000", "153357.812000", "153357.814000", "153357.823000", "153357.825000", "153357.828000", "153357.830000", "153357.833000", "153357.835000", "153357.838000", "153357.840000", "153357.851000", "153357.853000", "153357.856000", "153357.858000", "153357.861000", "153357.863000", "153357.866000", "153357.868000", "153357.871000", "153417.753000", "153417.756000", "153417.763000", "153417.765000", "153417.768000", "153417.771000", "153417.773000", "153417.776000", "153417.779000", "153417.781000", "153417.784000", "153417.787000", "153417.789000", "153417.792000", "153417.794000", "153417.797000", "153417.799000", "153417.802000", "153417.804000", "153417.807000", "153437.769000", "153437.772000", "153437.774000", "153437.777000", "153437.779000", "153437.782000", "153437.784000", "153437.787000", "153437.789000", "153437.792000", "153437.794000", "153437.797000", "153437.799000", "153437.802000", "153437.805000", "153437.807000", "153437.810000", "153437.812000", "153437.815000", "153437.817000", "153457.757000", "153457.759000", "153457.762000", "153457.765000", "153457.767000", "153457.770000", "153457.772000", "153457.775000", "153457.777000", "153457.780000", "153457.782000", "153457.785000", "153457.787000", "153457.790000", "153457.792000", "153457.795000", "153457.798000", "153457.800000", "153457.803000", "153457.805000", "153457.808000", "153517.750000", "153517.753000", "153517.755000", "153517.758000", "153517.760000", "153517.766000", "153517.768000", "153517.771000", "153517.773000", "153517.776000", "153517.778000", "153517.781000", "153517.783000", "153517.786000", "153517.789000", "153517.791000", "153517.794000", "153517.796000", "153517.799000", "153517.801000", "153557.781000", "153557.784000", "153557.787000", "153557.789000", "153557.792000", "153557.794000", "153557.797000", "153557.799000", "153557.802000", "153557.804000", "153557.807000", "153557.810000", "153557.812000", "153557.819000", "153557.822000", "153557.824000", "153557.827000", "153557.829000", "153557.832000", "153557.835000", "153557.837000", "153557.840000", "153557.842000", "153557.845000", "153557.847000", "153557.850000", "153557.852000", "153638.422000", "153638.425000", "153638.428000", "153638.430000", "153638.433000", "153638.435000", "153638.438000", "153638.440000", "153638.443000", "153638.445000", "153638.448000", "153638.450000", "153638.453000", "153638.455000", "153638.458000", "153638.460000", "153638.463000", "153638.466000", "153638.468000", "153638.471000", "153638.473000", "153638.476000", "153638.478000", "153638.481000", "153638.483000", "153638.486000", "153638.488000", "153717.785000", "153717.788000", "153717.790000", "153717.793000", "153717.795000", "153717.798000", "153717.800000", "153717.803000", "153717.806000", "153717.808000", "153717.811000", "153717.813000", "153717.816000", "153717.818000", "153717.821000", "153717.824000", "153717.826000", "153717.829000", "153717.832000", "153717.834000", "153717.837000", "153717.839000", "153717.842000", "153717.844000", "153717.847000", "153717.850000", "153757.788000", "153757.790000", "153757.793000", "153757.795000", "153757.798000", "153757.801000", "153757.803000", "153757.806000", "153757.808000", "153757.811000", "153757.813000", "153757.816000", "153757.818000", "153757.821000", "153757.823000", "153757.826000", "153757.828000", "153757.836000", "153757.838000", "153757.841000", "153757.844000", "153757.846000", "153757.849000", "153757.851000", "153757.854000", "153757.856000", "153757.859000", "153817.729000", "153817.732000", "153817.734000", "153817.737000", "153817.739000", "153817.742000", "153817.745000", "153817.747000", "153817.750000", "153817.752000", "153817.755000", "153817.757000", "153817.760000", "153817.763000", "153857.817000", "153857.820000", "153857.822000", "153857.825000", "153857.827000", "153857.830000", "153857.832000", "153857.835000", "153857.837000", "153857.840000", "153857.842000", "153857.845000", "153857.848000", "153857.850000", "153857.853000", "153857.855000", "153857.858000", "153857.860000", "153857.863000", "153857.865000", "153857.868000", "153857.871000", "153857.873000", "153857.876000", "153857.878000", "153857.881000", "153937.790000", "153937.793000", "153937.796000", "153937.798000", "153937.801000", "153937.803000", "153937.806000", "153937.809000", "153937.811000", "153937.814000", "153937.816000", "153937.819000", "153937.821000", "153937.824000", "153937.826000", "153937.829000", "153937.832000", "153937.834000", "153937.837000", "153937.839000", "153937.842000", "153937.844000", "153937.847000", "153937.849000", "153937.852000", "153937.862000", "153937.865000", "154017.782000", "154017.785000", "154017.788000", "154017.790000", "154017.793000", "154017.795000", "154017.798000", "154017.800000", "154017.803000", "154017.806000", "154017.808000", "154017.811000", "154017.813000", "154017.816000", "154017.818000", "154017.821000", "154017.823000", "154017.826000", "154017.828000", "154017.831000", "154017.834000", "154017.842000", "154017.844000", "154017.847000", "154017.849000", "154017.852000", "154017.855000", "154057.790000", "154057.793000", "154057.796000", "154057.798000", "154057.801000", "154057.803000", "154057.806000", "154057.808000", "154057.811000", "154057.821000", "154057.823000", "154057.826000", "154057.829000", "154057.831000", "154057.834000", "154057.836000", "154057.848000", "154057.851000", "154057.854000", "154057.856000", "154057.859000", "154057.862000", "154057.864000", "154057.867000", "154057.869000", "154057.872000", "154057.874000", "154137.784000", "154137.787000", "154137.790000", "154137.792000", "154137.795000", "154137.797000", "154137.800000", "154137.803000", "154137.805000", "154137.808000", "154137.810000", "154137.813000", "154137.815000", "154137.818000", "154137.821000", "154137.823000", "154137.826000", "154137.828000", "154137.831000", "154137.833000", "154137.836000", "154137.838000", "154137.841000", "154137.844000", "154137.846000", "154137.849000", "154137.851000", "154217.782000", "154217.785000", "154217.787000", "154217.790000", "154217.793000", "154217.795000", "154217.798000", "154217.800000", "154217.803000", "154217.805000", "154217.808000", "154217.810000", "154217.813000", "154217.816000", "154217.818000", "154217.821000", "154217.823000", "154217.826000", "154217.828000", "154217.831000", "154217.833000", "154217.836000", "154217.838000", "154217.841000", "154217.843000", "154217.846000", "154217.849000", "154257.774000", "154257.777000", "154257.780000", "154257.782000", "154257.785000", "154257.787000", "154257.790000", "154257.792000", "154257.795000", "154257.798000", "154257.800000", "154257.803000", "154257.805000", "154257.808000", "154257.810000", "154257.813000", "154257.815000", "154257.818000", "154257.821000", "154257.830000", "154257.833000", "154257.835000", "154257.838000", "154257.841000", "154257.843000", "154257.846000", "154257.848000", "154312.034000", "154312.037000", "154312.039000", "154312.042000", "154312.044000", "154312.047000", "154312.050000", "154312.052000", "154312.055000"],
