{
  "AcquisitionMatrixPE": 104,
  "AcquisitionNumber": 1,
  "AcquisitionTime": "16:13:20.975000",
  "BandwidthPerPixelPhaseEncode": 17.17,
  "BaseResolution": 104,
  "BodyPartExamined": "BRAIN",
  "CoilString": "HC1-7;NC1_2",
  "ConsistencyInfo": "N4_VE11C_LATEST_20160120",
  "ConversionSoftware": "dcm2niix",
  "ConversionSoftwareVersion": "v1.0.20190902",
  "DerivedVendorReportedEchoSpacing": 0.000560011,
  "DeviceSerialNumber": "167006",
  "DwellTime": 2.1e-06,
  "EchoTime": 0.037,
  "EchoTrainLength": 104,
  "EffectiveEchoSpacing": 0.000560011,
  "FlipAngle": 52,
  "HeudiconvVersion": "0.10.0",
  "ImageComments": "Unaliased_MB4_PE3_LB",
  "ImageOrientationPatientDICOM": [0.998571, -0.0455506, 0.0279382, 0.0523329, 0.93933, -0.338998],
  "ImageType": [
    "ORIGINAL",
    "PRIMARY",
    "M",
    "MB",
    "ND",
    "MOSAIC"
],
  "ImagingFrequency": 123.259,
  "InPlanePhaseEncodingDirectionDICOM": "COL",
  "InstitutionAddress": "Chemin_Queen-Mary_4565_Montreal_District_CA_H3W_1W5",
  "InstitutionName": "IUGM",
  "InstitutionalDepartmentName": "Department",
  "MRAcquisitionType": "2D",
  "MagneticFieldStrength": 3,
  "Manufacturer": "Siemens",
  "ManufacturersModelName": "Prisma_fit",
  "Modality": "MR",
  "MultibandAccelerationFactor": 4,
  "PartialFourier": 1,
  "PatientPosition": "HFS",
  "PercentPhaseFOV": 100,
  "PhaseEncodingDirection": "j",
  "PhaseEncodingSteps": 104,
  "PhaseResolution": 1,
  "PixelBandwidth": 2290,
  "ProcedureStepDescription": "games_mario",
  "ProtocolName": "func_task-mario_run-04",
  "PulseSequenceDetails": "%CustomerSeq%_cmrr_mbep2d_bold",
  "ReceiveCoilActiveElements": "HC1-7;NC1,2",
  "ReceiveCoilName": "HeadNeck_64",
  "ReconMatrixPE": 104,
  "RepetitionTime": 1.49,
  "SAR": 0.0666972,
  "ScanOptions": "FS",
  "ScanningSequence": "EP",
  "SequenceName": "epfid2d1_104",
  "SequenceVariant": "SK_SS",
  "SeriesDescription": "func_task-mario_run-04",
  "SeriesNumber": 19,
  "ShimSetting": [631, -7249, -8825, 586, 9, -202, -71, -1],
  "SliceThickness": 2,
  "SliceTiming": [0, 0.785, 0.0975, 0.8825, 0.195, 0.98, 0.295, 1.0775, 0.3925, 1.175, 0.49, 1.275, 0.5875, 1.3725, 0.685, 0, 0.785, 0.0975, 0.8825, 0.195, 0.98, 0.295, 1.0775, 0.3925, 1.175, 0.49, 1.275, 0.5875, 1.3725, 0.685, 0, 0.785, 0.0975, 0.8825, 0.195, 0.98, 0.295, 1.0775, 0.3925, 1.175, 0.49, 1.275, 0.5875, 1.3725, 0.685, 0, 0.785, 0.0975, 0.8825, 0.195, 0.98, 0.295, 1.0775, 0.3925, 1.175, 0.49, 1.275, 0.5875, 1.3725, 0.685],
  "SoftwareVersions": "syngo_MR_E11",
  "SpacingBetweenSlices": 2,
  "StationName": "MRC35049",
  "TaskName": "mario",
  "TotalReadoutTime": 0.0576811,
  "TxRefAmp": 304.84,
  "WipMemBlock": "372a7b6a-ea6d-4711-aa2d-b03dc358ab27||Sequence: R016 ve11c/master r/e634e98; Dec 19 2017 11:00:25 by eja",
  "dcmmeta_affine": [
    [-1.9971425533294678, 0.10466570407152176, 0.021603282541036606, 100.76628112792969],
    [0.09110124409198761, 1.878660798072815, -0.679951548576355, -69.90733337402344],
    [0.05587642639875412, 0.677996039390564, 1.8807443380355835, -68.94155883789062],
    [0.0, 0.0, 0.0, 1.0]
],
  "dcmmeta_reorient_transform": [
    [0.0, -1.0, 0.0, 103.0],
    [1.0, 0.0, 0.0, 0.0],
    [0.0, 0.0, 1.0, 0.0],
    [0.0, 0.0, 0.0, 1.0]
],
  "dcmmeta_shape": [104, 104, 60, 516],
  "dcmmeta_slice_dim": 2,
  "dcmmeta_version": 0.6,
  "global": {
    "const": {
      "AcquisitionMatrix": [104, 0, 0, 104],
      "AngioFlag": "N",
      "BitsAllocated": 16,
      "BitsStored": 16,
      "BodyPartExamined": "BRAIN",
      "Columns": 832,
      "EchoNumbers": 1,
      "EchoTime": 37.0,
      "EchoTrainLength": 104,
      "FlipAngle": 52.0,
      "HighBit": 15,
      "ImageOrientationPatient": [0.9985712779099, -0.0455506226938, 0.02793821228339, 0.05233285281436, 0.93933040537533, -0.3389980266222],
      "ImagePositionPatient": [-876.60505677753, -774.26640936375, 227.3435784266],
      "ImageType": [
        "ORIGINAL",
        "PRIMARY",
        "M",
        "MB",
        "ND",
        "MOSAIC"
],
      "ImagedNucleus": "1H",
      "ImagingFrequency": 123.258909,
      "InPlanePhaseEncodingDirection": "COL",
      "MRAcquisitionType": "2D",
      "MagneticFieldStrength": 3.0,
      "Manufacturer": "SIEMENS",
      "ManufacturerModelName": "Prisma_fit",
      "Modality": "MR",
      "NumberOfAverages": 1.0,
      "NumberOfPhaseEncodingSteps": 104,
      "PercentPhaseFieldOfView": 100.0,
      "PercentSampling": 100.0,
      "PerformedProcedureStepStartTime": "151114.113000",
      "PhotometricInterpretation": "MONOCHROME2",
      "PixelBandwidth": 2290.0,
      "PixelRepresentation": 0,
      "PixelSpacing": [2.0, 2.0],
      "ProtocolName": "func_task-mario_run-04",
      "RepetitionTime": 1490.0,
      "Rows": 832,
      "SAR": 0.06669719515007,
      "SamplesPerPixel": 1,
      "ScanOptions": "FS",
      "ScanningSequence": "EP",
      "SequenceName": "epfid2d1_104",
      "SequenceVariant": [
        "SK",
        "SS"
],
      "SeriesDescription": "func_task-mario_run-04",
      "SeriesNumber": 19,
      "SeriesTime": "161437.677000",
      "SliceLocation": -39.975481206064,
      "SliceThickness": 2.0,
      "SmallestImagePixelValue": 0,
      "SoftwareVersions": "syngo MR E11",
      "SpacingBetweenSlices": 2.0000000340795,
      "SpecificCharacterSet": "ISO_IR 100",
      "StudyID": "1",
      "StudyTime": "151114.041000",
      "TransmitCoilName": "Body",
      "VariableFlipAngleFlag": "N",
      "WindowCenterWidthExplanation": "Algo1",
      "dBdt": 0.0},
    "slices": {}
  },
  "time": {
    "samples": {
      "AcquisitionNumber": [1, 2, 3, 4, 5, 6, 7, 8, 9, 10, 11, 12, 13, 14, 15, 16, 17, 18, 19, 20, 21, 22, 23, 24, 25, 26, 27, 28, 29, 30, 31, 32, 33, 34, 35, 36, 37, 38, 39, 40, 41, 42, 43, 44, 45, 46, 47, 48, 49, 50, 51, 52, 53, 54, 55, 56, 57, 58, 59, 60, 61, 62, 63, 64, 65, 66, 67, 68, 69, 70, 71, 72, 73, 74, 75, 76, 77, 78, 79, 80, 81, 82, 83, 84, 85, 86, 87, 88, 89, 90, 91, 92, 93, 94, 95, 96, 97, 98, 99, 100, 101, 102, 103, 104, 105, 106, 107, 108, 109, 110, 111, 112, 113, 114, 115, 116, 117, 118, 119, 120, 121, 122, 123, 124, 125, 126, 127, 128, 129, 130, 131, 132, 133, 134, 135, 136, 137, 138, 139, 140, 141, 142, 143, 144, 145, 146, 147, 148, 149, 150, 151, 152, 153, 154, 155, 156, 157, 158, 159, 160, 161, 162, 163, 164, 165, 166, 167, 168, 169, 170, 171, 172, 173, 174, 175, 176, 177, 178, 179, 180, 181, 182, 183, 184, 185, 186, 187, 188, 189, 190, 191, 192, 193, 194, 195, 196, 197, 198, 199, 200, 201, 202, 203, 204, 205, 206, 207, 208, 209, 210, 211, 212, 213, 214, 215, 216, 217, 218, 219, 220, 221, 222, 223, 224, 225, 226, 227, 228, 229, 230, 231, 232, 233, 234, 235, 236, 237, 238, 239, 240, 241, 242, 243, 244, 245, 246, 247, 248, 249, 250, 251, 252, 253, 254, 255, 256, 257, 258, 259, 260, 261, 262, 263, 264, 265, 266, 267, 268, 269, 270, 271, 272, 273, 274, 275, 276, 277, 278, 279, 280, 281, 282, 283, 284, 285, 286, 287, 288, 289, 290, 291, 292, 293, 294, 295, 296, 297, 298, 299, 300, 301, 302, 303, 304, 305, 306, 307, 308, 309, 310, 311, 312, 313, 314, 315, 316, 317, 318, 319, 320, 321, 322, 323, 324, 325, 326, 327, 328, 329, 330, 331, 332, 333, 334, 335, 336, 337, 338, 339, 340, 341, 342, 343, 344, 345, 346, 347, 348, 349, 350, 351, 352, 353, 354, 355, 356, 357, 358, 359, 360, 361, 362, 363, 364, 365, 366, 367, 368, 369, 370, 371, 372, 373, 374, 375, 376, 377, 378, 379, 380, 381, 382, 383, 384, 385, 386, 387, 388, 389, 390, 391, 392, 393, 394, 395, 396, 397, 398, 399, 400, 401, 402, 403, 404, 405, 406, 407, 408, 409, 410, 411, 412, 413, 414, 415, 416, 417, 418, 419, 420, 421, 422, 423, 424, 425, 426, 427, 428, 429, 430, 431, 432, 433, 434, 435, 436, 437, 438, 439, 440, 441, 442, 443, 444, 445, 446, 447, 448, 449, 450, 451, 452, 453, 454, 455, 456, 457, 458, 459, 460, 461, 462, 463, 464, 465, 466, 467, 468, 469, 470, 471, 472, 473, 474, 475, 476, 477, 478, 479, 480, 481, 482, 483, 484, 485, 486, 487, 488, 489, 490, 491, 492, 493, 494, 495, 496, 497, 498, 499, 500, 501, 502, 503, 504, 505, 506, 507, 508, 509, 510, 511, 512, 513, 514, 515, 516],
      "AcquisitionTime": ["161320.975000", "161322.465000", "161323.955000", "161325.445000", "161326.935000", "161328.425000", "161329.915000", "161331.405000", "161332.895000", "161334.385000", "161335.875000", "161337.365000", "161338.855000", "161340.345000", "161341.835000", "161343.325000", "161344.815000", "161346.305000", "161347.795000", "161349.285000", "161350.775000", "161352.265000", "161353.755000", "161355.245000", "161356.735000", "161358.225000", "161359.715000", "161401.205000", "161402.695000", "161404.185000", "161405.675000", "161407.165000", "161408.655000", "161410.145000", "161411.635000", "161413.125000", "161414.615000", "161416.105000", "161417.595000", "161419.085000", "161420.575000", "161422.065000", "161423.555000", "161425.045000", "161426.535000", "161428.025000", "161429.515000", "161431.005000", "161432.495000", "161433.985000", "161435.475000", "161436.965000", "161438.455000", "161439.945000", "161441.435000", "161442.925000", "161444.415000", "161445.905000", "161447.395000", "161448.885000", "161450.375000", "161451.865000", "161453.355000", "161454.845000", "161456.335000", "161457.825000", "161459.315000", "161500.805000", "161502.295000", "161503.785000", "161505.275000", "161506.765000", "161508.255000", "161509.745000", "161511.235000", "161512.725000", "161514.215000", "161515.705000", "161517.195000", "161518.685000", "161520.175000", "161521.665000", "161523.155000", "161524.645000", "161526.135000", "161527.625000", "161529.115000", "161530.605000", "161532.095000", "161533.585000", "161535.075000", "161536.565000", "161538.055000", "161539.545000", "161541.035000", "161542.525000", "161544.015000", "161545.505000", "161546.995000", "161548.485000", "161549.975000", "161551.465000", "161552.955000", "161554.445000", "161555.935000", "161557.425000", "161558.915000", "161600.405000", "161601.895000", "161603.385000", "161604.875000", "161606.365000", "161607.855000", "161609.345000", "161610.835000", "161612.325000", "161613.815000", "161615.305000", "161616.795000", "161618.285000", "161619.775000", "161621.265000", "161622.755000", "161624.245000", "161625.735000", "161627.225000", "161628.715000", "161630.205000", "161631.695000", "161633.185000", "161634.675000", "161636.165000", "161637.655000", "161639.145000", "161640.635000", "161642.125000", "161643.615000", "161645.105000", "161646.595000", "161648.085000", "161649.575000", "161651.065000", "161652.555000", "161654.045000", "161655.535000", "161657.025000", "161658.515000", "161700.005000", "161701.495000", "161702.985000", "161704.475000", "161705.965000", "161707.455000", "161708.945000", "161710.435000", "161711.925000", "161713.415000", "161714.905000", "161716.395000", "161717.885000", "161719.375000", "161720.865000", "161722.355000", "161723.845000", "161725.335000", "161726.825000", "161728.315000", "161729.805000", "161731.295000", "161732.785000", "161734.275000", "161735.765000", "161737.255000", "161738.745000", "161740.235000", "161741.725000", "161743.215000", "161744.705000", "161746.195000", "161747.685000", "161749.175000", "161750.665000", "161752.155000", "161753.645000", "161755.135000", "161756.625000", "161758.115000", "161759.605000", "161801.095000", "161802.585000", "161804.075000", "161805.565000", "161807.055000", "161808.545000", "161810.035000", "161811.525000", "161813.015000", "161814.505000", "161815.995000", "161817.485000", "161818.975000", "161820.465000", "161821.955000", "161823.445000", "161824.935000", "161826.425000", "161827.915000", "161829.405000", "161830.895000", "161832.385000", "161833.875000", "161835.365000", "161836.855000", "161838.345000", "161839.835000", "161841.325000", "161842.815000", "161844.305000", "161845.795000", "161847.285000", "161848.775000", "161850.265000", "161851.755000", "161853.245000", "161854.735000", "161856.225000", "161857.715000", "161859.205000", "161900.695000", "161902.185000", "161903.675000", "161905.165000", "161906.655000", "161908.145000", "161909.635000", "161911.125000", "161912.615000", "161914.105000", "161915.595000", "161917.085000", "161918.575000", "161920.065000", "161921.555000", "161923.045000", "161924.535000", "161926.025000", "161927.515000", "161929.005000", "161930.495000", "161931.985000", "161933.475000", "161934.965000", "161936.455000", "161937.945000", "161939.435000", "161940.925000", "161942.415000", "161943.905000", "161945.395000", "161946.885000", "161948.375000", "161949.865000", "161951.355000", "161952.845000", "161954.335000", "161955.825000", "161957.315000", "161958.805000", "162000.295000", "162001.785000", "162003.275000", "162004.765000", "162006.255000", "162007.745000", "162009.235000", "162010.725000", "162012.215000", "162013.705000", "162015.195000", "162016.685000", "162018.175000", "162019.665000", "162021.155000", "162022.645000", "162024.135000", "162025.625000", "162027.115000", "162028.605000", "162030.095000", "162031.585000", "162033.075000", "162034.565000", "162036.055000", "162037.545000", "162039.035000", "162040.525000", "162042.015000", "162043.505000", "162044.995000", "162046.485000", "162047.975000", "162049.465000", "162050.955000", "162052.445000", "162053.935000", "162055.425000", "162056.915000", "162058.405000", "162059.895000", "162101.385000", "162102.875000", "162104.365000", "162105.855000", "162107.345000", "162108.835000", "162110.325000", "162111.815000", "162113.305000", "162114.795000", "162116.285000", "162117.775000", "162119.265000", "162120.755000", "162122.245000", "162123.735000", "162125.225000", "162126.715000", "162128.205000", "162129.695000", "162131.185000", "162132.675000", "162134.165000", "162135.655000", "162137.145000", "162138.635000", "162140.125000", "162141.615000", "162143.105000", "162144.595000", "162146.085000", "162147.575000", "162149.065000", "162150.555000", "162152.045000", "162153.535000", "162155.025000", "162156.515000", "162158.005000", "162159.495000", "162200.985000", "162202.475000", "162203.965000", "162205.455000", "162206.945000", "162208.435000", "162209.925000", "162211.415000", "162212.905000", "162214.395000", "162215.885000", "162217.375000", "162218.865000", "162220.355000", "162221.845000", "162223.335000", "162224.825000", "162226.315000", "162227.805000", "162229.295000", "162230.785000", "162232.275000", "162233.765000", "162235.255000", "162236.745000", "162238.235000", "162239.725000", "162241.215000", "162242.705000", "162244.195000", "162245.685000", "162247.175000", "162248.665000", "162250.155000", "162251.645000", "162253.135000", "162254.625000", "162256.115000", "162257.605000", "162259.095000", "162300.585000", "162302.075000", "162303.565000", "162305.055000", "162306.545000", "162308.035000", "162309.525000", "162311.015000", "162312.505000", "162313.995000", "162315.485000", "162316.975000", "162318.465000", "162319.955000", "162321.445000", "162322.935000", "162324.425000", "162325.915000", "162327.405000", "162328.895000", "162330.385000", "162331.875000", "162333.365000", "162334.855000", "162336.345000", "162337.835000", "162339.325000", "162340.815000", "162342.305000", "162343.795000", "162345.285000", "162346.775000", "162348.265000", "162349.755000", "162351.245000", "162352.735000", "162354.225000", "162355.715000", "162357.205000", "162358.695000", "162400.185000", "162401.675000", "162403.165000", "162404.655000", "162406.145000", "162407.635000", "162409.125000", "162410.615000", "162412.105000", "162413.595000", "162415.085000", "162416.575000", "162418.065000", "162419.555000", "162421.045000", "162422.535000", "162424.025000", "162425.515000", "162427.005000", "162428.495000", "162429.985000", "162431.475000", "162432.965000", "162434.455000", "162435.945000", "162437.435000", "162438.925000", "162440.415000", "162441.905000", "162443.395000", "162444.885000", "162446.375000", "162447.865000", "162449.355000", "162450.845000", "162452.335000", "162453.825000", "162455.315000", "162456.805000", "162458.295000", "162459.785000", "162501.275000", "162502.765000", "162504.255000", "162505.745000", "162507.235000", "162508.725000", "162510.215000", "162511.705000", "162513.195000", "162514.685000", "162516.175000", "162517.665000", "162519.155000", "162520.645000", "162522.135000", "162523.625000", "162525.115000", "162526.605000", "162528.095000", "162529.585000", "162531.075000", "162532.565000", "162534.055000", "162535.545000", "162537.035000", "162538.525000", "162540.015000", "162541.505000", "162542.995000", "162544.485000", "162545.975000", "162547.465000", "162548.955000", "162550.445000", "162551.935000", "162553.425000", "162554.915000", "162556.405000", "162557.895000", "162559.385000", "162600.875000", "162602.365000", "162603.855000", "162605.345000", "162606.835000", "162608.325000"],
      "ContentTime": ["161437.680000", "161437.683000", "161437.692000", "161437.696000", "161437.699000", "161437.702000", "161437.706000", "161437.709000", "161437.713000", "161437.716000", "161437.719000", "161437.723000", "161437.726000", "161437.729000", "161437.733000", "161437.736000", "161437.740000", "161437.743000", "161437.746000", "161437.750000", "161437.753000", "161437.756000", "161457.639000", "161457.643000", "161457.646000", "161457.650000", "161457.653000", "161457.657000", "161457.660000", "161457.663000", "161457.667000", "161457.670000", "161457.673000", "161457.677000", "161457.680000", "161457.684000", "161457.687000", "161457.690000", "161457.694000", "161457.697000", "161457.701000", "161457.704000", "161517.639000", "161517.643000", "161517.646000", "161517.650000", "161517.653000", "161517.657000", "161517.660000", "161517.668000", "161517.672000", "161517.675000", "161517.679000", "161517.682000", "161517.685000", "161517.689000", "161517.692000", "161517.695000", "161517.699000", "161517.702000", "161517.706000", "161517.709000", "161537.639000", "161537.643000", "161537.646000", "161537.650000", "161537.653000", "161537.657000", "161537.660000", "161537.663000", "161537.667000", "161537.670000", "161537.674000", "161537.677000", "161537.680000", "161537.684000", "161537.687000", "161537.690000", "161537.694000", "161537.697000", "161537.700000", "161537.704000", "161557.639000", "161557.653000", "161557.657000", "161557.660000", "161557.663000", "161557.667000", "161557.670000", "161557.673000", "161557.677000", "161557.680000", "161557.684000", "161557.687000", "161557.690000", "161557.694000", "161557.697000", "161557.701000", "161557.704000", "161557.707000", "161557.711000", "161557.714000", "161637.638000", "161637.642000", "161637.645000", "161637.649000", "161637.652000", "161637.656000", "161637.659000", "161637.662000", "161637.666000", "161637.669000", "161637.673000", "161637.676000", "161637.679000", "161637.683000", "161637.686000", "161637.690000", "161637.693000", "161637.696000", "161637.700000", "161637.703000", "161637.706000", "161637.710000", "161637.713000", "161637.716000", "161637.720000", "161637.723000", "161637.727000", "161637.730000", "161637.733000", "161717.639000", "161717.643000", "161717.647000", "161717.650000", "161717.653000", "161717.657000", "161717.660000", "161717.664000", "161717.667000", "161717.670000", "161717.674000", "161717.677000", "161717.681000", "161717.684000", "161717.687000", "161717.691000", "161717.694000", "161717.698000", "161717.701000", "161717.704000", "161717.708000", "161717.711000", "161717.715000", "161717.718000", "161717.721000", "161717.725000", "161717.728000", "161757.639000", "161757.643000", "161757.646000", "161757.650000", "161757.653000", "161757.657000", "161757.660000", "161757.663000", "161757.667000", "161757.670000", "161757.674000", "161757.677000", "161757.680000", "161757.684000", "161757.687000", "161757.691000", "161757.694000", "161757.698000", "161757.701000", "161757.705000", "161757.709000", "161757.713000", "161757.717000", "161757.720000", "161757.724000", "161757.727000", "161817.639000", "161817.643000", "161817.648000", "161817.651000", "161817.654000", "161817.658000", "161817.661000", "161817.665000", "161817.668000", "161817.671000", "161817.675000", "161817.678000", "161817.682000", "161817.685000", "161857.638000", "161857.642000", "161857.646000", "161857.649000", "161857.652000", "161857.656000", "161857.659000", "161857.663000", "161857.666000", "161857.670000", "161857.673000", "161857.676000", "161857.680000", "161857.683000", "161857.687000", "161857.690000", "161857.693000", "161857.697000", "161857.700000", "161857.704000", "161857.707000", "161857.711000", "161857.714000", "161857.717000", "161857.721000", "161857.724000", "161857.728000", "161937.639000", "161937.643000", "161937.647000", "161937.650000", "161937.653000", "161937.657000", "161937.660000", "161937.663000", "161937.667000", "161937.670000", "161937.680000", "161937.683000", "161937.687000", "161937.690000", "161937.693000", "161937.697000", "161937.700000", "161937.704000", "161937.707000", "161937.710000", "161937.714000", "161937.717000", "161937.721000", "161937.724000", "161937.727000", "161937.731000", "161937.734000", "162017.639000", "162017.643000", "162017.647000", "162017.650000", "162017.653000", "162017.657000", "162017.660000", "162017.663000", "162017.667000", "162017.670000", "162017.674000", "162017.677000", "162017.681000", "162017.684000", "162017.688000", "162017.691000", "162017.695000", "162017.698000", "162017.702000", "162017.705000", "162017.708000", "162017.712000", "162017.715000", "162017.719000", "162017.722000", "162017.725000", "162057.638000", "162057.642000", "162057.646000", "162057.649000", "162057.652000", "162057.656000", "162057.659000", "162057.663000", "162057.666000", "162057.670000", "162057.673000", "162057.676000", "162057.680000", "162057.683000", "162057.687000", "162057.690000", "162057.693000", "162057.697000", "162057.700000", "162057.704000", "162057.707000", "162057.710000", "162057.714000", "162057.717000", "162057.721000", "162057.724000", "162057.727000", "162137.638000", "162137.642000", "162137.645000", "162137.649000", "162137.652000", "162137.656000", "162137.660000", "162137.663000", "162137.667000", "162137.670000", "162137.673000", "162137.677000", "162137.680000", "162137.684000", "162137.687000", "162137.691000", "162137.694000", "162137.697000", "162137.701000", "162137.704000", "162137.708000", "162137.711000", "162137.714000", "162137.718000", "162137.721000", "162137.725000", "162137.728000", "162217.639000", "162217.643000", "162217.647000", "162217.650000", "162217.654000", "162217.657000", "162217.660000", "162217.664000", "162217.667000", "162217.671000", "162217.674000", "162217.677000", "162217.681000", "162217.684000", "162217.688000", "162217.691000", "162217.695000", "162217.698000", "162217.701000", "162217.705000", "162217.708000", "162217.712000", "162217.715000", "162217.718000", "162217.722000", "162217.725000", "162217.729000", "162257.639000", "162257.643000", "162257.647000", "162257.650000", "162257.653000", "162257.673000", "162257.677000", "162257.680000", "162257.683000", "162257.687000", "162257.690000", "162257.694000", "162257.697000", "162257.700000", "162257.704000", "162257.707000", "162257.710000", "162257.714000", "162257.717000", "162257.721000", "162257.724000", "162257.727000", "162257.731000", "162257.734000", "162257.738000", "162257.741000", "162257.744000", "162337.639000", "162337.642000", "162337.646000", "162337.649000", "162337.653000", "162337.656000", "162337.659000", "162337.663000", "162337.666000", "162337.670000", "162337.673000", "162337.676000", "162337.680000", "162337.683000", "162337.687000", "162337.690000", "162337.693000", "162337.697000", "162337.700000", "162337.704000", "162337.707000", "162337.710000", "162337.714000", "162337.717000", "162337.721000", "162337.724000", "162337.727000", "162417.639000", "162417.643000", "162417.647000", "162417.650000", "162417.654000", "162417.658000", "162417.661000", "162417.665000", "162417.668000", "162417.672000", "162417.676000", "162417.679000", "162417.692000", "162417.695000", "162417.698000", "162417.702000", "162417.705000", "162417.709000", "162417.712000", "162417.725000", "162417.728000", "162417.731000", "162417.735000", "162417.738000", "162417.741000", "162417.745000", "162457.639000", "162457.643000", "162457.647000", "162457.650000", "162457.653000", "162457.657000", "162457.660000", "162457.664000", "162457.667000", "162457.670000", "162457.674000", "162457.677000", "162457.681000", "162457.684000", "162457.687000", "162457.691000", "162457.694000", "162457.709000", "162457.713000", "162457.716000", "162457.720000", "162457.723000", "162457.726000", "162457.730000", "162457.733000", "162457.737000", "162457.740000", "162537.638000", "162537.642000", "162537.646000", "162537.649000", "162537.653000", "162537.656000", "162537.660000", "162537.663000", "162537.667000", "162537.670000", "162537.674000", "162537.677000", "162537.681000", "162537.684000", "162537.687000", "162537.691000", "162537.694000", "162537.698000", "162537.701000", "162537.705000", "162537.708000", "162537.711000", "162537.715000", "162537.718000", "162537.722000", "162537.725000", "162537.729000", "162612.016000", "162612.020000", "162612.024000", "162612.028000", "162612.031000", "162612.035000", "162612.038000", "162612.042000", "162612.045000", "162612.049000", "162612.052000", "162612.055000", "162612.059000", "162612.062000", "162612.066000", "162612.069000", "162612.072000", "162612.076000", "162612.079000", "162612.083000", "162612.086000", "162612.089000", "162612.093000"],
