{
  "AcquisitionMatrixPE": 104,
  "AcquisitionNumber": 1,
  "AcquisitionTime": "15:32:41.887500",
  "BandwidthPerPixelPhaseEncode": 17.17,
  "BaseResolution": 104,
  "BodyPartExamined": "BRAIN",
  "CoilString": "HC1-7;NC1_2",
  "ConsistencyInfo": "N4_VE11C_LATEST_20160120",
  "ConversionSoftware": "dcm2niix",
  "ConversionSoftwareVersion": "v1.0.20190902",
  "DerivedVendorReportedEchoSpacing": 0.000560011,
  "DeviceSerialNumber": "167006",
  "DwellTime": 2.1e-06,
  "EchoTime": 0.037,
  "EchoTrainLength": 104,
  "EffectiveEchoSpacing": 0.000560011,
  "FlipAngle": 52,
  "HeudiconvVersion": "0.10.0",
  "ImageComments": "Unaliased_MB4_PE3_LB",
  "ImageOrientationPatientDICOM": [0.998571, -0.0455506, 0.0279382, 0.0523329, 0.93933, -0.338998],
  "ImageType": [
    "ORIGINAL",
    "PRIMARY",
    "M",
    "MB",
    "ND",
    "MOSAIC"
],
  "ImagingFrequency": 123.259,
  "InPlanePhaseEncodingDirectionDICOM": "COL",
  "InstitutionAddress": "Chemin_Queen-Mary_4565_Montreal_District_CA_H3W_1W5",
  "InstitutionName": "IUGM",
  "InstitutionalDepartmentName": "Department",
  "MRAcquisitionType": "2D",
  "MagneticFieldStrength": 3,
  "Manufacturer": "Siemens",
  "ManufacturersModelName": "Prisma_fit",
  "Modality": "MR",
  "MultibandAccelerationFactor": 4,
  "PartialFourier": 1,
  "PatientPosition": "HFS",
  "PercentPhaseFOV": 100,
  "PhaseEncodingDirection": "j",
  "PhaseEncodingSteps": 104,
  "PhaseResolution": 1,
  "PixelBandwidth": 2290,
  "ProcedureStepDescription": "games_mario",
  "ProtocolName": "func_task-mario_run-01",
  "PulseSequenceDetails": "%CustomerSeq%_cmrr_mbep2d_bold",
  "ReceiveCoilActiveElements": "HC1-7;NC1,2",
  "ReceiveCoilName": "HeadNeck_64",
  "ReconMatrixPE": 104,
  "RepetitionTime": 1.49,
  "SAR": 0.0666972,
  "ScanOptions": "FS",
  "ScanningSequence": "EP",
  "SequenceName": "epfid2d1_104",
  "SequenceVariant": "SK_SS",
  "SeriesDescription": "func_task-mario_run-01",
  "SeriesNumber": 10,
  "ShimSetting": [631, -7249, -8825, 586, 9, -202, -71, -1],
  "SliceThickness": 2,
  "SliceTiming": [0, 0.7825, 0.0975, 0.88, 0.195, 0.98, 0.2925, 1.0775, 0.39, 1.175, 0.49, 1.2725, 0.5875, 1.37, 0.685, 0, 0.7825, 0.0975, 0.88, 0.195, 0.98, 0.2925, 1.0775, 0.39, 1.175, 0.49, 1.2725, 0.5875, 1.37, 0.685, 0, 0.7825, 0.0975, 0.88, 0.195, 0.98, 0.2925, 1.0775, 0.39, 1.175, 0.49, 1.2725, 0.5875, 1.37, 0.685, 0, 0.7825, 0.0975, 0.88, 0.195, 0.98, 0.2925, 1.0775, 0.39, 1.175, 0.49, 1.2725, 0.5875, 1.37, 0.685],
  "SoftwareVersions": "syngo_MR_E11",
  "SpacingBetweenSlices": 2,
  "StationName": "MRC35049",
  "TaskName": "mario",
  "TotalReadoutTime": 0.0576811,
  "TxRefAmp": 304.84,
  "WipMemBlock": "7b2e8c4f-cf6d-479f-ac9f-a47a1e794dca||Sequence: R016 ve11c/master r/e634e98; Dec 19 2017 11:00:25 by eja",
  "dcmmeta_affine": [
    [-1.9971425533294678, 0.10466570407152176, 0.021603282541036606, 100.76628112792969],
    [0.09110124409198761, 1.878660798072815, -0.679951548576355, -69.90733337402344],
    [0.05587642639875412, 0.677996039390564, 1.8807443380355835, -68.94155883789062],
    [0.0, 0.0, 0.0, 1.0]
],
  "dcmmeta_reorient_transform": [
    [0.0, -1.0, 0.0, 103.0],
    [1.0, 0.0, 0.0, 0.0],
    [0.0, 0.0, 1.0, 0.0],
    [0.0, 0.0, 0.0, 1.0]
],
  "dcmmeta_shape": [104, 104, 60, 422],
  "dcmmeta_slice_dim": 2,
  "dcmmeta_version": 0.6,
  "global": {
    "const": {
      "AcquisitionMatrix": [104, 0, 0, 104],
      "AngioFlag": "N",
      "BitsAllocated": 16,
      "BitsStored": 16,
      "BodyPartExamined": "BRAIN",
      "Columns": 832,
      "EchoNumbers": 1,
      "EchoTime": 37.0,
      "EchoTrainLength": 104,
      "FlipAngle": 52.0,
      "HighBit": 15,
      "ImageOrientationPatient": [0.9985712779099, -0.0455506226938, 0.02793821228339, 0.05233285281436, 0.93933040537533, -0.3389980266222],
      "ImagePositionPatient": [-876.60505677753, -774.26640936375, 227.3435784266],
      "ImageType": [
        "ORIGINAL",
        "PRIMARY",
        "M",
        "MB",
        "ND",
        "MOSAIC"
],
      "ImagedNucleus": "1H",
      "ImagingFrequency": 123.258888,
      "InPlanePhaseEncodingDirection": "COL",
      "MRAcquisitionType": "2D",
      "MagneticFieldStrength": 3.0,
      "Manufacturer": "SIEMENS",
      "ManufacturerModelName": "Prisma_fit",
      "Modality": "MR",
      "NumberOfAverages": 1.0,
      "NumberOfPhaseEncodingSteps": 104,
      "PercentPhaseFieldOfView": 100.0,
      "PercentSampling": 100.0,
      "PerformedProcedureStepStartTime": "151114.113000",
      "PhotometricInterpretation": "MONOCHROME2",
      "PixelBandwidth": 2290.0,
      "PixelRepresentation": 0,
      "PixelSpacing": [2.0, 2.0],
      "ProtocolName": "func_task-mario_run-01",
      "RepetitionTime": 1490.0,
      "Rows": 832,
      "SAR": 0.06669719515007,
      "SamplesPerPixel": 1,
      "ScanOptions": "FS",
      "ScanningSequence": "EP",
      "SequenceName": "epfid2d1_104",
      "SequenceVariant": [
        "SK",
        "SS"
],
      "SeriesDescription": "func_task-mario_run-01",
      "SeriesNumber": 10,
      "SeriesTime": "153357.671000",
      "SliceLocation": -39.975481206064,
      "SliceThickness": 2.0,
      "SmallestImagePixelValue": 0,
      "SoftwareVersions": "syngo MR E11",
      "SpacingBetweenSlices": 2.0000000340795,
      "SpecificCharacterSet": "ISO_IR 100",
      "StudyID": "1",
      "StudyTime": "151114.041000",
      "TransmitCoilName": "Body",
      "VariableFlipAngleFlag": "N",
      "WindowCenterWidthExplanation": "Algo1",
      "dBdt": 0.0},
    "slices": {}
  },
  "time": {
    "samples": {
      "AcquisitionNumber": [1, 2, 3, 4, 5, 6, 7, 8, 9, 10, 11, 12, 13, 14, 15, 16, 17, 18, 19, 20, 21, 22, 23, 24, 25, 26, 27, 28, 29, 30, 31, 32, 33, 34, 35, 36, 37, 38, 39, 40, 41, 42, 43, 44, 45, 46, 47, 48, 49, 50, 51, 52, 53, 54, 55, 56, 57, 58, 59, 60, 61, 62, 63, 64, 65, 66, 67, 68, 69, 70, 71, 72, 73, 74, 75, 76, 77, 78, 79, 80, 81, 82, 83, 84, 85, 86, 87, 88, 89, 90, 91, 92, 93, 94, 95, 96, 97, 98, 99, 100, 101, 102, 103, 104, 105, 106, 107, 108, 109, 110, 111, 112, 113, 114, 115, 116, 117, 118, 119, 120, 121, 122, 123, 124, 125, 126, 127, 128, 129, 130, 131, 132, 133, 134, 135, 136, 137, 138, 139, 140, 141, 142, 143, 144, 145, 146, 147, 148, 149, 150, 151, 152, 153, 154, 155, 156, 157, 158, 159, 160, 161, 162, 163, 164, 165, 166, 167, 168, 169, 170, 171, 172, 173, 174, 175, 176, 177, 178, 179, 180, 181, 182, 183, 184, 185, 186, 187, 188, 189, 190, 191, 192, 193, 194, 195, 196, 197, 198, 199, 200, 201, 202, 203, 204, 205, 206, 207, 208, 209, 210, 211, 212, 213, 214, 215, 216, 217, 218, 219, 220, 221, 222, 223, 224, 225, 226, 227, 228, 229, 230, 231, 232, 233, 234, 235, 236, 237, 238, 239, 240, 241, 242, 243, 244, 245, 246, 247, 248, 249, 250, 251, 252, 253, 254, 255, 256, 257, 258, 259, 260, 261, 262, 263, 264, 265, 266, 267, 268, 269, 270, 271, 272, 273, 274, 275, 276, 277, 278, 279, 280, 281, 282, 283, 284, 285, 286, 287, 288, 289, 290, 291, 292, 293, 294, 295, 296, 297, 298, 299, 300, 301, 302, 303, 304, 305, 306, 307, 308, 309, 310, 311, 312, 313, 314, 315, 316, 317, 318, 319, 320, 321, 322, 323, 324, 325, 326, 327, 328, 329, 330, 331, 332, 333, 334, 335, 336, 337, 338, 339, 340, 341, 342, 343, 344, 345, 346, 347, 348, 349, 350, 351, 352, 353, 354, 355, 356, 357, 358, 359, 360, 361, 362, 363, 364, 365, 366, 367, 368, 369, 370, 371, 372, 373, 374, 375, 376, 377, 378, 379, 380, 381, 382, 383, 384, 385, 386, 387, 388, 389, 390, 391, 392, 393, 394, 395, 396, 397, 398, 399, 400, 401, 402, 403, 404, 405, 406, 407, 408, 409, 410, 411, 412, 413, 414, 415, 416, 417, 418, 419, 420, 421, 422],
      "AcquisitionTime": ["153241.887500", "153243.377500", "153244.867500", "153246.357500", "153247.847500", "153249.337500", "153250.827500", "153252.317500", "153253.807500", "153255.297500", "153256.787500", "153258.277500", "153259.767500", "153301.257500", "153302.747500", "153304.237500", "153305.727500", "153307.217500", "153308.707500", "153310.197500", "153311.687500", "153313.177500", "153314.667500", "153316.157500", "153317.647500", "153319.137500", "153320.627500", "153322.117500", "153323.607500", "153325.097500", "153326.587500", "153328.077500", "153329.567500", "153331.057500", "153332.547500", "153334.037500", "153335.527500", "153337.017500", "153338.507500", "153339.997500", "153341.487500", "153342.977500", "153344.467500", "153345.957500", "153347.447500", "153348.937500", "153350.427500", "153351.917500", "153353.407500", "153354.897500", "153356.387500", "153357.877500", "153359.367500", "153400.857500", "153402.347500", "153403.837500", "153405.327500", "153406.817500", "153408.307500", "153409.797500", "153411.287500", "153412.777500", "153414.267500", "153415.757500", "153417.247500", "153418.737500", "153420.227500", "153421.717500", "153423.207500", "153424.697500", "153426.187500", "153427.677500", "153429.167500", "153430.657500", "153432.147500", "153433.637500", "153435.127500", "153436.617500", "153438.107500", "153439.597500", "153441.087500", "153442.577500", "153444.067500", "153445.557500", "153447.047500", "153448.537500", "153450.027500", "153451.517500", "153453.007500", "153454.497500", "153455.987500", "153457.477500", "153458.967500", "153500.457500", "153501.947500", "153503.437500", "153504.927500", "153506.417500", "153507.907500", "153509.397500", "153510.887500", "153512.377500", "153513.867500", "153515.357500", "153516.847500", "153518.337500", "153519.827500", "153521.317500", "153522.807500", "153524.297500", "153525.787500", "153527.277500", "153528.767500", "153530.257500", "153531.747500", "153533.237500", "153534.727500", "153536.217500", "153537.707500", "153539.197500", "153540.687500", "153542.177500", "153543.667500", "153545.157500", "153546.647500", "153548.137500", "153549.627500", "153551.117500", "153552.607500", "153554.097500", "153555.587500", "153557.077500", "153558.567500", "153600.057500", "153601.547500", "153603.037500", "153604.527500", "153606.017500", "153607.507500", "153608.997500", "153610.487500", "153611.977500", "153613.467500", "153614.957500", "153616.447500", "153617.937500", "153619.427500", "153620.917500", "153622.407500", "153623.897500", "153625.387500", "153626.877500", "153628.367500", "153629.857500", "153631.347500", "153632.837500", "153634.327500", "153635.817500", "153637.307500", "153638.797500", "153640.287500", "153641.777500", "153643.267500", "153644.757500", "153646.247500", "153647.737500", "153649.227500", "153650.717500", "153652.207500", "153653.697500", "153655.187500", "153656.677500", "153658.167500", "153659.657500", "153701.147500", "153702.637500", "153704.127500", "153705.617500", "153707.107500", "153708.597500", "153710.087500", "153711.577500", "153713.067500", "153714.557500", "153716.047500", "153717.537500", "153719.027500", "153720.517500", "153722.007500", "153723.497500", "153724.987500", "153726.477500", "153727.967500", "153729.457500", "153730.947500", "153732.437500", "153733.927500", "153735.417500", "153736.907500", "153738.397500", "153739.887500", "153741.377500", "153742.867500", "153744.357500", "153745.847500", "153747.337500", "153748.827500", "153750.317500", "153751.807500", "153753.297500", "153754.787500", "153756.277500", "153757.767500", "153759.257500", "153800.747500", "153802.237500", "153803.727500", "153805.217500", "153806.707500", "153808.197500", "153809.687500", "153811.177500", "153812.667500", "153814.157500", "153815.647500", "153817.137500", "153818.627500", "153820.117500", "153821.607500", "153823.097500", "153824.587500", "153826.077500", "153827.567500", "153829.057500", "153830.547500", "153832.037500", "153833.527500", "153835.017500", "153836.507500", "153837.997500", "153839.487500", "153840.977500", "153842.467500", "153843.957500", "153845.447500", "153846.937500", "153848.427500", "153849.917500", "153851.407500", "153852.897500", "153854.387500", "153855.877500", "153857.367500", "153858.857500", "153900.347500", "153901.837500", "153903.327500", "153904.817500", "153906.307500", "153907.797500", "153909.287500", "153910.777500", "153912.267500", "153913.757500", "153915.247500", "153916.737500", "153918.227500", "153919.717500", "153921.207500", "153922.697500", "153924.187500", "153925.677500", "153927.167500", "153928.657500", "153930.147500", "153931.637500", "153933.127500", "153934.617500", "153936.107500", "153937.597500", "153939.087500", "153940.577500", "153942.067500", "153943.557500", "153945.047500", "153946.537500", "153948.027500", "153949.517500", "153951.007500", "153952.497500", "153953.987500", "153955.477500", "153956.967500", "153958.457500", "153959.947500", "154001.437500", "154002.927500", "154004.417500", "154005.907500", "154007.397500", "154008.887500", "154010.377500", "154011.867500", "154013.357500", "154014.847500", "154016.337500", "154017.827500", "154019.317500", "154020.807500", "154022.297500", "154023.787500", "154025.277500", "154026.767500", "154028.257500", "154029.747500", "154031.237500", "154032.727500", "154034.217500", "154035.707500", "154037.197500", "154038.687500", "154040.177500", "154041.667500", "154043.157500", "154044.647500", "154046.137500", "154047.627500", "154049.117500", "154050.607500", "154052.097500", "154053.587500", "154055.077500", "154056.567500", "154058.057500", "154059.547500", "154101.037500", "154102.527500", "154104.017500", "154105.507500", "154106.997500", "154108.487500", "154109.977500", "154111.467500", "154112.957500", "154114.447500", "154115.937500", "154117.427500", "154118.917500", "154120.407500", "154121.897500", "154123.387500", "154124.877500", "154126.367500", "154127.857500", "154129.347500", "154130.837500", "154132.327500", "154133.817500", "154135.307500", "154136.797500", "154138.287500", "154139.777500", "154141.267500", "154142.757500", "154144.247500", "154145.737500", "154147.227500", "154148.717500", "154150.207500", "154151.697500", "154153.187500", "154154.677500", "154156.167500", "154157.657500", "154159.147500", "154200.637500", "154202.127500", "154203.617500", "154205.107500", "154206.597500", "154208.087500", "154209.577500", "154211.067500", "154212.557500", "154214.047500", "154215.537500", "154217.027500", "154218.517500", "154220.007500", "154221.497500", "154222.987500", "154224.477500", "154225.967500", "154227.457500", "154228.947500", "154230.437500", "154231.927500", "154233.417500", "154234.907500", "154236.397500", "154237.887500", "154239.377500", "154240.867500", "154242.357500", "154243.847500", "154245.337500", "154246.827500", "154248.317500", "154249.807500", "154251.297500", "154252.787500", "154254.277500", "154255.767500", "154257.257500", "154258.747500", "154300.237500", "154301.727500", "154303.217500", "154304.707500", "154306.197500", "154307.687500", "154309.177500"],
      "ContentTime": ["153357.675000", "153357.678000", "153357.682000", "153357.685000", "153357.689000", "153357.692000", "153357.702000", "153357.705000", "153357.711000", "153357.715000", "153357.718000", "153357.721000", "153357.725000", "153357.728000", "153357.732000", "153357.735000", "153357.738000", "153357.742000", "153357.745000", "153357.749000", "153357.752000", "153357.755000", "153357.759000", "153417.639000", "153417.643000", "153417.646000", "153417.650000", "153417.653000", "153417.656000", "153417.660000", "153417.663000", "153417.666000", "153417.670000", "153417.673000", "153417.676000", "153417.680000", "153417.683000", "153417.686000", "153417.690000", "153417.693000", "153417.696000", "153417.700000", "153417.703000", "153437.638000", "153437.642000", "153437.645000", "153437.649000", "153437.652000", "153437.656000", "153437.659000", "153437.662000", "153437.666000", "153437.670000", "153437.673000", "153437.677000", "153437.680000", "153437.684000", "153437.688000", "153437.692000", "153437.696000", "153437.699000", "153437.703000", "153437.706000", "153457.638000", "153457.642000", "153457.645000", "153457.649000", "153457.652000", "153457.655000", "153457.659000", "153457.662000", "153457.666000", "153457.669000", "153457.672000", "153457.676000", "153457.679000", "153457.682000", "153457.686000", "153457.689000", "153457.693000", "153457.696000", "153457.699000", "153457.703000", "153457.706000", "153517.638000", "153517.642000", "153517.645000", "153517.649000", "153517.652000", "153517.655000", "153517.659000", "153517.662000", "153517.666000", "153517.669000", "153517.672000", "153517.676000", "153517.679000", "153517.682000", "153517.686000", "153517.689000", "153517.693000", "153517.696000", "153517.699000", "153517.703000", "153557.639000", "153557.643000", "153557.646000", "153557.650000", "153557.653000", "153557.656000", "153557.660000", "153557.663000", "153557.666000", "153557.670000", "153557.673000", "153557.676000", "153557.680000", "153557.683000", "153557.687000", "153557.690000", "153557.693000", "153557.697000", "153557.700000", "153557.703000", "153557.707000", "153557.710000", "153557.714000", "153557.717000", "153557.720000", "153557.724000", "153557.727000", "153637.639000", "153637.643000", "153637.646000", "153637.650000", "153637.653000", "153637.657000", "153637.660000", "153637.663000", "153637.667000", "153637.670000", "153637.674000", "153637.677000", "153637.680000", "153637.684000", "153637.687000", "153637.690000", "153637.694000", "153637.697000", "153637.701000", "153637.704000", "153637.707000", "153637.711000", "153637.714000", "153637.717000", "153637.721000", "153637.724000", "153637.727000", "153717.638000", "153717.642000", "153717.645000", "153717.649000", "153717.652000", "153717.656000", "153717.659000", "153717.662000", "153717.666000", "153717.669000", "153717.672000", "153717.676000", "153717.679000", "153717.683000", "153717.687000", "153717.691000", "153717.694000", "153717.698000", "153717.701000", "153717.704000", "153717.708000", "153717.711000", "153717.715000", "153717.718000", "153717.721000", "153717.725000", "153757.639000", "153757.643000", "153757.646000", "153757.650000", "153757.653000", "153757.656000", "153757.660000", "153757.663000", "153757.667000", "153757.670000", "153757.673000", "153757.677000", "153757.680000", "153757.684000", "153757.687000", "153757.690000", "153757.694000", "153757.697000", "153757.701000", "153757.704000", "153757.707000", "153757.711000", "153757.714000", "153757.718000", "153757.721000", "153757.724000", "153757.740000", "153817.639000", "153817.643000", "153817.647000", "153817.650000", "153817.653000", "153817.657000", "153817.660000", "153817.664000", "153817.667000", "153817.670000", "153817.674000", "153817.677000", "153817.688000", "153817.691000", "153857.639000", "153857.643000", "153857.647000", "153857.650000", "153857.655000", "153857.660000", "153857.681000", "153857.684000", "153857.704000", "153857.707000", "153857.710000", "153857.714000", "153857.717000", "153857.721000", "153857.724000", "153857.727000", "153857.731000", "153857.734000", "153857.738000", "153857.741000", "153857.745000", "153857.748000", "153857.751000", "153857.755000", "153857.758000", "153857.762000", "153937.638000", "153937.642000", "153937.646000", "153937.649000", "153937.652000", "153937.656000", "153937.659000", "153937.663000", "153937.666000", "153937.669000", "153937.673000", "153937.676000", "153937.680000", "153937.683000", "153937.686000", "153937.690000", "153937.693000", "153937.696000", "153937.700000", "153937.703000", "153937.706000", "153937.710000", "153937.713000", "153937.717000", "153937.720000", "153937.723000", "153937.727000", "154017.639000", "154017.643000", "154017.647000", "154017.650000", "154017.653000", "154017.657000", "154017.660000", "154017.663000", "154017.667000", "154017.670000", "154017.674000", "154017.677000", "154017.680000", "154017.684000", "154017.687000", "154017.691000", "154017.694000", "154017.698000", "154017.701000", "154017.704000", "154017.708000", "154017.711000", "154017.715000", "154017.723000", "154017.727000", "154017.730000", "154017.734000", "154057.639000", "154057.643000", "154057.647000", "154057.650000", "154057.653000", "154057.657000", "154057.660000", "154057.664000", "154057.667000", "154057.670000", "154057.674000", "154057.677000", "154057.681000", "154057.684000", "154057.687000", "154057.691000", "154057.694000", "154057.698000", "154057.701000", "154057.704000", "154057.708000", "154057.711000", "154057.715000", "154057.718000", "154057.721000", "154057.725000", "154057.728000", "154137.638000", "154137.642000", "154137.646000", "154137.649000", "154137.653000", "154137.656000", "154137.659000", "154137.663000", "154137.666000", "154137.670000", "154137.673000", "154137.676000", "154137.680000", "154137.683000", "154137.687000", "154137.690000", "154137.693000", "154137.697000", "154137.700000", "154137.704000", "154137.707000", "154137.710000", "154137.714000", "154137.717000", "154137.720000", "154137.724000", "154137.727000", "154217.638000", "154217.642000", "154217.645000", "154217.649000", "154217.652000", "154217.656000", "154217.659000", "154217.662000", "154217.666000", "154217.669000", "154217.673000", "154217.676000", "154217.679000", "154217.683000", "154217.686000", "154217.690000", "154217.693000", "154217.698000", "154217.702000", "154217.705000", "154217.708000", "154217.712000", "154217.715000", "154217.719000", "154217.722000", "154217.725000", "154217.729000", "154257.639000", "154257.643000", "154257.647000", "154257.650000", "154257.654000", "154257.657000", "154257.660000", "154257.664000", "154257.667000", "154257.670000", "154257.674000", "154257.677000", "154257.681000", "154257.684000", "154257.688000", "154257.691000", "154257.694000", "154257.698000", "154257.701000", "154257.705000", "154257.708000", "154257.712000", "154257.715000", "154257.718000", "154257.722000", "154257.725000", "154257.729000", "154311.964000", "154311.968000", "154311.972000", "154311.975000", "154311.979000", "154311.982000", "154311.986000", "154311.989000", "154311.993000"],
      "InstanceCreationTime": ["153357.675000", "153357.678000", "153357.682000", "153357.685000", "153357.689000", "153357.692000", "153357.702000", "153357.705000", "153357.711000", "153357.715000", "153357.718000", "153357.721000", "153357.725000", "153357.728000", "153357.732000", "153357.735000", "153357.738000", "153357.742000", "153357.745000", "153357.749000", "153357.752000", "153357.755000", "153357.759000", "153417.639000", "153417.643000", "153417.646000", "153417.650000", "153417.653000", "153417.656000", "153417.660000", "153417.663000", "153417.666000", "153417.670000", "153417.673000", "153417.676000", "153417.680000", "153417.683000", "153417.686000", "153417.690000", "153417.693000", "153417.696000", "153417.700000", "153417.703000", "153437.638000", "153437.642000", "153437.645000", "153437.649000", "153437.652000", "153437.656000", "153437.659000", "153437.662000", "153437.666000", "153437.670000", "153437.673000", "153437.677000", "153437.680000", "153437.684000", "153437.688000", "153437.692000", "153437.696000", "153437.699000", "153437.703000", "153437.706000", "153457.638000", "153457.642000", "153457.645000", "153457.649000", "153457.652000", "153457.655000", "153457.659000", "153457.662000", "153457.666000", "153457.669000", "153457.672000", "153457.676000", "153457.679000", "153457.682000", "153457.686000", "153457.689000", "153457.693000", "153457.696000", "153457.699000", "153457.703000", "153457.706000", "153517.638000", "153517.642000", "153517.645000", "153517.649000", "153517.652000", "153517.655000", "153517.659000", "153517.662000", "153517.666000", "153517.669000", "153517.672000", "153517.676000", "153517.679000", "153517.682000", "153517.686000", "153517.689000", "153517.693000", "153517.696000", "153517.699000", "153517.703000", "153557.639000", "153557.643000", "153557.646000", "153557.650000", "153557.653000", "153557.656000", "153557.660000", "153557.663000", "153557.666000", "153557.670000", "153557.673000", "153557.676000", "153557.680000", "153557.683000", "153557.687000", "153557.690000", "153557.693000", "153557.697000", "153557.700000", "153557.703000", "153557.707000", "153557.710000", "153557.714000", "153557.717000", "153557.720000", "153557.724000", "153557.727000", "153637.639000", "153637.643000", "153637.646000", "153637.650000", "153637.653000", "153637.657000", "153637.660000", "153637.663000", "153637.667000", "153637.670000", "153637.674000", "153637.677000", "153637.680000", "153637.684000", "153637.687000", "153637.690000", "153637.694000", "153637.697000", "153637.701000", "153637.704000", "153637.707000", "153637.711000", "153637.714000", "153637.717000", "153637.721000", "153637.724000", "153637.727000", "153717.638000", "153717.642000", "153717.645000", "153717.649000", "153717.652000", "153717.656000", "153717.659000", "153717.662000", "153717.666000", "153717.669000", "153717.672000", "153717.676000", "153717.679000", "153717.683000", "153717.687000", "153717.691000", "153717.694000", "153717.698000", "153717.701000", "153717.704000", "153717.708000", "153717.711000", "153717.715000", "153717.718000", "153717.721000", "153717.725000", "153757.639000", "153757.643000", "153757.646000", "153757.650000", "153757.653000", "153757.656000", "153757.660000", "153757.663000", "153757.667000", "153757.670000", "153757.673000", "153757.677000", "153757.680000", "153757.684000", "153757.687000", "153757.690000", "153757.694000", "153757.697000", "153757.701000", "153757.704000", "153757.707000", "153757.711000", "153757.714000", "153757.718000", "153757.721000", "153757.724000", "153757.740000", "153817.639000", "153817.643000", "153817.647000", "153817.650000", "153817.653000", "153817.657000", "153817.660000", "153817.664000", "153817.667000", "153817.670000", "153817.674000", "153817.677000", "153817.688000", "153817.691000", "153857.639000", "153857.643000", "153857.647000", "153857.650000", "153857.655000", "153857.660000", "153857.681000", "153857.684000", "153857.704000", "153857.707000", "153857.710000", "153857.714000", "153857.717000", "153857.721000", "153857.724000", "153857.727000", "153857.731000", "153857.734000", "153857.738000", "153857.741000", "153857.745000", "153857.748000", "153857.751000", "153857.755000", "153857.758000", "153857.762000", "153937.638000", "153937.642000", "153937.646000", "153937.649000", "153937.652000", "153937.656000", "153937.659000", "153937.663000", "153937.666000", "153937.669000", "153937.673000", "153937.676000", "153937.680000", "153937.683000", "153937.686000", "153937.690000", "153937.693000", "153937.696000", "153937.700000", "153937.703000", "153937.706000", "153937.710000", "153937.713000", "153937.717000", "153937.720000", "153937.723000", "153937.727000", "154017.639000", "154017.643000", "154017.647000", "154017.650000", "154017.653000", "154017.657000", "154017.660000", "154017.663000", "154017.667000", "154017.670000", "154017.674000", "154017.677000", "154017.680000", "154017.684000", "154017.687000", "154017.691000", "154017.694000", "154017.698000", "154017.701000", "154017.704000", "154017.708000", "154017.711000", "154017.715000", "154017.723000", "154017.727000", "154017.730000", "154017.734000", "154057.639000", "154057.643000", "154057.647000", "154057.650000", "154057.653000", "154057.657000", "154057.660000", "154057.664000", "154057.667000", "154057.670000", "154057.674000", "154057.677000", "154057.681000", "154057.684000", "154057.687000", "154057.691000", "154057.694000", "154057.698000", "154057.701000", "154057.704000", "154057.708000", "154057.711000", "154057.715000", "154057.718000", "154057.721000", "154057.725000", "154057.728000", "154137.638000", "154137.642000", "154137.646000", "154137.649000", "154137.653000", "154137.656000", "154137.659000", "154137.663000", "154137.666000", "154137.670000", "154137.673000", "154137.676000", "154137.680000", "154137.683000", "154137.687000", "154137.690000", "154137.693000", "154137.697000", "154137.700000", "154137.704000", "154137.707000", "154137.710000", "154137.714000", "154137.717000", "154137.720000", "154137.724000", "154137.727000", "154217.638000", "154217.642000", "154217.645000", "154217.649000", "154217.652000", "154217.656000", "154217.659000", "154217.662000", "154217.666000", "154217.669000", "154217.673000", "154217.676000", "154217.679000", "154217.683000", "154217.686000", "154217.690000", "154217.693000", "154217.698000", "154217.702000", "154217.705000", "154217.708000", "154217.712000", "154217.715000", "154217.719000", "154217.722000", "154217.725000", "154217.729000", "154257.639000", "154257.643000", "154257.647000", "154257.650000", "154257.654000", "154257.657000", "154257.660000", "154257.664000", "154257.667000", "154257.670000", "154257.674000", "154257.677000", "154257.681000", "154257.684000", "154257.688000", "154257.691000", "154257.694000", "154257.698000", "154257.701000", "154257.705000", "154257.708000", "154257.712000", "154257.715000", "154257.718000", "154257.722000", "154257.725000", "154257.729000", "154311.964000", "154311.968000", "154311.972000", "154311.975000", "154311.979000", "154311.982000", "154311.986000", "154311.989000", "154311.993000"],
