{
  "AcquisitionMatrixPE": 104,
  "AcquisitionNumber": 1,
  "AcquisitionTime": "16:13:20.975000",
  "BandwidthPerPixelPhaseEncode": 17.17,
  "BaseResolution": 104,
  "BodyPartExamined": "BRAIN",
  "CoilString": "HC1-7;NC1_2",
  "ConsistencyInfo": "N4_VE11C_LATEST_20160120",
  "ConversionSoftware": "dcm2niix",
  "ConversionSoftwareVersion": "v1.0.20190902",
  "DerivedVendorReportedEchoSpacing": 0.000560011,
  "DeviceSerialNumber": "167006",
  "DwellTime": 2.1e-06,
  "EchoTime": 0.037,
  "EchoTrainLength": 104,
  "EffectiveEchoSpacing": 0.000560011,
  "FlipAngle": 52,
  "HeudiconvVersion": "0.10.0",
  "ImageComments": "Unaliased_MB4_PE3_LB",
  "ImageOrientationPatientDICOM": [0.998571, -0.0455506, 0.0279382, 0.0523329, 0.93933, -0.338998],
  "ImageType": [
    "ORIGINAL",
    "PRIMARY",
    "P",
    "MB",
    "ND",
    "MOSAIC"
],
  "ImagingFrequency": 123.259,
  "InPlanePhaseEncodingDirectionDICOM": "COL",
  "InstitutionAddress": "Chemin_Queen-Mary_4565_Montreal_District_CA_H3W_1W5",
  "InstitutionName": "IUGM",
  "InstitutionalDepartmentName": "Department",
  "MRAcquisitionType": "2D",
  "MagneticFieldStrength": 3,
  "Manufacturer": "Siemens",
  "ManufacturersModelName": "Prisma_fit",
  "Modality": "MR",
  "MultibandAccelerationFactor": 4,
  "PartialFourier": 1,
  "PatientPosition": "HFS",
  "PercentPhaseFOV": 100,
  "PhaseEncodingDirection": "j",
  "PhaseEncodingSteps": 104,
  "PhaseResolution": 1,
  "PixelBandwidth": 2290,
  "ProcedureStepDescription": "games_mario",
  "ProtocolName": "func_task-mario_run-04",
  "PulseSequenceDetails": "%CustomerSeq%_cmrr_mbep2d_bold",
  "ReceiveCoilActiveElements": "HC1-7;NC1,2",
  "ReceiveCoilName": "HeadNeck_64",
  "ReconMatrixPE": 104,
  "RepetitionTime": 1.49,
  "SAR": 0.0666972,
  "ScanOptions": "FS",
  "ScanningSequence": "EP",
  "SequenceName": "epfid2d1_104",
  "SequenceVariant": "SK_SS",
  "SeriesDescription": "func_task-mario_run-04",
  "SeriesNumber": 20,
  "ShimSetting": [631, -7249, -8825, 586, 9, -202, -71, -1],
  "SliceThickness": 2,
  "SliceTiming": [0, 0.785, 0.0975, 0.8825, 0.195, 0.98, 0.295, 1.0775, 0.3925, 1.175, 0.49, 1.275, 0.5875, 1.3725, 0.685, 0, 0.785, 0.0975, 0.8825, 0.195, 0.98, 0.295, 1.0775, 0.3925, 1.175, 0.49, 1.275, 0.5875, 1.3725, 0.685, 0, 0.785, 0.0975, 0.8825, 0.195, 0.98, 0.295, 1.0775, 0.3925, 1.175, 0.49, 1.275, 0.5875, 1.3725, 0.685, 0, 0.785, 0.0975, 0.8825, 0.195, 0.98, 0.295, 1.0775, 0.3925, 1.175, 0.49, 1.275, 0.5875, 1.3725, 0.685],
  "SoftwareVersions": "syngo_MR_E11",
  "SpacingBetweenSlices": 2,
  "StationName": "MRC35049",
  "TaskName": "mario",
  "TotalReadoutTime": 0.0576811,
  "TxRefAmp": 304.84,
  "WipMemBlock": "372a7b6a-ea6d-4711-aa2d-b03dc358ab27||Sequence: R016 ve11c/master r/e634e98; Dec 19 2017 11:00:25 by eja",
  "dcmmeta_affine": [
    [-1.9971425533294678, 0.10466570407152176, 0.021603282541036606, 100.76628112792969],
    [0.09110124409198761, 1.878660798072815, -0.679951548576355, -69.90733337402344],
    [0.05587642639875412, 0.677996039390564, 1.8807443380355835, -68.94155883789062],
    [0.0, 0.0, 0.0, 1.0]
],
  "dcmmeta_reorient_transform": [
    [0.0, -1.0, 0.0, 103.0],
    [1.0, 0.0, 0.0, 0.0],
    [0.0, 0.0, 1.0, 0.0],
    [0.0, 0.0, 0.0, 1.0]
],
  "dcmmeta_shape": [104, 104, 60, 516],
  "dcmmeta_slice_dim": 2,
  "dcmmeta_version": 0.6,
  "global": {
    "const": {
      "AcquisitionMatrix": [104, 0, 0, 104],
      "AngioFlag": "N",
      "BitsAllocated": 16,
      "BitsStored": 16,
      "BodyPartExamined": "BRAIN",
      "Columns": 832,
      "EchoNumbers": 1,
      "EchoTime": 37.0,
      "EchoTrainLength": 104,
      "FlipAngle": 52.0,
      "HighBit": 15,
      "ImageOrientationPatient": [0.9985712779099, -0.0455506226938, 0.02793821228339, 0.05233285281436, 0.93933040537533, -0.3389980266222],
      "ImagePositionPatient": [-876.60505677753, -774.26640936375, 227.3435784266],
      "ImageType": [
        "ORIGINAL",
        "PRIMARY",
        "P",
        "MB",
        "ND",
        "MOSAIC"
],
      "ImagedNucleus": "1H",
      "ImagingFrequency": 123.258909,
      "InPlanePhaseEncodingDirection": "COL",
      "LargestImagePixelValue": 4095,
      "MRAcquisitionType": "2D",
      "MagneticFieldStrength": 3.0,
      "Manufacturer": "SIEMENS",
      "ManufacturerModelName": "Prisma_fit",
      "Modality": "MR",
      "NumberOfAverages": 1.0,
      "NumberOfPhaseEncodingSteps": 104,
      "PercentPhaseFieldOfView": 100.0,
      "PercentSampling": 100.0,
      "PerformedProcedureStepStartTime": "151114.113000",
      "PhotometricInterpretation": "MONOCHROME2",
      "PixelBandwidth": 2290.0,
      "PixelRepresentation": 0,
      "PixelSpacing": [2.0, 2.0],
      "ProtocolName": "func_task-mario_run-04",
      "RepetitionTime": 1490.0,
      "RescaleIntercept": -4096.0,
      "RescaleSlope": 2.0,
      "RescaleType": "US",
      "Rows": 832,
      "SAR": 0.06669719515007,
      "SamplesPerPixel": 1,
      "ScanOptions": "FS",
      "ScanningSequence": "EP",
      "SequenceName": "epfid2d1_104",
      "SequenceVariant": [
        "SK",
        "SS"
],
      "SeriesDescription": "func_task-mario_run-04",
      "SeriesNumber": 20,
      "SeriesTime": "161437.800000",
      "SliceLocation": -39.975481206064,
      "SliceThickness": 2.0,
      "SmallestImagePixelValue": 0,
      "SoftwareVersions": "syngo MR E11",
      "SpacingBetweenSlices": 2.0000000340795,
      "SpecificCharacterSet": "ISO_IR 100",
      "StudyID": "1",
      "StudyTime": "151114.041000",
      "TransmitCoilName": "Body",
      "VariableFlipAngleFlag": "N",
      "WindowCenterWidthExplanation": "Algo1",
      "dBdt": 0.0},
    "slices": {}
  },
  "time": {
    "samples": {
      "AcquisitionNumber": [1, 2, 3, 4, 5, 6, 7, 8, 9, 10, 11, 12, 13, 14, 15, 16, 17, 18, 19, 20, 21, 22, 23, 24, 25, 26, 27, 28, 29, 30, 31, 32, 33, 34, 35, 36, 37, 38, 39, 40, 41, 42, 43, 44, 45, 46, 47, 48, 49, 50, 51, 52, 53, 54, 55, 56, 57, 58, 59, 60, 61, 62, 63, 64, 65, 66, 67, 68, 69, 70, 71, 72, 73, 74, 75, 76, 77, 78, 79, 80, 81, 82, 83, 84, 85, 86, 87, 88, 89, 90, 91, 92, 93, 94, 95, 96, 97, 98, 99, 100, 101, 102, 103, 104, 105, 106, 107, 108, 109, 110, 111, 112, 113, 114, 115, 116, 117, 118, 119, 120, 121, 122, 123, 124, 125, 126, 127, 128, 129, 130, 131, 132, 133, 134, 135, 136, 137, 138, 139, 140, 141, 142, 143, 144, 145, 146, 147, 148, 149, 150, 151, 152, 153, 154, 155, 156, 157, 158, 159, 160, 161, 162, 163, 164, 165, 166, 167, 168, 169, 170, 171, 172, 173, 174, 175, 176, 177, 178, 179, 180, 181, 182, 183, 184, 185, 186, 187, 188, 189, 190, 191, 192, 193, 194, 195, 196, 197, 198, 199, 200, 201, 202, 203, 204, 205, 206, 207, 208, 209, 210, 211, 212, 213, 214, 215, 216, 217, 218, 219, 220, 221, 222, 223, 224, 225, 226, 227, 228, 229, 230, 231, 232, 233, 234, 235, 236, 237, 238, 239, 240, 241, 242, 243, 244, 245, 246, 247, 248, 249, 250, 251, 252, 253, 254, 255, 256, 257, 258, 259, 260, 261, 262, 263, 264, 265, 266, 267, 268, 269, 270, 271, 272, 273, 274, 275, 276, 277, 278, 279, 280, 281, 282, 283, 284, 285, 286, 287, 288, 289, 290, 291, 292, 293, 294, 295, 296, 297, 298, 299, 300, 301, 302, 303, 304, 305, 306, 307, 308, 309, 310, 311, 312, 313, 314, 315, 316, 317, 318, 319, 320, 321, 322, 323, 324, 325, 326, 327, 328, 329, 330, 331, 332, 333, 334, 335, 336, 337, 338, 339, 340, 341, 342, 343, 344, 345, 346, 347, 348, 349, 350, 351, 352, 353, 354, 355, 356, 357, 358, 359, 360, 361, 362, 363, 364, 365, 366, 367, 368, 369, 370, 371, 372, 373, 374, 375, 376, 377, 378, 379, 380, 381, 382, 383, 384, 385, 386, 387, 388, 389, 390, 391, 392, 393, 394, 395, 396, 397, 398, 399, 400, 401, 402, 403, 404, 405, 406, 407, 408, 409, 410, 411, 412, 413, 414, 415, 416, 417, 418, 419, 420, 421, 422, 423, 424, 425, 426, 427, 428, 429, 430, 431, 432, 433, 434, 435, 436, 437, 438, 439, 440, 441, 442, 443, 444, 445, 446, 447, 448, 449, 450, 451, 452, 453, 454, 455, 456, 457, 458, 459, 460, 461, 462, 463, 464, 465, 466, 467, 468, 469, 470, 471, 472, 473, 474, 475, 476, 477, 478, 479, 480, 481, 482, 483, 484, 485, 486, 487, 488, 489, 490, 491, 492, 493, 494, 495, 496, 497, 498, 499, 500, 501, 502, 503, 504, 505, 506, 507, 508, 509, 510, 511, 512, 513, 514, 515, 516],
      "AcquisitionTime": ["161320.975000", "161322.465000", "161323.955000", "161325.445000", "161326.935000", "161328.425000", "161329.915000", "161331.405000", "161332.895000", "161334.385000", "161335.875000", "161337.365000", "161338.855000", "161340.345000", "161341.835000", "161343.325000", "161344.815000", "161346.305000", "161347.795000", "161349.285000", "161350.775000", "161352.265000", "161353.755000", "161355.245000", "161356.735000", "161358.225000", "161359.715000", "161401.205000", "161402.695000", "161404.185000", "161405.675000", "161407.165000", "161408.655000", "161410.145000", "161411.635000", "161413.125000", "161414.615000", "161416.105000", "161417.595000", "161419.085000", "161420.575000", "161422.065000", "161423.555000", "161425.045000", "161426.535000", "161428.025000", "161429.515000", "161431.005000", "161432.495000", "161433.985000", "161435.475000", "161436.965000", "161438.455000", "161439.945000", "161441.435000", "161442.925000", "161444.415000", "161445.905000", "161447.395000", "161448.885000", "161450.375000", "161451.865000", "161453.355000", "161454.845000", "161456.335000", "161457.825000", "161459.315000", "161500.805000", "161502.295000", "161503.785000", "161505.275000", "161506.765000", "161508.255000", "161509.745000", "161511.235000", "161512.725000", "161514.215000", "161515.705000", "161517.195000", "161518.685000", "161520.175000", "161521.665000", "161523.155000", "161524.645000", "161526.135000", "161527.625000", "161529.115000", "161530.605000", "161532.095000", "161533.585000", "161535.075000", "161536.565000", "161538.055000", "161539.545000", "161541.035000", "161542.525000", "161544.015000", "161545.505000", "161546.995000", "161548.485000", "161549.975000", "161551.465000", "161552.955000", "161554.445000", "161555.935000", "161557.425000", "161558.915000", "161600.405000", "161601.895000", "161603.385000", "161604.875000", "161606.365000", "161607.855000", "161609.345000", "161610.835000", "161612.325000", "161613.815000", "161615.305000", "161616.795000", "161618.285000", "161619.775000", "161621.265000", "161622.755000", "161624.245000", "161625.735000", "161627.225000", "161628.715000", "161630.205000", "161631.695000", "161633.185000", "161634.675000", "161636.165000", "161637.655000", "161639.145000", "161640.635000", "161642.125000", "161643.615000", "161645.105000", "161646.595000", "161648.085000", "161649.575000", "161651.065000", "161652.555000", "161654.045000", "161655.535000", "161657.025000", "161658.515000", "161700.005000", "161701.495000", "161702.985000", "161704.475000", "161705.965000", "161707.455000", "161708.945000", "161710.435000", "161711.925000", "161713.415000", "161714.905000", "161716.395000", "161717.885000", "161719.375000", "161720.865000", "161722.355000", "161723.845000", "161725.335000", "161726.825000", "161728.315000", "161729.805000", "161731.295000", "161732.785000", "161734.275000", "161735.765000", "161737.255000", "161738.745000", "161740.235000", "161741.725000", "161743.215000", "161744.705000", "161746.195000", "161747.685000", "161749.175000", "161750.665000", "161752.155000", "161753.645000", "161755.135000", "161756.625000", "161758.115000", "161759.605000", "161801.095000", "161802.585000", "161804.075000", "161805.565000", "161807.055000", "161808.545000", "161810.035000", "161811.525000", "161813.015000", "161814.505000", "161815.995000", "161817.485000", "161818.975000", "161820.465000", "161821.955000", "161823.445000", "161824.935000", "161826.425000", "161827.915000", "161829.405000", "161830.895000", "161832.385000", "161833.875000", "161835.365000", "161836.855000", "161838.345000", "161839.835000", "161841.325000", "161842.815000", "161844.305000", "161845.795000", "161847.285000", "161848.775000", "161850.265000", "161851.755000", "161853.245000", "161854.735000", "161856.225000", "161857.715000", "161859.205000", "161900.695000", "161902.185000", "161903.675000", "161905.165000", "161906.655000", "161908.145000", "161909.635000", "161911.125000", "161912.615000", "161914.105000", "161915.595000", "161917.085000", "161918.575000", "161920.065000", "161921.555000", "161923.045000", "161924.535000", "161926.025000", "161927.515000", "161929.005000", "161930.495000", "161931.985000", "161933.475000", "161934.965000", "161936.455000", "161937.945000", "161939.435000", "161940.925000", "161942.415000", "161943.905000", "161945.395000", "161946.885000", "161948.375000", "161949.865000", "161951.355000", "161952.845000", "161954.335000", "161955.825000", "161957.315000", "161958.805000", "162000.295000", "162001.785000", "162003.275000", "162004.765000", "162006.255000", "162007.745000", "162009.235000", "162010.725000", "162012.215000", "162013.705000", "162015.195000", "162016.685000", "162018.175000", "162019.665000", "162021.155000", "162022.645000", "162024.135000", "162025.625000", "162027.115000", "162028.605000", "162030.095000", "162031.585000", "162033.075000", "162034.565000", "162036.055000", "162037.545000", "162039.035000", "162040.525000", "162042.015000", "162043.505000", "162044.995000", "162046.485000", "162047.975000", "162049.465000", "162050.955000", "162052.445000", "162053.935000", "162055.425000", "162056.915000", "162058.405000", "162059.895000", "162101.385000", "162102.875000", "162104.365000", "162105.855000", "162107.345000", "162108.835000", "162110.325000", "162111.815000", "162113.305000", "162114.795000", "162116.285000", "162117.775000", "162119.265000", "162120.755000", "162122.245000", "162123.735000", "162125.225000", "162126.715000", "162128.205000", "162129.695000", "162131.185000", "162132.675000", "162134.165000", "162135.655000", "162137.145000", "162138.635000", "162140.125000", "162141.615000", "162143.105000", "162144.595000", "162146.085000", "162147.575000", "162149.065000", "162150.555000", "162152.045000", "162153.535000", "162155.025000", "162156.515000", "162158.005000", "162159.495000", "162200.985000", "162202.475000", "162203.965000", "162205.455000", "162206.945000", "162208.435000", "162209.925000", "162211.415000", "162212.905000", "162214.395000", "162215.885000", "162217.375000", "162218.865000", "162220.355000", "162221.845000", "162223.335000", "162224.825000", "162226.315000", "162227.805000", "162229.295000", "162230.785000", "162232.275000", "162233.765000", "162235.255000", "162236.745000", "162238.235000", "162239.725000", "162241.215000", "162242.705000", "162244.195000", "162245.685000", "162247.175000", "162248.665000", "162250.155000", "162251.645000", "162253.135000", "162254.625000", "162256.115000", "162257.605000", "162259.095000", "162300.585000", "162302.075000", "162303.565000", "162305.055000", "162306.545000", "162308.035000", "162309.525000", "162311.015000", "162312.505000", "162313.995000", "162315.485000", "162316.975000", "162318.465000", "162319.955000", "162321.445000", "162322.935000", "162324.425000", "162325.915000", "162327.405000", "162328.895000", "162330.385000", "162331.875000", "162333.365000", "162334.855000", "162336.345000", "162337.835000", "162339.325000", "162340.815000", "162342.305000", "162343.795000", "162345.285000", "162346.775000", "162348.265000", "162349.755000", "162351.245000", "162352.735000", "162354.225000", "162355.715000", "162357.205000", "162358.695000", "162400.185000", "162401.675000", "162403.165000", "162404.655000", "162406.145000", "162407.635000", "162409.125000", "162410.615000", "162412.105000", "162413.595000", "162415.085000", "162416.575000", "162418.065000", "162419.555000", "162421.045000", "162422.535000", "162424.025000", "162425.515000", "162427.005000", "162428.495000", "162429.985000", "162431.475000", "162432.965000", "162434.455000", "162435.945000", "162437.435000", "162438.925000", "162440.415000", "162441.905000", "162443.395000", "162444.885000", "162446.375000", "162447.865000", "162449.355000", "162450.845000", "162452.335000", "162453.825000", "162455.315000", "162456.805000", "162458.295000", "162459.785000", "162501.275000", "162502.765000", "162504.255000", "162505.745000", "162507.235000", "162508.725000", "162510.215000", "162511.705000", "162513.195000", "162514.685000", "162516.175000", "162517.665000", "162519.155000", "162520.645000", "162522.135000", "162523.625000", "162525.115000", "162526.605000", "162528.095000", "162529.585000", "162531.075000", "162532.565000", "162534.055000", "162535.545000", "162537.035000", "162538.525000", "162540.015000", "162541.505000", "162542.995000", "162544.485000", "162545.975000", "162547.465000", "162548.955000", "162550.445000", "162551.935000", "162553.425000", "162554.915000", "162556.405000", "162557.895000", "162559.385000", "162600.875000", "162602.365000", "162603.855000", "162605.345000", "162606.835000", "162608.325000"],
      "ContentTime": ["161437.802000", "161437.805000", "161437.807000", "161437.810000", "161437.812000", "161437.815000", "161437.817000", "161437.820000", "161437.822000", "161437.825000", "161437.827000", "161437.830000", "161437.833000", "161437.835000", "161437.838000", "161437.840000", "161437.843000", "161437.845000", "161437.848000", "161437.850000", "161437.853000", "161437.855000", "161457.754000", "161457.756000", "161457.759000", "161457.762000", "161457.764000", "161457.767000", "161457.769000", "161457.772000", "161457.774000", "161457.777000", "161457.779000", "161457.782000", "161457.784000", "161457.787000", "161457.793000", "161457.795000", "161457.798000", "161457.800000", "161457.803000", "161457.806000", "161517.747000", "161517.754000", "161517.757000", "161517.759000", "161517.762000", "161517.764000", "161517.767000", "161517.769000", "161517.772000", "161517.774000", "161517.777000", "161517.779000", "161517.782000", "161517.785000", "161517.787000", "161517.790000", "161517.792000", "161517.795000", "161517.797000", "161517.800000", "161537.752000", "161537.754000", "161537.757000", "161537.759000", "161537.762000", "161537.764000", "161537.767000", "161537.770000", "161537.772000", "161537.775000", "161537.777000", "161537.780000", "161537.782000", "161537.785000", "161537.787000", "161537.790000", "161537.793000", "161537.795000", "161537.798000", "161537.800000", "161557.756000", "161557.759000", "161557.761000", "161557.764000", "161557.766000", "161557.769000", "161557.772000", "161557.774000", "161557.777000", "161557.779000", "161557.782000", "161557.784000", "161557.787000", "161557.789000", "161557.792000", "161557.795000", "161557.797000", "161557.800000", "161557.802000", "161557.805000", "161637.781000", "161637.784000", "161637.787000", "161637.789000", "161637.792000", "161637.794000", "161637.797000", "161637.799000", "161637.802000", "161637.804000", "161637.807000", "161637.810000", "161637.812000", "161637.815000", "161637.817000", "161637.820000", "161637.822000", "161637.825000", "161637.827000", "161637.830000", "161637.832000", "161637.835000", "161637.837000", "161637.840000", "161637.842000", "161637.845000", "161637.848000", "161637.850000", "161637.853000", "161717.784000", "161717.787000", "161717.789000", "161717.792000", "161717.795000", "161717.797000", "161717.800000", "161717.802000", "161717.805000", "161717.807000", "161717.810000", "161717.812000", "161717.815000", "161717.817000", "161717.820000", "161717.822000", "161717.825000", "161717.827000", "161717.830000", "161717.833000", "161717.835000", "161717.838000", "161717.840000", "161717.843000", "161717.845000", "161717.848000", "161717.850000", "161757.791000", "161757.794000", "161757.796000", "161757.805000", "161757.808000", "161757.810000", "161757.813000", "161757.815000", "161757.818000", "161757.821000", "161757.823000", "161757.826000", "161757.828000", "161757.831000", "161757.833000", "161757.836000", "161757.838000", "161757.841000", "161757.843000", "161757.846000", "161757.848000", "161757.851000", "161757.853000", "161757.856000", "161757.859000", "161757.861000", "161817.727000", "161817.729000", "161817.732000", "161817.735000", "161817.737000", "161817.740000", "161817.742000", "161817.745000", "161817.747000", "161817.750000", "161817.752000", "161817.755000", "161817.758000", "161817.760000", "161857.780000", "161857.783000", "161857.786000", "161857.788000", "161857.791000", "161857.793000", "161857.796000", "161857.799000", "161857.801000", "161857.804000", "161857.806000", "161857.809000", "161857.811000", "161857.814000", "161857.816000", "161857.819000", "161857.821000", "161857.824000", "161857.826000", "161857.829000", "161857.831000", "161857.834000", "161857.837000", "161857.839000", "161857.842000", "161857.844000", "161857.847000", "161937.795000", "161937.797000", "161937.800000", "161937.802000", "161937.805000", "161937.807000", "161937.810000", "161937.812000", "161937.815000", "161937.818000", "161937.820000", "161937.823000", "161937.825000", "161937.828000", "161937.830000", "161937.833000", "161937.835000", "161937.838000", "161937.841000", "161937.843000", "161937.846000", "161937.848000", "161937.851000", "161937.853000", "161937.856000", "161937.858000", "161937.861000", "162017.785000", "162017.788000", "162017.791000", "162017.794000", "162017.796000", "162017.799000", "162017.802000", "162017.804000", "162017.807000", "162017.809000", "162017.812000", "162017.815000", "162017.817000", "162017.820000", "162017.822000", "162017.825000", "162017.827000", "162017.830000", "162017.832000", "162017.835000", "162017.837000", "162017.840000", "162017.843000", "162017.845000", "162017.848000", "162017.850000", "162057.780000", "162057.783000", "162057.786000", "162057.788000", "162057.791000", "162057.793000", "162057.796000", "162057.798000", "162057.801000", "162057.804000", "162057.806000", "162057.809000", "162057.811000", "162057.814000", "162057.816000", "162057.819000", "162057.821000", "162057.824000", "162057.826000", "162057.829000", "162057.831000", "162057.834000", "162057.837000", "162057.839000", "162057.842000", "162057.844000", "162057.847000", "162137.777000", "162137.780000", "162137.782000", "162137.785000", "162137.788000", "162137.790000", "162137.793000", "162137.805000", "162137.807000", "162137.810000", "162137.812000", "162137.815000", "162137.818000", "162137.820000", "162137.823000", "162137.825000", "162137.828000", "162137.830000", "162137.833000", "162137.836000", "162137.838000", "162137.841000", "162137.843000", "162137.846000", "162137.848000", "162137.851000", "162137.853000", "162217.792000", "162217.795000", "162217.797000", "162217.800000", "162217.802000", "162217.805000", "162217.808000", "162217.810000", "162217.813000", "162217.815000", "162217.818000", "162217.820000", "162217.823000", "162217.825000", "162217.828000", "162217.831000", "162217.833000", "162217.836000", "162217.840000", "162217.843000", "162217.845000", "162217.848000", "162217.850000", "162217.853000", "162217.855000", "162217.858000", "162217.861000", "162257.800000", "162257.803000", "162257.805000", "162257.808000", "162257.810000", "162257.813000", "162257.816000", "162257.818000", "162257.821000", "162257.823000", "162257.826000", "162257.828000", "162257.831000", "162257.833000", "162257.836000", "162257.838000", "162257.841000", "162257.844000", "162257.846000", "162257.849000", "162257.851000", "162257.854000", "162257.857000", "162257.859000", "162257.862000", "162257.864000", "162257.867000", "162337.780000", "162337.782000", "162337.785000", "162337.788000", "162337.790000", "162337.793000", "162337.795000", "162337.798000", "162337.800000", "162337.803000", "162337.805000", "162337.808000", "162337.810000", "162337.813000", "162337.816000", "162337.818000", "162337.821000", "162337.823000", "162337.826000", "162337.828000", "162337.831000", "162337.833000", "162337.836000", "162337.838000", "162337.841000", "162337.843000", "162337.846000", "162418.177000", "162418.180000", "162418.182000", "162418.185000", "162418.196000", "162418.198000", "162418.201000", "162418.204000", "162418.206000", "162418.209000", "162418.211000", "162418.214000", "162418.216000", "162418.219000", "162418.221000", "162418.224000", "162418.226000", "162418.229000", "162418.235000", "162418.237000", "162418.240000", "162418.242000", "162418.245000", "162418.247000", "162418.250000", "162418.253000", "162457.791000", "162457.794000", "162457.797000", "162457.799000", "162457.802000", "162457.804000", "162457.807000", "162457.810000", "162457.812000", "162457.815000", "162457.818000", "162457.820000", "162457.823000", "162457.826000", "162457.828000", "162457.831000", "162457.833000", "162457.836000", "162457.838000", "162457.841000", "162457.843000", "162457.846000", "162457.849000", "162457.851000", "162457.854000", "162457.856000", "162457.859000", "162537.783000", "162537.785000", "162537.788000", "162537.790000", "162537.793000", "162537.796000", "162537.798000", "162537.801000", "162537.803000", "162537.806000", "162537.808000", "162537.811000", "162537.813000", "162537.816000", "162537.818000", "162537.821000", "162537.824000", "162537.826000", "162537.829000", "162537.831000", "162537.834000", "162537.837000", "162537.839000", "162537.842000", "162537.844000", "162537.847000", "162537.849000", "162612.139000", "162612.142000", "162612.144000", "162612.147000", "162612.149000", "162612.152000", "162612.155000", "162612.157000", "162612.160000", "162612.162000", "162612.165000", "162612.168000", "162612.170000", "162612.173000", "162612.175000", "162612.178000", "162612.181000", "162612.183000", "162612.186000", "162612.188000", "162612.191000", "162612.193000", "162612.196000"],
