{
  "AcquisitionMatrixPE": 104,
  "AcquisitionNumber": 1,
  "AcquisitionTime": "15:59:10.935000",
  "BandwidthPerPixelPhaseEncode": 17.17,
  "BaseResolution": 104,
  "BodyPartExamined": "BRAIN",
  "CoilString": "HC1-7;NC1_2",
  "ConsistencyInfo": "N4_VE11C_LATEST_20160120",
  "ConversionSoftware": "dcm2niix",
  "ConversionSoftwareVersion": "v1.0.20190902",
  "DerivedVendorReportedEchoSpacing": 0.000560011,
  "DeviceSerialNumber": "167006",
  "DwellTime": 2.1e-06,
  "EchoTime": 0.037,
  "EchoTrainLength": 104,
  "EffectiveEchoSpacing": 0.000560011,
  "FlipAngle": 52,
  "HeudiconvVersion": "0.10.0",
  "ImageComments": "Unaliased_MB4_PE3_LB",
  "ImageOrientationPatientDICOM": [0.998571, -0.0455506, 0.0279382, 0.0523329, 0.93933, -0.338998],
  "ImageType": [
    "ORIGINAL",
    "PRIMARY",
    "P",
    "MB",
    "ND",
    "MOSAIC"
],
  "ImagingFrequency": 123.259,
  "InPlanePhaseEncodingDirectionDICOM": "COL",
  "InstitutionAddress": "Chemin_Queen-Mary_4565_Montreal_District_CA_H3W_1W5",
  "InstitutionName": "IUGM",
  "InstitutionalDepartmentName": "Department",
  "MRAcquisitionType": "2D",
  "MagneticFieldStrength": 3,
  "Manufacturer": "Siemens",
  "ManufacturersModelName": "Prisma_fit",
  "Modality": "MR",
  "MultibandAccelerationFactor": 4,
  "PartialFourier": 1,
  "PatientPosition": "HFS",
  "PercentPhaseFOV": 100,
  "PhaseEncodingDirection": "j",
  "PhaseEncodingSteps": 104,
  "PhaseResolution": 1,
  "PixelBandwidth": 2290,
  "ProcedureStepDescription": "games_mario",
  "ProtocolName": "func_task-mario_run-03",
  "PulseSequenceDetails": "%CustomerSeq%_cmrr_mbep2d_bold",
  "ReceiveCoilActiveElements": "HC1-7;NC1,2",
  "ReceiveCoilName": "HeadNeck_64",
  "ReconMatrixPE": 104,
  "RepetitionTime": 1.49,
  "SAR": 0.0666972,
  "ScanOptions": "FS",
  "ScanningSequence": "EP",
  "SequenceName": "epfid2d1_104",
  "SequenceVariant": "SK_SS",
  "SeriesDescription": "func_task-mario_run-03",
  "SeriesNumber": 17,
  "ShimSetting": [631, -7249, -8825, 586, 9, -202, -71, -1],
  "SliceThickness": 2,
  "SliceTiming": [0, 0.7825, 0.0975, 0.88, 0.195, 0.9775, 0.2925, 1.0775, 0.39, 1.175, 0.49, 1.2725, 0.5875, 1.37, 0.685, 0, 0.7825, 0.0975, 0.88, 0.195, 0.9775, 0.2925, 1.0775, 0.39, 1.175, 0.49, 1.2725, 0.5875, 1.37, 0.685, 0, 0.7825, 0.0975, 0.88, 0.195, 0.9775, 0.2925, 1.0775, 0.39, 1.175, 0.49, 1.2725, 0.5875, 1.37, 0.685, 0, 0.7825, 0.0975, 0.88, 0.195, 0.9775, 0.2925, 1.0775, 0.39, 1.175, 0.49, 1.2725, 0.5875, 1.37, 0.685],
  "SoftwareVersions": "syngo_MR_E11",
  "SpacingBetweenSlices": 2,
  "StationName": "MRC35049",
  "TaskName": "mario",
  "TotalReadoutTime": 0.0576811,
  "TxRefAmp": 304.84,
  "WipMemBlock": "05628e64-a487-47dd-960e-1d4d101e0011||Sequence: R016 ve11c/master r/e634e98; Dec 19 2017 11:00:25 by eja",
  "dcmmeta_affine": [
    [-1.9971425533294678, 0.10466570407152176, 0.021603282541036606, 100.76628112792969],
    [0.09110124409198761, 1.878660798072815, -0.679951548576355, -69.90733337402344],
    [0.05587642639875412, 0.677996039390564, 1.8807443380355835, -68.94155883789062],
    [0.0, 0.0, 0.0, 1.0]
],
  "dcmmeta_reorient_transform": [
    [0.0, -1.0, 0.0, 103.0],
    [1.0, 0.0, 0.0, 0.0],
    [0.0, 0.0, 1.0, 0.0],
    [0.0, 0.0, 0.0, 1.0]
],
  "dcmmeta_shape": [104, 104, 60, 448],
  "dcmmeta_slice_dim": 2,
  "dcmmeta_version": 0.6,
  "global": {
    "const": {
      "AcquisitionMatrix": [104, 0, 0, 104],
      "AngioFlag": "N",
      "BitsAllocated": 16,
      "BitsStored": 16,
      "BodyPartExamined": "BRAIN",
      "Columns": 832,
      "EchoNumbers": 1,
      "EchoTime": 37.0,
      "EchoTrainLength": 104,
      "FlipAngle": 52.0,
      "HighBit": 15,
      "ImageOrientationPatient": [0.9985712779099, -0.0455506226938, 0.02793821228339, 0.05233285281436, 0.93933040537533, -0.3389980266222],
      "ImagePositionPatient": [-876.60505677753, -774.26640936375, 227.3435784266],
      "ImageType": [
        "ORIGINAL",
        "PRIMARY",
        "P",
        "MB",
        "ND",
        "MOSAIC"
],
      "ImagedNucleus": "1H",
      "ImagingFrequency": 123.258904,
      "InPlanePhaseEncodingDirection": "COL",
      "LargestImagePixelValue": 4095,
      "MRAcquisitionType": "2D",
      "MagneticFieldStrength": 3.0,
      "Manufacturer": "SIEMENS",
      "ManufacturerModelName": "Prisma_fit",
      "Modality": "MR",
      "NumberOfAverages": 1.0,
      "NumberOfPhaseEncodingSteps": 104,
      "PercentPhaseFieldOfView": 100.0,
      "PercentSampling": 100.0,
      "PerformedProcedureStepStartTime": "151114.113000",
      "PhotometricInterpretation": "MONOCHROME2",
      "PixelBandwidth": 2290.0,
      "PixelRepresentation": 0,
      "PixelSpacing": [2.0, 2.0],
      "ProtocolName": "func_task-mario_run-03",
      "RepetitionTime": 1490.0,
      "RescaleIntercept": -4096.0,
      "RescaleSlope": 2.0,
      "RescaleType": "US",
      "Rows": 832,
      "SAR": 0.06669719515007,
      "SamplesPerPixel": 1,
      "ScanOptions": "FS",
      "ScanningSequence": "EP",
      "SequenceName": "epfid2d1_104",
      "SequenceVariant": [
        "SK",
        "SS"
],
      "SeriesDescription": "func_task-mario_run-03",
      "SeriesNumber": 17,
      "SeriesTime": "160008.618000",
      "SliceLocation": -39.975481206064,
      "SliceThickness": 2.0,
      "SmallestImagePixelValue": 0,
      "SoftwareVersions": "syngo MR E11",
      "SpacingBetweenSlices": 2.0000000340795,
      "SpecificCharacterSet": "ISO_IR 100",
      "StudyID": "1",
      "StudyTime": "151114.041000",
      "TransmitCoilName": "Body",
      "VariableFlipAngleFlag": "N",
      "WindowCenterWidthExplanation": "Algo1",
      "dBdt": 0.0},
    "slices": {}
  },
  "time": {
    "samples": {
      "AcquisitionNumber": [1, 2, 3, 4, 5, 6, 7, 8, 9, 10, 11, 12, 13, 14, 15, 16, 17, 18, 19, 20, 21, 22, 23, 24, 25, 26, 27, 28, 29, 30, 31, 32, 33, 34, 35, 36, 37, 38, 39, 40, 41, 42, 43, 44, 45, 46, 47, 48, 49, 50, 51, 52, 53, 54, 55, 56, 57, 58, 59, 60, 61, 62, 63, 64, 65, 66, 67, 68, 69, 70, 71, 72, 73, 74, 75, 76, 77, 78, 79, 80, 81, 82, 83, 84, 85, 86, 87, 88, 89, 90, 91, 92, 93, 94, 95, 96, 97, 98, 99, 100, 101, 102, 103, 104, 105, 106, 107, 108, 109, 110, 111, 112, 113, 114, 115, 116, 117, 118, 119, 120, 121, 122, 123, 124, 125, 126, 127, 128, 129, 130, 131, 132, 133, 134, 135, 136, 137, 138, 139, 140, 141, 142, 143, 144, 145, 146, 147, 148, 149, 150, 151, 152, 153, 154, 155, 156, 157, 158, 159, 160, 161, 162, 163, 164, 165, 166, 167, 168, 169, 170, 171, 172, 173, 174, 175, 176, 177, 178, 179, 180, 181, 182, 183, 184, 185, 186, 187, 188, 189, 190, 191, 192, 193, 194, 195, 196, 197, 198, 199, 200, 201, 202, 203, 204, 205, 206, 207, 208, 209, 210, 211, 212, 213, 214, 215, 216, 217, 218, 219, 220, 221, 222, 223, 224, 225, 226, 227, 228, 229, 230, 231, 232, 233, 234, 235, 236, 237, 238, 239, 240, 241, 242, 243, 244, 245, 246, 247, 248, 249, 250, 251, 252, 253, 254, 255, 256, 257, 258, 259, 260, 261, 262, 263, 264, 265, 266, 267, 268, 269, 270, 271, 272, 273, 274, 275, 276, 277, 278, 279, 280, 281, 282, 283, 284, 285, 286, 287, 288, 289, 290, 291, 292, 293, 294, 295, 296, 297, 298, 299, 300, 301, 302, 303, 304, 305, 306, 307, 308, 309, 310, 311, 312, 313, 314, 315, 316, 317, 318, 319, 320, 321, 322, 323, 324, 325, 326, 327, 328, 329, 330, 331, 332, 333, 334, 335, 336, 337, 338, 339, 340, 341, 342, 343, 344, 345, 346, 347, 348, 349, 350, 351, 352, 353, 354, 355, 356, 357, 358, 359, 360, 361, 362, 363, 364, 365, 366, 367, 368, 369, 370, 371, 372, 373, 374, 375, 376, 377, 378, 379, 380, 381, 382, 383, 384, 385, 386, 387, 388, 389, 390, 391, 392, 393, 394, 395, 396, 397, 398, 399, 400, 401, 402, 403, 404, 405, 406, 407, 408, 409, 410, 411, 412, 413, 414, 415, 416, 417, 418, 419, 420, 421, 422, 423, 424, 425, 426, 427, 428, 429, 430, 431, 432, 433, 434, 435, 436, 437, 438, 439, 440, 441, 442, 443, 444, 445, 446, 447, 448],
      "AcquisitionTime": ["155910.935000", "155912.425000", "155913.915000", "155915.405000", "155916.895000", "155918.385000", "155919.875000", "155921.365000", "155922.855000", "155924.345000", "155925.835000", "155927.325000", "155928.815000", "155930.305000", "155931.795000", "155933.285000", "155934.775000", "155936.265000", "155937.755000", "155939.245000", "155940.735000", "155942.225000", "155943.715000", "155945.205000", "155946.695000", "155948.185000", "155949.675000", "155951.165000", "155952.655000", "155954.145000", "155955.635000", "155957.125000", "155958.615000", "160000.105000", "160001.595000", "160003.085000", "160004.575000", "160006.065000", "160007.555000", "160009.045000", "160010.535000", "160012.025000", "160013.515000", "160015.005000", "160016.495000", "160017.985000", "160019.475000", "160020.965000", "160022.455000", "160023.945000", "160025.435000", "160026.925000", "160028.415000", "160029.905000", "160031.395000", "160032.885000", "160034.375000", "160035.865000", "160037.355000", "160038.845000", "160040.335000", "160041.825000", "160043.315000", "160044.805000", "160046.295000", "160047.785000", "160049.275000", "160050.765000", "160052.255000", "160053.745000", "160055.235000", "160056.725000", "160058.215000", "160059.705000", "160101.195000", "160102.685000", "160104.175000", "160105.665000", "160107.155000", "160108.645000", "160110.135000", "160111.625000", "160113.115000", "160114.605000", "160116.095000", "160117.585000", "160119.075000", "160120.565000", "160122.055000", "160123.545000", "160125.035000", "160126.525000", "160128.015000", "160129.505000", "160130.995000", "160132.485000", "160133.975000", "160135.465000", "160136.955000", "160138.445000", "160139.935000", "160141.425000", "160142.915000", "160144.405000", "160145.895000", "160147.385000", "160148.875000", "160150.365000", "160151.855000", "160153.345000", "160154.835000", "160156.325000", "160157.815000", "160159.305000", "160200.795000", "160202.285000", "160203.775000", "160205.265000", "160206.755000", "160208.245000", "160209.735000", "160211.225000", "160212.715000", "160214.205000", "160215.695000", "160217.185000", "160218.675000", "160220.165000", "160221.655000", "160223.145000", "160224.635000", "160226.125000", "160227.615000", "160229.105000", "160230.595000", "160232.085000", "160233.575000", "160235.065000", "160236.555000", "160238.045000", "160239.535000", "160241.025000", "160242.515000", "160244.005000", "160245.495000", "160246.985000", "160248.475000", "160249.965000", "160251.455000", "160252.945000", "160254.435000", "160255.925000", "160257.415000", "160258.905000", "160300.395000", "160301.885000", "160303.375000", "160304.865000", "160306.355000", "160307.845000", "160309.335000", "160310.825000", "160312.315000", "160313.805000", "160315.295000", "160316.785000", "160318.275000", "160319.765000", "160321.255000", "160322.745000", "160324.235000", "160325.725000", "160327.215000", "160328.705000", "160330.195000", "160331.685000", "160333.175000", "160334.665000", "160336.155000", "160337.645000", "160339.135000", "160340.625000", "160342.115000", "160343.605000", "160345.095000", "160346.585000", "160348.075000", "160349.565000", "160351.055000", "160352.545000", "160354.035000", "160355.525000", "160357.015000", "160358.505000", "160359.995000", "160401.485000", "160402.975000", "160404.465000", "160405.955000", "160407.445000", "160408.935000", "160410.425000", "160411.915000", "160413.405000", "160414.895000", "160416.385000", "160417.875000", "160419.365000", "160420.855000", "160422.345000", "160423.835000", "160425.325000", "160426.815000", "160428.305000", "160429.795000", "160431.285000", "160432.775000", "160434.265000", "160435.755000", "160437.245000", "160438.735000", "160440.225000", "160441.715000", "160443.205000", "160444.695000", "160446.185000", "160447.675000", "160449.165000", "160450.655000", "160452.145000", "160453.635000", "160455.125000", "160456.615000", "160458.105000", "160459.595000", "160501.085000", "160502.575000", "160504.065000", "160505.555000", "160507.045000", "160508.535000", "160510.025000", "160511.515000", "160513.005000", "160514.495000", "160515.985000", "160517.475000", "160518.965000", "160520.455000", "160521.945000", "160523.435000", "160524.925000", "160526.415000", "160527.905000", "160529.395000", "160530.885000", "160532.375000", "160533.865000", "160535.355000", "160536.845000", "160538.335000", "160539.825000", "160541.315000", "160542.805000", "160544.295000", "160545.785000", "160547.275000", "160548.765000", "160550.255000", "160551.745000", "160553.235000", "160554.725000", "160556.215000", "160557.705000", "160559.195000", "160600.685000", "160602.175000", "160603.665000", "160605.155000", "160606.645000", "160608.135000", "160609.625000", "160611.115000", "160612.605000", "160614.095000", "160615.585000", "160617.075000", "160618.565000", "160620.055000", "160621.545000", "160623.035000", "160624.525000", "160626.015000", "160627.505000", "160628.995000", "160630.485000", "160631.975000", "160633.465000", "160634.955000", "160636.445000", "160637.935000", "160639.425000", "160640.915000", "160642.405000", "160643.895000", "160645.385000", "160646.875000", "160648.365000", "160649.855000", "160651.345000", "160652.835000", "160654.325000", "160655.815000", "160657.305000", "160658.795000", "160700.285000", "160701.775000", "160703.265000", "160704.755000", "160706.245000", "160707.735000", "160709.225000", "160710.715000", "160712.205000", "160713.695000", "160715.185000", "160716.675000", "160718.165000", "160719.655000", "160721.145000", "160722.635000", "160724.125000", "160725.615000", "160727.105000", "160728.595000", "160730.085000", "160731.575000", "160733.065000", "160734.555000", "160736.045000", "160737.535000", "160739.025000", "160740.515000", "160742.005000", "160743.495000", "160744.985000", "160746.475000", "160747.965000", "160749.455000", "160750.945000", "160752.435000", "160753.925000", "160755.415000", "160756.905000", "160758.395000", "160759.885000", "160801.375000", "160802.865000", "160804.355000", "160805.845000", "160807.335000", "160808.825000", "160810.315000", "160811.805000", "160813.295000", "160814.785000", "160816.275000", "160817.765000", "160819.255000", "160820.745000", "160822.235000", "160823.725000", "160825.215000", "160826.705000", "160828.195000", "160829.685000", "160831.175000", "160832.665000", "160834.155000", "160835.645000", "160837.135000", "160838.625000", "160840.115000", "160841.605000", "160843.095000", "160844.585000", "160846.075000", "160847.565000", "160849.055000", "160850.545000", "160852.035000", "160853.525000", "160855.015000", "160856.505000", "160857.995000", "160859.485000", "160900.975000", "160902.465000", "160903.955000", "160905.445000", "160906.935000", "160908.425000", "160909.915000", "160911.405000", "160912.895000", "160914.385000", "160915.875000", "160917.365000", "160918.855000", "160920.345000", "160921.835000", "160923.325000", "160924.815000", "160926.305000", "160927.795000", "160929.285000", "160930.775000", "160932.265000", "160933.755000", "160935.245000", "160936.735000", "160938.225000", "160939.715000", "160941.205000", "160942.695000", "160944.185000", "160945.675000", "160947.165000", "160948.655000", "160950.145000", "160951.635000", "160953.125000", "160954.615000", "160956.105000", "160957.595000", "160959.085000", "161000.575000", "161002.065000", "161003.555000", "161005.045000", "161006.535000", "161008.025000", "161009.515000", "161011.005000", "161012.495000", "161013.985000", "161015.475000", "161016.965000"],
      "ContentTime": ["160008.620000", "160008.623000", "160028.687000", "160028.690000", "160028.692000", "160028.696000", "160028.699000", "160028.701000", "160028.708000", "160028.711000", "160028.713000", "160028.716000", "160028.719000", "160028.722000", "160028.725000", "160028.727000", "160028.730000", "160028.732000", "160028.735000", "160028.737000", "160028.740000", "160028.742000", "160048.674000", "160048.677000", "160048.679000", "160048.682000", "160048.690000", "160048.693000", "160048.695000", "160048.698000", "160048.700000", "160048.703000", "160048.705000", "160048.708000", "160048.710000", "160048.713000", "160048.715000", "160048.718000", "160048.720000", "160048.723000", "160048.725000", "160048.728000", "160048.730000", "160108.667000", "160108.670000", "160108.681000", "160108.684000", "160108.687000", "160108.689000", "160108.692000", "160108.694000", "160108.697000", "160108.699000", "160108.702000", "160108.704000", "160108.707000", "160108.709000", "160108.712000", "160108.714000", "160108.717000", "160108.719000", "160108.722000", "160108.724000", "160128.672000", "160128.675000", "160128.678000", "160128.680000", "160128.683000", "160128.685000", "160128.688000", "160128.690000", "160128.693000", "160128.695000", "160128.698000", "160128.700000", "160128.703000", "160128.705000", "160128.708000", "160128.711000", "160128.713000", "160128.716000", "160128.718000", "160128.721000", "160148.671000", "160148.674000", "160148.677000", "160148.679000", "160148.682000", "160148.684000", "160148.687000", "160148.689000", "160148.692000", "160148.694000", "160148.697000", "160148.710000", "160148.712000", "160148.715000", "160148.718000", "160148.720000", "160148.723000", "160148.725000", "160148.728000", "160148.730000", "160228.704000", "160228.707000", "160228.712000", "160228.714000", "160228.717000", "160228.720000", "160228.723000", "160228.726000", "160228.744000", "160228.746000", "160228.749000", "160228.751000", "160228.754000", "160228.756000", "160228.759000", "160228.762000", "160228.764000", "160228.767000", "160228.769000", "160228.772000", "160228.774000", "160228.777000", "160228.779000", "160228.782000", "160228.784000", "160228.787000", "160228.790000", "160228.792000", "160308.699000", "160308.702000", "160308.704000", "160308.707000", "160308.709000", "160308.712000", "160308.723000", "160308.725000", "160308.728000", "160308.730000", "160308.733000", "160308.736000", "160308.738000", "160308.741000", "160308.743000", "160308.746000", "160308.748000", "160308.751000", "160308.753000", "160308.756000", "160308.758000", "160308.761000", "160308.763000", "160308.766000", "160308.769000", "160308.771000", "160308.774000", "160348.701000", "160348.703000", "160348.706000", "160348.709000", "160348.711000", "160348.714000", "160348.716000", "160348.719000", "160348.721000", "160348.724000", "160348.727000", "160348.729000", "160348.732000", "160348.734000", "160348.737000", "160348.739000", "160348.742000", "160348.744000", "160348.747000", "160348.749000", "160348.752000", "160348.755000", "160348.757000", "160348.760000", "160348.762000", "160348.765000", "160348.767000", "160428.738000", "160428.741000", "160428.744000", "160428.747000", "160428.749000", "160428.752000", "160428.754000", "160428.757000", "160428.760000", "160428.762000", "160428.765000", "160428.767000", "160428.770000", "160428.772000", "160428.775000", "160428.778000", "160428.780000", "160428.783000", "160428.785000", "160428.788000", "160428.791000", "160428.793000", "160428.796000", "160428.798000", "160428.801000", "160428.803000", "160428.806000", "160508.705000", "160508.708000", "160508.711000", "160508.713000", "160508.716000", "160508.718000", "160508.721000", "160508.723000", "160508.726000", "160508.729000", "160508.731000", "160508.734000", "160508.736000", "160508.739000", "160508.741000", "160508.744000", "160508.746000", "160508.749000", "160508.752000", "160508.754000", "160508.757000", "160508.759000", "160508.762000", "160508.764000", "160508.767000", "160508.769000", "160508.772000", "160548.702000", "160548.704000", "160548.707000", "160548.710000", "160548.712000", "160548.715000", "160548.717000", "160548.720000", "160548.722000", "160548.725000", "160548.728000", "160548.730000", "160548.733000", "160548.735000", "160548.738000", "160548.741000", "160548.743000", "160548.746000", "160548.748000", "160548.751000", "160548.753000", "160548.756000", "160548.759000", "160548.761000", "160548.764000", "160548.766000", "160548.769000", "160628.702000", "160628.705000", "160628.708000", "160628.710000", "160628.713000", "160628.715000", "160628.718000", "160628.721000", "160628.723000", "160628.726000", "160628.728000", "160628.731000", "160628.733000", "160628.736000", "160628.738000", "160628.741000", "160628.744000", "160628.746000", "160628.749000", "160628.751000", "160628.754000", "160628.756000", "160628.759000", "160628.761000", "160628.764000", "160628.767000", "160708.717000", "160708.720000", "160708.723000", "160708.725000", "160708.728000", "160708.730000", "160708.733000", "160708.736000", "160708.738000", "160708.741000", "160708.744000", "160708.746000", "160708.749000", "160708.751000", "160708.754000", "160708.756000", "160708.759000", "160708.761000", "160708.764000", "160708.767000", "160708.769000", "160708.772000", "160708.774000", "160708.777000", "160708.779000", "160708.782000", "160708.785000", "160748.697000", "160748.699000", "160748.702000", "160748.705000", "160748.707000", "160748.710000", "160748.712000", "160748.715000", "160748.717000", "160748.720000", "160748.723000", "160748.725000", "160748.728000", "160748.730000", "160748.733000", "160748.735000", "160748.738000", "160748.740000", "160748.743000", "160748.746000", "160748.748000", "160748.751000", "160748.753000", "160748.756000", "160748.758000", "160748.761000", "160748.764000", "160828.733000", "160828.736000", "160828.739000", "160828.741000", "160828.744000", "160828.747000", "160828.749000", "160828.752000", "160828.754000", "160828.757000", "160828.759000", "160828.762000", "160828.765000", "160828.767000", "160828.770000", "160828.772000", "160828.775000", "160828.777000", "160828.780000", "160828.782000", "160828.785000", "160828.787000", "160828.790000", "160828.793000", "160828.795000", "160828.798000", "160828.800000", "160908.714000", "160908.717000", "160908.719000", "160908.722000", "160908.725000", "160908.727000", "160908.730000", "160908.732000", "160908.735000", "160908.737000", "160908.740000", "160908.743000", "160908.745000", "160908.748000", "160908.750000", "160908.753000", "160908.756000", "160908.758000", "160908.761000", "160908.764000", "160908.766000", "160908.769000", "160908.771000", "160908.774000", "160908.776000", "160908.779000", "160908.782000", "160948.705000", "160948.708000", "160948.710000", "160948.713000", "160948.716000", "160948.726000", "160948.729000", "160948.731000", "160948.734000", "160948.737000", "160948.739000", "160948.742000", "160948.744000", "160948.747000", "160948.749000", "160948.752000", "160948.755000", "160948.757000", "160948.760000", "160948.762000", "160948.765000", "160948.768000", "160948.770000", "160948.773000", "160948.775000", "160948.785000", "160948.787000", "161020.956000", "161020.959000", "161020.961000", "161020.964000", "161020.967000", "161020.969000", "161020.972000", "161020.975000", "161020.977000", "161020.980000", "161020.982000", "161020.985000", "161020.987000", "161020.990000", "161020.993000", "161020.995000", "161020.998000", "161021.001000", "161021.004000", "161021.007000", "161021.009000"],
