{
  "AcquisitionMatrixPE": 104,
  "AcquisitionNumber": 1,
  "AcquisitionTime": "18:02:40.610000",
  "BandwidthPerPixelPhaseEncode": 17.17,
  "BaseResolution": 104,
  "BodyPartExamined": "BRAIN",
  "CoilCombinationMethod": "Sum of Squares",
  "ConsistencyInfo": "N4_VE11C_LATEST_20160120",
  "ConversionSoftware": "dcm2niix",
  "ConversionSoftwareVersion": "v1.0.20211006",
  "DerivedVendorReportedEchoSpacing": 0.000560011,
  "DeviceSerialNumber": "167006",
  "DwellTime": 2.1e-06,
  "EchoTime": 0.037,
  "EchoTrainLength": 104,
  "EffectiveEchoSpacing": 0.000560011,
  "FlipAngle": 52,
  "HeudiconvVersion": "0.11.3.post9+gc939bf8",
  "ImageComments": "Unaliased MB4/PE3/LB",
  "ImageOrientationPatientDICOM": [0.996902, 0.0731211, 0.0289938, -0.0597507, 0.943666, -0.32546],
  "ImageOrientationText": "Tra>Cor(-18.9)>Sag(2.9)",
  "ImageType": [
    "ORIGINAL",
    "PRIMARY",
    "M",
    "MB",
    "ND",
    "MOSAIC"
],
  "ImagingFrequency": 123.259,
  "InPlanePhaseEncodingDirectionDICOM": "COL",
  "InstitutionAddress": "Chemin Queen-Mary 4565,Montreal,District,CA,H3W 1W5",
  "InstitutionName": "IUGM",
  "InstitutionalDepartmentName": "Department",
  "MRAcquisitionType": "2D",
  "MagneticFieldStrength": 3,
  "Manufacturer": "Siemens",
  "ManufacturersModelName": "Prisma_fit",
  "MatrixCoilMode": "SENSE",
  "Modality": "MR",
  "MultibandAccelerationFactor": 4,
  "PartialFourier": 1,
  "PatientPosition": "HFS",
  "PercentPhaseFOV": 100,
  "PercentSampling": 100,
  "PhaseEncodingDirection": "j",
  "PhaseEncodingSteps": 104,
  "PhaseResolution": 1,
  "PixelBandwidth": 2290,
  "ProcedureStepDescription": "memory^things",
  "ProtocolName": "func_task-mario_run-03",
  "PulseSequenceDetails": "%CustomerSeq%\\cmrr_mbep2d_bold",
  "ReceiveCoilActiveElements": "HC1-7;NC1,2",
  "ReceiveCoilName": "HeadNeck_64",
  "ReconMatrixPE": 104,
  "RepetitionTime": 1.49,
  "SAR": 0.051124,
  "ScanOptions": "FS",
  "ScanningSequence": "EP",
  "SequenceName": "epfid2d1_104",
  "SequenceVariant": "SK\\SS",
  "SeriesDescription": "func_task-mario_run-03",
  "SeriesNumber": 22,
  "ShimSetting": [633, -7180, -8829, 646, 87, 61, -19, -32],
  "SliceThickness": 2,
  "SliceTiming": [0, 0.7825, 0.0975, 0.88, 0.195, 0.98, 0.2925, 1.0775, 0.39, 1.175, 0.49, 1.2725, 0.5875, 1.37, 0.685, 0, 0.7825, 0.0975, 0.88, 0.195, 0.98, 0.2925, 1.0775, 0.39, 1.175, 0.49, 1.2725, 0.5875, 1.37, 0.685, 0, 0.7825, 0.0975, 0.88, 0.195, 0.98, 0.2925, 1.0775, 0.39, 1.175, 0.49, 1.2725, 0.5875, 1.37, 0.685, 0, 0.7825, 0.0975, 0.88, 0.195, 0.98, 0.2925, 1.0775, 0.39, 1.175, 0.49, 1.2725, 0.5875, 1.37, 0.685],
  "SoftwareVersions": "syngo MR E11",
  "SpacingBetweenSlices": 2,
  "StationName": "MRC35049",
  "TaskName": "mario",
  "TotalReadoutTime": 0.0576811,
  "TxRefAmp": 280.006,
  "WipMemBlock": "ba933965-4b71-4c14-a621-4547489aeb8f||Sequence: R016 ve11c/master r/e634e98; Dec 19 2017 11:00:25 by eja",
  "dcmmeta_affine": [
    [-1.9938030242919922, -0.11950139701366425, 0.1023169457912445, 109.89363861083984],
    [-0.1462422013282776, 1.8873319625854492, -0.6454389691352844, -54.12718963623047],
    [0.05798758566379547, 0.6509206295013428, 1.890222191810608, -64.2376708984375],
    [0.0, 0.0, 0.0, 1.0]
],
  "dcmmeta_reorient_transform": [
    [0.0, -1.0, 0.0, 103.0],
    [1.0, 0.0, 0.0, 0.0],
    [0.0, 0.0, 1.0, 0.0],
    [0.0, 0.0, 0.0, 1.0]
],
  "dcmmeta_shape": [104, 104, 60, 413],
  "dcmmeta_slice_dim": 2,
  "dcmmeta_version": 0.6,
  "global": {
    "const": {
      "AcquisitionMatrix": [104, 0, 0, 104],
      "AngioFlag": "N",
      "BitsAllocated": 16,
      "BitsStored": 16,
      "BodyPartExamined": "BRAIN",
      "Columns": 832,
      "EchoNumbers": 1,
      "EchoTime": 37.0,
      "EchoTrainLength": 104,
      "FlipAngle": 52.0,
      "HighBit": 15,
      "ImageOrientationPatient": [0.99690153207816, 0.07312110023007, 0.02899379315243, -0.0597506996365, 0.9436659569121, -0.3254603134917],
      "ImagePositionPatient": [-779.83080100014, -880.48897585991, 218.63477718546],
      "ImageType": [
        "ORIGINAL",
        "PRIMARY",
        "M",
        "MB",
        "ND",
        "MOSAIC"
],
      "ImagedNucleus": "1H",
      "ImagingFrequency": 123.258888,
      "InPlanePhaseEncodingDirection": "COL",
      "MRAcquisitionType": "2D",
      "MagneticFieldStrength": 3.0,
      "Manufacturer": "SIEMENS",
      "ManufacturerModelName": "Prisma_fit",
      "Modality": "MR",
      "NumberOfAverages": 1.0,
      "NumberOfPhaseEncodingSteps": 104,
      "PercentPhaseFieldOfView": 100.0,
      "PercentSampling": 100.0,
      "PerformedProcedureStepStartTime": "170220.101000",
      "PhotometricInterpretation": "MONOCHROME2",
      "PixelBandwidth": 2290.0,
      "PixelRepresentation": 0,
      "PixelSpacing": [2.0, 2.0],
      "ProtocolName": "func_task-mario_run-03",
      "RepetitionTime": 1490.0,
      "Rows": 832,
      "SAR": 0.0511240482522,
      "SamplesPerPixel": 1,
      "ScanOptions": "FS",
      "ScanningSequence": "EP",
      "SequenceName": "epfid2d1_104",
      "SequenceVariant": [
        "SK",
        "SS"
],
      "SeriesDescription": "func_task-mario_run-03",
      "SeriesNumber": 22,
      "SeriesTime": "180406.019000",
      "SliceLocation": -37.621848139662,
      "SliceThickness": 2.0,
      "SmallestImagePixelValue": 0,
      "SoftwareVersions": "syngo MR E11",
      "SpacingBetweenSlices": 2.0000000455499,
      "SpecificCharacterSet": "ISO_IR 100",
      "StudyID": "1",
      "StudyTime": "170219.935000",
      "TransmitCoilName": "Body",
      "VariableFlipAngleFlag": "N",
      "WindowCenterWidthExplanation": "Algo1",
      "dBdt": 0.0},
    "slices": {}
  },
  "time": {
    "samples": {
      "AcquisitionNumber": [1, 2, 3, 4, 5, 6, 7, 8, 9, 10, 11, 12, 13, 14, 15, 16, 17, 18, 19, 20, 21, 22, 23, 24, 25, 26, 27, 28, 29, 30, 31, 32, 33, 34, 35, 36, 37, 38, 39, 40, 41, 42, 43, 44, 45, 46, 47, 48, 49, 50, 51, 52, 53, 54, 55, 56, 57, 58, 59, 60, 61, 62, 63, 64, 65, 66, 67, 68, 69, 70, 71, 72, 73, 74, 75, 76, 77, 78, 79, 80, 81, 82, 83, 84, 85, 86, 87, 88, 89, 90, 91, 92, 93, 94, 95, 96, 97, 98, 99, 100, 101, 102, 103, 104, 105, 106, 107, 108, 109, 110, 111, 112, 113, 114, 115, 116, 117, 118, 119, 120, 121, 122, 123, 124, 125, 126, 127, 128, 129, 130, 131, 132, 133, 134, 135, 136, 137, 138, 139, 140, 141, 142, 143, 144, 145, 146, 147, 148, 149, 150, 151, 152, 153, 154, 155, 156, 157, 158, 159, 160, 161, 162, 163, 164, 165, 166, 167, 168, 169, 170, 171, 172, 173, 174, 175, 176, 177, 178, 179, 180, 181, 182, 183, 184, 185, 186, 187, 188, 189, 190, 191, 192, 193, 194, 195, 196, 197, 198, 199, 200, 201, 202, 203, 204, 205, 206, 207, 208, 209, 210, 211, 212, 213, 214, 215, 216, 217, 218, 219, 220, 221, 222, 223, 224, 225, 226, 227, 228, 229, 230, 231, 232, 233, 234, 235, 236, 237, 238, 239, 240, 241, 242, 243, 244, 245, 246, 247, 248, 249, 250, 251, 252, 253, 254, 255, 256, 257, 258, 259, 260, 261, 262, 263, 264, 265, 266, 267, 268, 269, 270, 271, 272, 273, 274, 275, 276, 277, 278, 279, 280, 281, 282, 283, 284, 285, 286, 287, 288, 289, 290, 291, 292, 293, 294, 295, 296, 297, 298, 299, 300, 301, 302, 303, 304, 305, 306, 307, 308, 309, 310, 311, 312, 313, 314, 315, 316, 317, 318, 319, 320, 321, 322, 323, 324, 325, 326, 327, 328, 329, 330, 331, 332, 333, 334, 335, 336, 337, 338, 339, 340, 341, 342, 343, 344, 345, 346, 347, 348, 349, 350, 351, 352, 353, 354, 355, 356, 357, 358, 359, 360, 361, 362, 363, 364, 365, 366, 367, 368, 369, 370, 371, 372, 373, 374, 375, 376, 377, 378, 379, 380, 381, 382, 383, 384, 385, 386, 387, 388, 389, 390, 391, 392, 393, 394, 395, 396, 397, 398, 399, 400, 401, 402, 403, 404, 405, 406, 407, 408, 409, 410, 411, 412, 413],
      "AcquisitionTime": ["180240.610000", "180242.100000", "180243.590000", "180245.080000", "180246.570000", "180248.060000", "180249.550000", "180251.040000", "180252.530000", "180254.020000", "180255.510000", "180257.000000", "180258.490000", "180259.980000", "180301.470000", "180302.960000", "180304.450000", "180305.940000", "180307.430000", "180308.920000", "180310.410000", "180311.900000", "180313.390000", "180314.880000", "180316.370000", "180317.860000", "180319.350000", "180320.840000", "180322.330000", "180323.820000", "180325.310000", "180326.800000", "180328.290000", "180329.780000", "180331.270000", "180332.760000", "180334.250000", "180335.740000", "180337.230000", "180338.720000", "180340.210000", "180341.700000", "180343.190000", "180344.680000", "180346.170000", "180347.660000", "180349.150000", "180350.640000", "180352.130000", "180353.620000", "180355.110000", "180356.600000", "180358.090000", "180359.580000", "180401.070000", "180402.560000", "180404.050000", "180405.540000", "180407.030000", "180408.520000", "180410.010000", "180411.500000", "180412.990000", "180414.480000", "180415.970000", "180417.460000", "180418.950000", "180420.440000", "180421.930000", "180423.420000", "180424.910000", "180426.400000", "180427.890000", "180429.380000", "180430.870000", "180432.360000", "180433.850000", "180435.340000", "180436.830000", "180438.320000", "180439.810000", "180441.300000", "180442.790000", "180444.280000", "180445.770000", "180447.260000", "180448.750000", "180450.240000", "180451.730000", "180453.220000", "180454.710000", "180456.200000", "180457.690000", "180459.180000", "180500.670000", "180502.160000", "180503.650000", "180505.140000", "180506.630000", "180508.120000", "180509.610000", "180511.100000", "180512.590000", "180514.080000", "180515.570000", "180517.060000", "180518.550000", "180520.040000", "180521.530000", "180523.020000", "180524.510000", "180526.000000", "180527.490000", "180528.980000", "180530.470000", "180531.960000", "180533.450000", "180534.940000", "180536.430000", "180537.920000", "180539.410000", "180540.900000", "180542.390000", "180543.880000", "180545.370000", "180546.860000", "180548.350000", "180549.840000", "180551.330000", "180552.820000", "180554.310000", "180555.800000", "180557.290000", "180558.780000", "180600.270000", "180601.760000", "180603.250000", "180604.740000", "180606.230000", "180607.720000", "180609.210000", "180610.700000", "180612.190000", "180613.680000", "180615.170000", "180616.660000", "180618.150000", "180619.640000", "180621.130000", "180622.620000", "180624.110000", "180625.600000", "180627.090000", "180628.580000", "180630.070000", "180631.560000", "180633.050000", "180634.540000", "180636.030000", "180637.520000", "180639.010000", "180640.500000", "180641.990000", "180643.480000", "180644.970000", "180646.460000", "180647.950000", "180649.440000", "180650.930000", "180652.420000", "180653.910000", "180655.400000", "180656.890000", "180658.380000", "180659.870000", "180701.360000", "180702.850000", "180704.340000", "180705.830000", "180707.320000", "180708.810000", "180710.300000", "180711.790000", "180713.280000", "180714.770000", "180716.260000", "180717.750000", "180719.240000", "180720.730000", "180722.220000", "180723.710000", "180725.200000", "180726.690000", "180728.180000", "180729.670000", "180731.160000", "180732.650000", "180734.140000", "180735.630000", "180737.120000", "180738.610000", "180740.100000", "180741.590000", "180743.080000", "180744.570000", "180746.060000", "180747.550000", "180749.040000", "180750.530000", "180752.020000", "180753.510000", "180755.000000", "180756.490000", "180757.980000", "180759.470000", "180800.960000", "180802.450000", "180803.940000", "180805.430000", "180806.920000", "180808.410000", "180809.900000", "180811.390000", "180812.880000", "180814.370000", "180815.860000", "180817.350000", "180818.840000", "180820.330000", "180821.820000", "180823.310000", "180824.800000", "180826.290000", "180827.780000", "180829.270000", "180830.760000", "180832.250000", "180833.740000", "180835.230000", "180836.720000", "180838.210000", "180839.700000", "180841.190000", "180842.680000", "180844.170000", "180845.660000", "180847.150000", "180848.640000", "180850.130000", "180851.620000", "180853.110000", "180854.600000", "180856.090000", "180857.580000", "180859.070000", "180900.560000", "180902.050000", "180903.540000", "180905.030000", "180906.520000", "180908.010000", "180909.500000", "180910.990000", "180912.480000", "180913.970000", "180915.460000", "180916.950000", "180918.440000", "180919.930000", "180921.420000", "180922.910000", "180924.400000", "180925.890000", "180927.380000", "180928.870000", "180930.360000", "180931.850000", "180933.340000", "180934.830000", "180936.320000", "180937.810000", "180939.300000", "180940.790000", "180942.280000", "180943.770000", "180945.260000", "180946.750000", "180948.240000", "180949.730000", "180951.220000", "180952.710000", "180954.200000", "180955.690000", "180957.180000", "180958.670000", "181000.160000", "181001.650000", "181003.140000", "181004.630000", "181006.120000", "181007.610000", "181009.100000", "181010.590000", "181012.080000", "181013.570000", "181015.060000", "181016.550000", "181018.040000", "181019.530000", "181021.020000", "181022.510000", "181024.000000", "181025.490000", "181026.980000", "181028.470000", "181029.960000", "181031.450000", "181032.940000", "181034.430000", "181035.920000", "181037.410000", "181038.900000", "181040.390000", "181041.880000", "181043.370000", "181044.860000", "181046.350000", "181047.840000", "181049.330000", "181050.820000", "181052.310000", "181053.800000", "181055.290000", "181056.780000", "181058.270000", "181059.760000", "181101.250000", "181102.740000", "181104.230000", "181105.720000", "181107.210000", "181108.700000", "181110.190000", "181111.680000", "181113.170000", "181114.660000", "181116.150000", "181117.640000", "181119.130000", "181120.620000", "181122.110000", "181123.600000", "181125.090000", "181126.580000", "181128.070000", "181129.560000", "181131.050000", "181132.540000", "181134.030000", "181135.520000", "181137.010000", "181138.500000", "181139.990000", "181141.480000", "181142.970000", "181144.460000", "181145.950000", "181147.440000", "181148.930000", "181150.420000", "181151.910000", "181153.400000", "181154.890000", "181156.380000", "181157.870000", "181159.360000", "181200.850000", "181202.340000", "181203.830000", "181205.320000", "181206.810000", "181208.300000", "181209.790000", "181211.280000", "181212.770000", "181214.260000", "181215.750000", "181217.240000", "181218.730000", "181220.220000", "181221.710000", "181223.200000", "181224.690000", "181226.180000", "181227.670000", "181229.160000", "181230.650000", "181232.140000", "181233.630000", "181235.120000", "181236.610000", "181238.100000", "181239.590000", "181241.080000", "181242.570000", "181244.060000", "181245.550000", "181247.040000", "181248.530000", "181250.020000", "181251.510000", "181253.000000", "181254.490000"],
      "ContentTime": ["180406.022000", "180406.025000", "180406.029000", "180406.032000", "180406.035000", "180406.039000", "180406.042000", "180406.045000", "180406.049000", "180406.052000", "180406.056000", "180406.059000", "180406.062000", "180406.066000", "180406.069000", "180406.072000", "180406.076000", "180406.079000", "180406.082000", "180406.085000", "180406.088000", "180406.092000", "180406.095000", "180406.099000", "180406.102000", "180406.105000", "180406.108000", "180406.112000", "180406.115000", "180406.118000", "180406.122000", "180406.125000", "180425.988000", "180425.992000", "180425.995000", "180425.998000", "180426.002000", "180426.005000", "180426.008000", "180426.012000", "180426.015000", "180426.018000", "180426.021000", "180426.025000", "180426.028000", "180426.031000", "180426.034000", "180426.038000", "180426.041000", "180426.045000", "180426.048000", "180426.051000", "180445.988000", "180445.992000", "180445.995000", "180446.000000", "180446.003000", "180446.008000", "180446.012000", "180446.026000", "180446.030000", "180446.033000", "180446.037000", "180446.040000", "180446.043000", "180446.047000", "180446.050000", "180446.053000", "180446.056000", "180446.060000", "180446.063000", "180446.066000", "180505.988000", "180506.007000", "180506.010000", "180506.013000", "180506.017000", "180506.020000", "180506.024000", "180506.027000", "180506.031000", "180506.034000", "180506.037000", "180506.040000", "180506.044000", "180506.047000", "180506.050000", "180506.054000", "180506.057000", "180506.060000", "180506.063000", "180506.067000", "180506.070000", "180545.987000", "180545.991000", "180545.994000", "180545.997000", "180546.002000", "180546.005000", "180546.008000", "180546.012000", "180546.015000", "180546.019000", "180546.022000", "180546.026000", "180546.029000", "180546.033000", "180546.036000", "180546.040000", "180546.043000", "180546.046000", "180546.050000", "180546.053000", "180546.056000", "180546.060000", "180546.063000", "180546.066000", "180546.070000", "180546.073000", "180546.076000", "180546.094000", "180546.097000", "180546.101000", "180625.988000", "180625.992000", "180625.995000", "180625.999000", "180626.002000", "180626.005000", "180626.008000", "180626.012000", "180626.015000", "180626.018000", "180626.022000", "180626.025000", "180626.028000", "180626.031000", "180626.035000", "180626.038000", "180626.041000", "180626.044000", "180626.048000", "180626.051000", "180626.054000", "180626.058000", "180626.061000", "180626.064000", "180626.068000", "180626.071000", "180626.074000", "180705.988000", "180705.992000", "180705.995000", "180705.998000", "180706.003000", "180706.006000", "180706.009000", "180706.013000", "180706.016000", "180706.019000", "180706.023000", "180706.026000", "180706.029000", "180706.032000", "180706.036000", "180706.039000", "180706.042000", "180706.046000", "180706.049000", "180706.052000", "180706.055000", "180706.059000", "180706.062000", "180706.065000", "180706.068000", "180706.072000", "180706.075000", "180745.988000", "180745.992000", "180745.995000", "180745.999000", "180746.002000", "180746.005000", "180746.009000", "180746.012000", "180746.015000", "180746.018000", "180746.022000", "180746.025000", "180746.028000", "180746.031000", "180746.035000", "180746.038000", "180746.041000", "180746.045000", "180746.048000", "180746.051000", "180746.055000", "180746.058000", "180746.062000", "180746.065000", "180746.069000", "180746.072000", "180746.076000", "180825.988000", "180825.992000", "180825.995000", "180825.999000", "180826.002000", "180826.005000", "180826.009000", "180826.012000", "180826.015000", "180826.018000", "180826.022000", "180826.025000", "180826.028000", "180826.032000", "180826.035000", "180826.038000", "180826.042000", "180826.045000", "180826.048000", "180826.051000", "180826.055000", "180826.058000", "180826.062000", "180826.065000", "180826.068000", "180826.072000", "180826.075000", "180905.988000", "180906.001000", "180906.004000", "180906.007000", "180906.011000", "180906.014000", "180906.017000", "180906.021000", "180906.024000", "180906.027000", "180906.031000", "180906.034000", "180906.037000", "180906.041000", "180906.044000", "180906.047000", "180906.051000", "180906.054000", "180906.057000", "180906.061000", "180906.064000", "180906.067000", "180906.070000", "180906.074000", "180906.077000", "180906.080000", "180945.988000", "180945.992000", "180945.995000", "180945.998000", "180946.002000", "180946.005000", "180946.008000", "180946.012000", "180946.015000", "180946.018000", "180946.021000", "180946.025000", "180946.028000", "180946.031000", "180946.035000", "180946.038000", "180946.041000", "180946.045000", "180946.048000", "180946.052000", "180946.055000", "180946.059000", "180946.062000", "180946.066000", "180946.069000", "180946.072000", "180946.075000", "181025.987000", "181025.991000", "181025.994000", "181025.998000", "181026.002000", "181026.006000", "181026.010000", "181026.013000", "181026.017000", "181026.020000", "181026.023000", "181026.027000", "181026.030000", "181026.034000", "181026.037000", "181026.040000", "181026.043000", "181026.047000", "181026.050000", "181026.053000", "181026.057000", "181026.060000", "181026.063000", "181026.067000", "181026.070000", "181026.074000", "181026.077000", "181105.988000", "181105.992000", "181105.995000", "181105.999000", "181106.002000", "181106.005000", "181106.008000", "181106.012000", "181106.015000", "181106.018000", "181106.022000", "181106.025000", "181106.028000", "181106.032000", "181106.035000", "181106.038000", "181106.042000", "181106.061000", "181106.064000", "181106.068000", "181106.071000", "181106.074000", "181106.077000", "181106.081000", "181106.084000", "181106.087000", "181106.090000", "181145.988000", "181145.992000", "181145.995000", "181145.999000", "181146.002000", "181146.005000", "181146.008000", "181146.012000", "181146.015000", "181146.019000", "181146.022000", "181146.025000", "181146.028000", "181146.032000", "181146.035000", "181146.038000", "181146.042000", "181146.045000", "181146.048000", "181146.051000", "181146.055000", "181146.058000", "181146.061000", "181146.065000", "181146.068000", "181146.071000", "181146.075000", "181225.987000", "181225.991000", "181225.994000", "181225.998000", "181226.001000", "181226.004000", "181226.007000", "181226.011000", "181226.016000", "181226.019000", "181226.022000", "181226.026000", "181226.029000", "181226.032000", "181226.036000", "181226.039000", "181226.043000", "181226.046000", "181226.049000", "181226.052000", "181226.056000", "181226.059000", "181226.062000", "181226.066000", "181226.069000", "181226.072000", "181226.075000", "181257.470000", "181257.474000", "181257.477000", "181257.481000", "181257.484000", "181257.487000", "181257.491000", "181257.494000", "181257.497000", "181257.500000", "181257.504000", "181257.507000", "181257.510000", "181257.514000", "181257.517000", "181257.520000", "181257.523000", "181257.527000", "181257.530000", "181257.533000", "181257.536000"],
      "InstanceCreationTime": ["180406.022000", "180406.025000", "180406.029000", "180406.032000", "180406.035000", "180406.039000", "180406.042000", "180406.045000", "180406.049000", "180406.052000", "180406.056000", "180406.059000", "180406.062000", "180406.066000", "180406.069000", "180406.072000", "180406.076000", "180406.079000", "180406.082000", "180406.085000", "180406.088000", "180406.092000", "180406.095000", "180406.099000", "180406.102000", "180406.105000", "180406.108000", "180406.112000", "180406.115000", "180406.118000", "180406.122000", "180406.125000", "180425.988000", "180425.992000", "180425.995000", "180425.998000", "180426.002000", "180426.005000", "180426.008000", "180426.012000", "180426.015000", "180426.018000", "180426.021000", "180426.025000", "180426.028000", "180426.031000", "180426.034000", "180426.038000", "180426.041000", "180426.045000", "180426.048000", "180426.051000", "180445.988000", "180445.992000", "180445.995000", "180446.000000", "180446.003000", "180446.008000", "180446.012000", "180446.026000", "180446.030000", "180446.033000", "180446.037000", "180446.040000", "180446.043000", "180446.047000", "180446.050000", "180446.053000", "180446.056000", "180446.060000", "180446.063000", "180446.066000", "180505.988000", "180506.007000", "180506.010000", "180506.013000", "180506.017000", "180506.020000", "180506.024000", "180506.027000", "180506.031000", "180506.034000", "180506.037000", "180506.040000", "180506.044000", "180506.047000", "180506.050000", "180506.054000", "180506.057000", "180506.060000", "180506.063000", "180506.067000", "180506.070000", "180545.987000", "180545.991000", "180545.994000", "180545.997000", "180546.002000", "180546.005000", "180546.008000", "180546.012000", "180546.015000", "180546.019000", "180546.022000", "180546.026000", "180546.029000", "180546.033000", "180546.036000", "180546.040000", "180546.043000", "180546.046000", "180546.050000", "180546.053000", "180546.056000", "180546.060000", "180546.063000", "180546.066000", "180546.070000", "180546.073000", "180546.076000", "180546.094000", "180546.097000", "180546.101000", "180625.988000", "180625.992000", "180625.995000", "180625.999000", "180626.002000", "180626.005000", "180626.008000", "180626.012000", "180626.015000", "180626.018000", "180626.022000", "180626.025000", "180626.028000", "180626.031000", "180626.035000", "180626.038000", "180626.041000", "180626.044000", "180626.048000", "180626.051000", "180626.054000", "180626.058000", "180626.061000", "180626.064000", "180626.068000", "180626.071000", "180626.074000", "180705.988000", "180705.992000", "180705.995000", "180705.998000", "180706.003000", "180706.006000", "180706.009000", "180706.013000", "180706.016000", "180706.019000", "180706.023000", "180706.026000", "180706.029000", "180706.032000", "180706.036000", "180706.039000", "180706.042000", "180706.046000", "180706.049000", "180706.052000", "180706.055000", "180706.059000", "180706.062000", "180706.065000", "180706.068000", "180706.072000", "180706.075000", "180745.988000", "180745.992000", "180745.995000", "180745.999000", "180746.002000", "180746.005000", "180746.009000", "180746.012000", "180746.015000", "180746.018000", "180746.022000", "180746.025000", "180746.028000", "180746.031000", "180746.035000", "180746.038000", "180746.041000", "180746.045000", "180746.048000", "180746.051000", "180746.055000", "180746.058000", "180746.062000", "180746.065000", "180746.069000", "180746.072000", "180746.076000", "180825.988000", "180825.992000", "180825.995000", "180825.999000", "180826.002000", "180826.005000", "180826.009000", "180826.012000", "180826.015000", "180826.018000", "180826.022000", "180826.025000", "180826.028000", "180826.032000", "180826.035000", "180826.038000", "180826.042000", "180826.045000", "180826.048000", "180826.051000", "180826.055000", "180826.058000", "180826.062000", "180826.065000", "180826.068000", "180826.072000", "180826.075000", "180905.988000", "180906.001000", "180906.004000", "180906.007000", "180906.011000", "180906.014000", "180906.017000", "180906.021000", "180906.024000", "180906.027000", "180906.031000", "180906.034000", "180906.037000", "180906.041000", "180906.044000", "180906.047000", "180906.051000", "180906.054000", "180906.057000", "180906.061000", "180906.064000", "180906.067000", "180906.070000", "180906.074000", "180906.077000", "180906.080000", "180945.988000", "180945.992000", "180945.995000", "180945.998000", "180946.002000", "180946.005000", "180946.008000", "180946.012000", "180946.015000", "180946.018000", "180946.021000", "180946.025000", "180946.028000", "180946.031000", "180946.035000", "180946.038000", "180946.041000", "180946.045000", "180946.048000", "180946.052000", "180946.055000", "180946.059000", "180946.062000", "180946.066000", "180946.069000", "180946.072000", "180946.075000", "181025.987000", "181025.991000", "181025.994000", "181025.998000", "181026.002000", "181026.006000", "181026.010000", "181026.013000", "181026.017000", "181026.020000", "181026.023000", "181026.027000", "181026.030000", "181026.034000", "181026.037000", "181026.040000", "181026.043000", "181026.047000", "181026.050000", "181026.053000", "181026.057000", "181026.060000", "181026.063000", "181026.067000", "181026.070000", "181026.074000", "181026.077000", "181105.988000", "181105.992000", "181105.995000", "181105.999000", "181106.002000", "181106.005000", "181106.008000", "181106.012000", "181106.015000", "181106.018000", "181106.022000", "181106.025000", "181106.028000", "181106.032000", "181106.035000", "181106.038000", "181106.042000", "181106.061000", "181106.064000", "181106.068000", "181106.071000", "181106.074000", "181106.077000", "181106.081000", "181106.084000", "181106.087000", "181106.090000", "181145.988000", "181145.992000", "181145.995000", "181145.999000", "181146.002000", "181146.005000", "181146.008000", "181146.012000", "181146.015000", "181146.019000", "181146.022000", "181146.025000", "181146.028000", "181146.032000", "181146.035000", "181146.038000", "181146.042000", "181146.045000", "181146.048000", "181146.051000", "181146.055000", "181146.058000", "181146.061000", "181146.065000", "181146.068000", "181146.071000", "181146.075000", "181225.987000", "181225.991000", "181225.994000", "181225.998000", "181226.001000", "181226.004000", "181226.007000", "181226.011000", "181226.016000", "181226.019000", "181226.022000", "181226.026000", "181226.029000", "181226.032000", "181226.036000", "181226.039000", "181226.043000", "181226.046000", "181226.049000", "181226.052000", "181226.056000", "181226.059000", "181226.062000", "181226.066000", "181226.069000", "181226.072000", "181226.075000", "181257.470000", "181257.474000", "181257.477000", "181257.481000", "181257.484000", "181257.487000", "181257.491000", "181257.494000", "181257.497000", "181257.500000", "181257.504000", "181257.507000", "181257.510000", "181257.514000", "181257.517000", "181257.520000", "181257.523000", "181257.527000", "181257.530000", "181257.533000", "181257.536000"],
