{
  "AcquisitionMatrixPE": 104,
  "AcquisitionNumber": 1,
  "AcquisitionTime": "18:02:40.610000",
  "BandwidthPerPixelPhaseEncode": 17.17,
  "BaseResolution": 104,
  "BodyPartExamined": "BRAIN",
  "CoilCombinationMethod": "Sum of Squares",
  "ConsistencyInfo": "N4_VE11C_LATEST_20160120",
  "ConversionSoftware": "dcm2niix",
  "ConversionSoftwareVersion": "v1.0.20211006",
  "DerivedVendorReportedEchoSpacing": 0.000560011,
  "DeviceSerialNumber": "167006",
  "DwellTime": 2.1e-06,
  "EchoTime": 0.037,
  "EchoTime1": 0.037,
  "EchoTime2": 0.001,
  "EchoTrainLength": 104,
  "EffectiveEchoSpacing": 0.000560011,
  "FlipAngle": 52,
  "HeudiconvVersion": "0.11.3.post9+gc939bf8",
  "ImageComments": "Unaliased MB4/PE3/LB",
  "ImageOrientationPatientDICOM": [0.996902, 0.0731211, 0.0289938, -0.0597507, 0.943666, -0.32546],
  "ImageOrientationText": "Tra>Cor(-18.9)>Sag(2.9)",
  "ImageType": [
    "ORIGINAL",
    "PRIMARY",
    "P",
    "MB",
    "ND",
    "MOSAIC",
    "PHASE"
],
  "ImagingFrequency": 123.259,
  "InPlanePhaseEncodingDirectionDICOM": "COL",
  "InstitutionAddress": "Chemin Queen-Mary 4565,Montreal,District,CA,H3W 1W5",
  "InstitutionName": "IUGM",
  "InstitutionalDepartmentName": "Department",
  "MRAcquisitionType": "2D",
  "MagneticFieldStrength": 3,
  "Manufacturer": "Siemens",
  "ManufacturersModelName": "Prisma_fit",
  "MatrixCoilMode": "SENSE",
  "Modality": "MR",
  "MultibandAccelerationFactor": 4,
  "PartialFourier": 1,
  "PatientPosition": "HFS",
  "PercentPhaseFOV": 100,
  "PercentSampling": 100,
  "PhaseEncodingDirection": "j",
  "PhaseEncodingSteps": 104,
  "PhaseResolution": 1,
  "PixelBandwidth": 2290,
  "ProcedureStepDescription": "memory^things",
  "ProtocolName": "func_task-mario_run-03",
  "PulseSequenceDetails": "%CustomerSeq%\\cmrr_mbep2d_bold",
  "ReceiveCoilActiveElements": "HC1-7;NC1,2",
  "ReceiveCoilName": "HeadNeck_64",
  "ReconMatrixPE": 104,
  "RepetitionTime": 1.49,
  "SAR": 0.051124,
  "ScanOptions": "FS",
  "ScanningSequence": "EP",
  "SequenceName": "epfid2d1_104",
  "SequenceVariant": "SK\\SS",
  "SeriesDescription": "func_task-mario_run-03",
  "SeriesNumber": 23,
  "ShimSetting": [633, -7180, -8829, 646, 87, 61, -19, -32],
  "SliceThickness": 2,
  "SliceTiming": [0, 0.7825, 0.0975, 0.88, 0.195, 0.98, 0.2925, 1.0775, 0.39, 1.175, 0.49, 1.2725, 0.5875, 1.37, 0.685, 0, 0.7825, 0.0975, 0.88, 0.195, 0.98, 0.2925, 1.0775, 0.39, 1.175, 0.49, 1.2725, 0.5875, 1.37, 0.685, 0, 0.7825, 0.0975, 0.88, 0.195, 0.98, 0.2925, 1.0775, 0.39, 1.175, 0.49, 1.2725, 0.5875, 1.37, 0.685, 0, 0.7825, 0.0975, 0.88, 0.195, 0.98, 0.2925, 1.0775, 0.39, 1.175, 0.49, 1.2725, 0.5875, 1.37, 0.685],
  "SoftwareVersions": "syngo MR E11",
  "SpacingBetweenSlices": 2,
  "StationName": "MRC35049",
  "TaskName": "mario",
  "TotalReadoutTime": 0.0576811,
  "TxRefAmp": 280.006,
  "WipMemBlock": "ba933965-4b71-4c14-a621-4547489aeb8f||Sequence: R016 ve11c/master r/e634e98; Dec 19 2017 11:00:25 by eja",
  "dcmmeta_affine": [
    [-1.9938030242919922, -0.11950139701366425, 0.1023169457912445, 109.89363861083984],
    [-0.1462422013282776, 1.8873319625854492, -0.6454389691352844, -54.12718963623047],
    [0.05798758566379547, 0.6509206295013428, 1.890222191810608, -64.2376708984375],
    [0.0, 0.0, 0.0, 1.0]
],
  "dcmmeta_reorient_transform": [
    [0.0, -1.0, 0.0, 103.0],
    [1.0, 0.0, 0.0, 0.0],
    [0.0, 0.0, 1.0, 0.0],
    [0.0, 0.0, 0.0, 1.0]
],
  "dcmmeta_shape": [104, 104, 60, 413],
  "dcmmeta_slice_dim": 2,
  "dcmmeta_version": 0.6,
  "global": {
    "const": {
      "AcquisitionMatrix": [104, 0, 0, 104],
      "AngioFlag": "N",
      "BitsAllocated": 16,
      "BitsStored": 16,
      "BodyPartExamined": "BRAIN",
      "Columns": 832,
      "EchoNumbers": 1,
      "EchoTime": 37.0,
      "EchoTrainLength": 104,
      "FlipAngle": 52.0,
      "HighBit": 15,
      "ImageOrientationPatient": [0.99690153207816, 0.07312110023007, 0.02899379315243, -0.0597506996365, 0.9436659569121, -0.3254603134917],
      "ImagePositionPatient": [-779.83080100014, -880.48897585991, 218.63477718546],
      "ImageType": [
        "ORIGINAL",
        "PRIMARY",
        "P",
        "MB",
        "ND",
        "MOSAIC"
],
      "ImagedNucleus": "1H",
      "ImagingFrequency": 123.258888,
      "InPlanePhaseEncodingDirection": "COL",
      "LargestImagePixelValue": 4095,
      "MRAcquisitionType": "2D",
      "MagneticFieldStrength": 3.0,
      "Manufacturer": "SIEMENS",
      "ManufacturerModelName": "Prisma_fit",
      "Modality": "MR",
      "NumberOfAverages": 1.0,
      "NumberOfPhaseEncodingSteps": 104,
      "PercentPhaseFieldOfView": 100.0,
      "PercentSampling": 100.0,
      "PerformedProcedureStepStartTime": "170220.101000",
      "PhotometricInterpretation": "MONOCHROME2",
      "PixelBandwidth": 2290.0,
      "PixelRepresentation": 0,
      "PixelSpacing": [2.0, 2.0],
      "ProtocolName": "func_task-mario_run-03",
      "RepetitionTime": 1490.0,
      "RescaleIntercept": -4096.0,
      "RescaleSlope": 2.0,
      "RescaleType": "US",
      "Rows": 832,
      "SAR": 0.0511240482522,
      "SamplesPerPixel": 1,
      "ScanOptions": "FS",
      "ScanningSequence": "EP",
      "SequenceName": "epfid2d1_104",
      "SequenceVariant": [
        "SK",
        "SS"
],
      "SeriesDescription": "func_task-mario_run-03",
      "SeriesNumber": 23,
      "SeriesTime": "180406.165000",
      "SliceLocation": -37.621848139662,
      "SliceThickness": 2.0,
      "SmallestImagePixelValue": 0,
      "SoftwareVersions": "syngo MR E11",
      "SpacingBetweenSlices": 2.0000000455499,
      "SpecificCharacterSet": "ISO_IR 100",
      "StudyID": "1",
      "StudyTime": "170219.935000",
      "TransmitCoilName": "Body",
      "VariableFlipAngleFlag": "N",
      "WindowCenterWidthExplanation": "Algo1",
      "dBdt": 0.0},
    "slices": {}
  },
  "time": {
    "samples": {
      "AcquisitionNumber": [1, 2, 3, 4, 5, 6, 7, 8, 9, 10, 11, 12, 13, 14, 15, 16, 17, 18, 19, 20, 21, 22, 23, 24, 25, 26, 27, 28, 29, 30, 31, 32, 33, 34, 35, 36, 37, 38, 39, 40, 41, 42, 43, 44, 45, 46, 47, 48, 49, 50, 51, 52, 53, 54, 55, 56, 57, 58, 59, 60, 61, 62, 63, 64, 65, 66, 67, 68, 69, 70, 71, 72, 73, 74, 75, 76, 77, 78, 79, 80, 81, 82, 83, 84, 85, 86, 87, 88, 89, 90, 91, 92, 93, 94, 95, 96, 97, 98, 99, 100, 101, 102, 103, 104, 105, 106, 107, 108, 109, 110, 111, 112, 113, 114, 115, 116, 117, 118, 119, 120, 121, 122, 123, 124, 125, 126, 127, 128, 129, 130, 131, 132, 133, 134, 135, 136, 137, 138, 139, 140, 141, 142, 143, 144, 145, 146, 147, 148, 149, 150, 151, 152, 153, 154, 155, 156, 157, 158, 159, 160, 161, 162, 163, 164, 165, 166, 167, 168, 169, 170, 171, 172, 173, 174, 175, 176, 177, 178, 179, 180, 181, 182, 183, 184, 185, 186, 187, 188, 189, 190, 191, 192, 193, 194, 195, 196, 197, 198, 199, 200, 201, 202, 203, 204, 205, 206, 207, 208, 209, 210, 211, 212, 213, 214, 215, 216, 217, 218, 219, 220, 221, 222, 223, 224, 225, 226, 227, 228, 229, 230, 231, 232, 233, 234, 235, 236, 237, 238, 239, 240, 241, 242, 243, 244, 245, 246, 247, 248, 249, 250, 251, 252, 253, 254, 255, 256, 257, 258, 259, 260, 261, 262, 263, 264, 265, 266, 267, 268, 269, 270, 271, 272, 273, 274, 275, 276, 277, 278, 279, 280, 281, 282, 283, 284, 285, 286, 287, 288, 289, 290, 291, 292, 293, 294, 295, 296, 297, 298, 299, 300, 301, 302, 303, 304, 305, 306, 307, 308, 309, 310, 311, 312, 313, 314, 315, 316, 317, 318, 319, 320, 321, 322, 323, 324, 325, 326, 327, 328, 329, 330, 331, 332, 333, 334, 335, 336, 337, 338, 339, 340, 341, 342, 343, 344, 345, 346, 347, 348, 349, 350, 351, 352, 353, 354, 355, 356, 357, 358, 359, 360, 361, 362, 363, 364, 365, 366, 367, 368, 369, 370, 371, 372, 373, 374, 375, 376, 377, 378, 379, 380, 381, 382, 383, 384, 385, 386, 387, 388, 389, 390, 391, 392, 393, 394, 395, 396, 397, 398, 399, 400, 401, 402, 403, 404, 405, 406, 407, 408, 409, 410, 411, 412, 413],
      "AcquisitionTime": ["180240.610000", "180242.100000", "180243.590000", "180245.080000", "180246.570000", "180248.060000", "180249.550000", "180251.040000", "180252.530000", "180254.020000", "180255.510000", "180257.000000", "180258.490000", "180259.980000", "180301.470000", "180302.960000", "180304.450000", "180305.940000", "180307.430000", "180308.920000", "180310.410000", "180311.900000", "180313.390000", "180314.880000", "180316.370000", "180317.860000", "180319.350000", "180320.840000", "180322.330000", "180323.820000", "180325.310000", "180326.800000", "180328.290000", "180329.780000", "180331.270000", "180332.760000", "180334.250000", "180335.740000", "180337.230000", "180338.720000", "180340.210000", "180341.700000", "180343.190000", "180344.680000", "180346.170000", "180347.660000", "180349.150000", "180350.640000", "180352.130000", "180353.620000", "180355.110000", "180356.600000", "180358.090000", "180359.580000", "180401.070000", "180402.560000", "180404.050000", "180405.540000", "180407.030000", "180408.520000", "180410.010000", "180411.500000", "180412.990000", "180414.480000", "180415.970000", "180417.460000", "180418.950000", "180420.440000", "180421.930000", "180423.420000", "180424.910000", "180426.400000", "180427.890000", "180429.380000", "180430.870000", "180432.360000", "180433.850000", "180435.340000", "180436.830000", "180438.320000", "180439.810000", "180441.300000", "180442.790000", "180444.280000", "180445.770000", "180447.260000", "180448.750000", "180450.240000", "180451.730000", "180453.220000", "180454.710000", "180456.200000", "180457.690000", "180459.180000", "180500.670000", "180502.160000", "180503.650000", "180505.140000", "180506.630000", "180508.120000", "180509.610000", "180511.100000", "180512.590000", "180514.080000", "180515.570000", "180517.060000", "180518.550000", "180520.040000", "180521.530000", "180523.020000", "180524.510000", "180526.000000", "180527.490000", "180528.980000", "180530.470000", "180531.960000", "180533.450000", "180534.940000", "180536.430000", "180537.920000", "180539.410000", "180540.900000", "180542.390000", "180543.880000", "180545.370000", "180546.860000", "180548.350000", "180549.840000", "180551.330000", "180552.820000", "180554.310000", "180555.800000", "180557.290000", "180558.780000", "180600.270000", "180601.760000", "180603.250000", "180604.740000", "180606.230000", "180607.720000", "180609.210000", "180610.700000", "180612.190000", "180613.680000", "180615.170000", "180616.660000", "180618.150000", "180619.640000", "180621.130000", "180622.620000", "180624.110000", "180625.600000", "180627.090000", "180628.580000", "180630.070000", "180631.560000", "180633.050000", "180634.540000", "180636.030000", "180637.520000", "180639.010000", "180640.500000", "180641.990000", "180643.480000", "180644.970000", "180646.460000", "180647.950000", "180649.440000", "180650.930000", "180652.420000", "180653.910000", "180655.400000", "180656.890000", "180658.380000", "180659.870000", "180701.360000", "180702.850000", "180704.340000", "180705.830000", "180707.320000", "180708.810000", "180710.300000", "180711.790000", "180713.280000", "180714.770000", "180716.260000", "180717.750000", "180719.240000", "180720.730000", "180722.220000", "180723.710000", "180725.200000", "180726.690000", "180728.180000", "180729.670000", "180731.160000", "180732.650000", "180734.140000", "180735.630000", "180737.120000", "180738.610000", "180740.100000", "180741.590000", "180743.080000", "180744.570000", "180746.060000", "180747.550000", "180749.040000", "180750.530000", "180752.020000", "180753.510000", "180755.000000", "180756.490000", "180757.980000", "180759.470000", "180800.960000", "180802.450000", "180803.940000", "180805.430000", "180806.920000", "180808.410000", "180809.900000", "180811.390000", "180812.880000", "180814.370000", "180815.860000", "180817.350000", "180818.840000", "180820.330000", "180821.820000", "180823.310000", "180824.800000", "180826.290000", "180827.780000", "180829.270000", "180830.760000", "180832.250000", "180833.740000", "180835.230000", "180836.720000", "180838.210000", "180839.700000", "180841.190000", "180842.680000", "180844.170000", "180845.660000", "180847.150000", "180848.640000", "180850.130000", "180851.620000", "180853.110000", "180854.600000", "180856.090000", "180857.580000", "180859.070000", "180900.560000", "180902.050000", "180903.540000", "180905.030000", "180906.520000", "180908.010000", "180909.500000", "180910.990000", "180912.480000", "180913.970000", "180915.460000", "180916.950000", "180918.440000", "180919.930000", "180921.420000", "180922.910000", "180924.400000", "180925.890000", "180927.380000", "180928.870000", "180930.360000", "180931.850000", "180933.340000", "180934.830000", "180936.320000", "180937.810000", "180939.300000", "180940.790000", "180942.280000", "180943.770000", "180945.260000", "180946.750000", "180948.240000", "180949.730000", "180951.220000", "180952.710000", "180954.200000", "180955.690000", "180957.180000", "180958.670000", "181000.160000", "181001.650000", "181003.140000", "181004.630000", "181006.120000", "181007.610000", "181009.100000", "181010.590000", "181012.080000", "181013.570000", "181015.060000", "181016.550000", "181018.040000", "181019.530000", "181021.020000", "181022.510000", "181024.000000", "181025.490000", "181026.980000", "181028.470000", "181029.960000", "181031.450000", "181032.940000", "181034.430000", "181035.920000", "181037.410000", "181038.900000", "181040.390000", "181041.880000", "181043.370000", "181044.860000", "181046.350000", "181047.840000", "181049.330000", "181050.820000", "181052.310000", "181053.800000", "181055.290000", "181056.780000", "181058.270000", "181059.760000", "181101.250000", "181102.740000", "181104.230000", "181105.720000", "181107.210000", "181108.700000", "181110.190000", "181111.680000", "181113.170000", "181114.660000", "181116.150000", "181117.640000", "181119.130000", "181120.620000", "181122.110000", "181123.600000", "181125.090000", "181126.580000", "181128.070000", "181129.560000", "181131.050000", "181132.540000", "181134.030000", "181135.520000", "181137.010000", "181138.500000", "181139.990000", "181141.480000", "181142.970000", "181144.460000", "181145.950000", "181147.440000", "181148.930000", "181150.420000", "181151.910000", "181153.400000", "181154.890000", "181156.380000", "181157.870000", "181159.360000", "181200.850000", "181202.340000", "181203.830000", "181205.320000", "181206.810000", "181208.300000", "181209.790000", "181211.280000", "181212.770000", "181214.260000", "181215.750000", "181217.240000", "181218.730000", "181220.220000", "181221.710000", "181223.200000", "181224.690000", "181226.180000", "181227.670000", "181229.160000", "181230.650000", "181232.140000", "181233.630000", "181235.120000", "181236.610000", "181238.100000", "181239.590000", "181241.080000", "181242.570000", "181244.060000", "181245.550000", "181247.040000", "181248.530000", "181250.020000", "181251.510000", "181253.000000", "181254.490000"],
      "ContentTime": ["180406.167000", "180406.170000", "180406.174000", "180406.176000", "180406.178000", "180406.181000", "180406.183000", "180406.186000", "180406.188000", "180406.191000", "180406.194000", "180406.196000", "180406.198000", "180406.201000", "180406.210000", "180406.212000", "180406.215000", "180406.217000", "180406.220000", "180406.222000", "180406.225000", "180406.227000", "180406.230000", "180406.232000", "180406.235000", "180406.237000", "180406.240000", "180406.242000", "180406.244000", "180406.247000", "180406.249000", "180406.252000", "180426.119000", "180426.122000", "180426.124000", "180426.127000", "180426.129000", "180426.132000", "180426.134000", "180426.137000", "180426.139000", "180426.142000", "180426.144000", "180426.147000", "180426.149000", "180426.152000", "180426.154000", "180426.157000", "180426.282000", "180426.285000", "180426.287000", "180426.290000", "180446.107000", "180446.109000", "180446.112000", "180446.114000", "180446.117000", "180446.120000", "180446.122000", "180446.125000", "180446.127000", "180446.130000", "180446.132000", "180446.135000", "180446.137000", "180446.140000", "180446.142000", "180446.145000", "180446.147000", "180446.150000", "180446.153000", "180446.155000", "180506.105000", "180506.108000", "180506.110000", "180506.113000", "180506.116000", "180506.118000", "180506.120000", "180506.123000", "180506.126000", "180506.128000", "180506.130000", "180506.133000", "180506.135000", "180506.138000", "180506.140000", "180506.143000", "180506.146000", "180506.148000", "180506.151000", "180506.153000", "180506.156000", "180546.149000", "180546.152000", "180546.154000", "180546.157000", "180546.160000", "180546.162000", "180546.165000", "180546.167000", "180546.170000", "180546.172000", "180546.175000", "180546.177000", "180546.180000", "180546.182000", "180546.185000", "180546.187000", "180546.190000", "180546.192000", "180546.195000", "180546.197000", "180546.200000", "180546.203000", "180546.206000", "180546.209000", "180546.211000", "180546.214000", "180546.217000", "180546.220000", "180546.223000", "180546.225000", "180626.124000", "180626.127000", "180626.130000", "180626.132000", "180626.135000", "180626.137000", "180626.140000", "180626.142000", "180626.145000", "180626.148000", "180626.150000", "180626.153000", "180626.156000", "180626.158000", "180626.161000", "180626.163000", "180626.166000", "180626.168000", "180626.171000", "180626.173000", "180626.176000", "180626.178000", "180626.181000", "180626.183000", "180626.186000", "180626.188000", "180626.191000", "180706.120000", "180706.123000", "180706.125000", "180706.128000", "180706.130000", "180706.133000", "180706.135000", "180706.138000", "180706.141000", "180706.143000", "180706.146000", "180706.148000", "180706.151000", "180706.154000", "180706.156000", "180706.159000", "180706.162000", "180706.165000", "180706.167000", "180706.170000", "180706.172000", "180706.175000", "180706.177000", "180706.180000", "180706.182000", "180706.185000", "180706.187000", "180746.122000", "180746.125000", "180746.127000", "180746.130000", "180746.133000", "180746.135000", "180746.138000", "180746.140000", "180746.143000", "180746.145000", "180746.148000", "180746.150000", "180746.153000", "180746.155000", "180746.197000", "180746.200000", "180746.203000", "180746.205000", "180746.208000", "180746.210000", "180746.213000", "180746.215000", "180746.217000", "180746.220000", "180746.223000", "180746.225000", "180746.228000", "180826.119000", "180826.122000", "180826.125000", "180826.127000", "180826.130000", "180826.132000", "180826.135000", "180826.137000", "180826.140000", "180826.142000", "180826.145000", "180826.147000", "180826.150000", "180826.152000", "180826.155000", "180826.157000", "180826.211000", "180826.213000", "180826.216000", "180826.218000", "180826.221000", "180826.223000", "180826.226000", "180826.228000", "180826.231000", "180826.233000", "180826.236000", "180906.128000", "180906.131000", "180906.134000", "180906.136000", "180906.139000", "180906.141000", "180906.144000", "180906.146000", "180906.149000", "180906.152000", "180906.154000", "180906.157000", "180906.220000", "180906.222000", "180906.225000", "180906.227000", "180906.230000", "180906.232000", "180906.235000", "180906.237000", "180906.240000", "180906.242000", "180906.245000", "180906.247000", "180906.250000", "180906.252000", "180946.119000", "180946.121000", "180946.124000", "180946.126000", "180946.129000", "180946.131000", "180946.134000", "180946.136000", "180946.139000", "180946.141000", "180946.144000", "180946.146000", "180946.149000", "180946.152000", "180946.154000", "180946.157000", "180946.160000", "180946.162000", "180946.165000", "180946.167000", "180946.170000", "180946.172000", "180946.175000", "180946.177000", "180946.180000", "180946.182000", "180946.185000", "181026.121000", "181026.124000", "181026.127000", "181026.129000", "181026.132000", "181026.134000", "181026.137000", "181026.139000", "181026.142000", "181026.145000", "181026.147000", "181026.150000", "181026.152000", "181026.155000", "181026.158000", "181026.163000", "181026.166000", "181026.168000", "181026.171000", "181026.174000", "181026.177000", "181026.180000", "181026.182000", "181026.185000", "181026.188000", "181026.191000", "181026.194000", "181106.153000", "181106.155000", "181106.158000", "181106.242000", "181106.244000", "181106.247000", "181106.249000", "181106.252000", "181106.254000", "181106.257000", "181106.259000", "181106.262000", "181106.264000", "181106.267000", "181106.269000", "181106.272000", "181106.274000", "181106.277000", "181106.280000", "181106.282000", "181106.285000", "181106.287000", "181106.290000", "181106.292000", "181106.295000", "181106.297000", "181106.300000", "181146.139000", "181146.141000", "181146.144000", "181146.146000", "181146.149000", "181146.151000", "181146.154000", "181146.157000", "181146.159000", "181146.162000", "181146.164000", "181146.167000", "181146.169000", "181146.172000", "181146.174000", "181146.177000", "181146.179000", "181146.182000", "181146.184000", "181146.187000", "181146.189000", "181146.192000", "181146.195000", "181146.197000", "181146.200000", "181146.202000", "181146.205000", "181226.129000", "181226.132000", "181226.135000", "181226.137000", "181226.140000", "181226.142000", "181226.145000", "181226.147000", "181226.150000", "181226.152000", "181226.155000", "181226.157000", "181226.193000", "181226.196000", "181226.198000", "181226.201000", "181226.203000", "181226.206000", "181226.208000", "181226.211000", "181226.213000", "181226.216000", "181226.218000", "181226.221000", "181226.223000", "181226.226000", "181226.228000", "181258.067000", "181258.069000", "181258.072000", "181258.074000", "181258.077000", "181258.080000", "181258.082000", "181258.084000", "181258.087000", "181258.090000", "181258.092000", "181258.094000", "181258.097000", "181258.100000", "181258.102000", "181258.104000", "181258.107000", "181258.110000", "181258.112000", "181258.115000", "181258.117000"],
      "InstanceCreationTime": ["180406.167000", "180406.170000", "180406.174000", "180406.176000", "180406.178000", "180406.181000", "180406.183000", "180406.186000", "180406.188000", "180406.191000", "180406.194000", "180406.196000", "180406.198000", "180406.201000", "180406.210000", "180406.212000", "180406.215000", "180406.217000", "180406.220000", "180406.222000", "180406.225000", "180406.227000", "180406.230000", "180406.232000", "180406.235000", "180406.237000", "180406.240000", "180406.242000", "180406.244000", "180406.247000", "180406.249000", "180406.252000", "180426.119000", "180426.122000", "180426.124000", "180426.127000", "180426.129000", "180426.132000", "180426.134000", "180426.137000", "180426.139000", "180426.142000", "180426.144000", "180426.147000", "180426.149000", "180426.152000", "180426.154000", "180426.157000", "180426.282000", "180426.285000", "180426.287000", "180426.290000", "180446.107000", "180446.109000", "180446.112000", "180446.114000", "180446.117000", "180446.120000", "180446.122000", "180446.125000", "180446.127000", "180446.130000", "180446.132000", "180446.135000", "180446.137000", "180446.140000", "180446.142000", "180446.145000", "180446.147000", "180446.150000", "180446.153000", "180446.155000", "180506.105000", "180506.108000", "180506.110000", "180506.113000", "180506.116000", "180506.118000", "180506.120000", "180506.123000", "180506.126000", "180506.128000", "180506.130000", "180506.133000", "180506.135000", "180506.138000", "180506.140000", "180506.143000", "180506.146000", "180506.148000", "180506.151000", "180506.153000", "180506.156000", "180546.149000", "180546.152000", "180546.154000", "180546.157000", "180546.160000", "180546.162000", "180546.165000", "180546.167000", "180546.170000", "180546.172000", "180546.175000", "180546.177000", "180546.180000", "180546.182000", "180546.185000", "180546.187000", "180546.190000", "180546.192000", "180546.195000", "180546.197000", "180546.200000", "180546.203000", "180546.206000", "180546.209000", "180546.211000", "180546.214000", "180546.217000", "180546.220000", "180546.223000", "180546.225000", "180626.124000", "180626.127000", "180626.130000", "180626.132000", "180626.135000", "180626.137000", "180626.140000", "180626.142000", "180626.145000", "180626.148000", "180626.150000", "180626.153000", "180626.156000", "180626.158000", "180626.161000", "180626.163000", "180626.166000", "180626.168000", "180626.171000", "180626.173000", "180626.176000", "180626.178000", "180626.181000", "180626.183000", "180626.186000", "180626.188000", "180626.191000", "180706.120000", "180706.123000", "180706.125000", "180706.128000", "180706.130000", "180706.133000", "180706.135000", "180706.138000", "180706.141000", "180706.143000", "180706.146000", "180706.148000", "180706.151000", "180706.154000", "180706.156000", "180706.159000", "180706.162000", "180706.165000", "180706.167000", "180706.170000", "180706.172000", "180706.175000", "180706.177000", "180706.180000", "180706.182000", "180706.185000", "180706.187000", "180746.122000", "180746.125000", "180746.127000", "180746.130000", "180746.133000", "180746.135000", "180746.138000", "180746.140000", "180746.143000", "180746.145000", "180746.148000", "180746.150000", "180746.153000", "180746.155000", "180746.197000", "180746.200000", "180746.203000", "180746.205000", "180746.208000", "180746.210000", "180746.213000", "180746.215000", "180746.217000", "180746.220000", "180746.223000", "180746.225000", "180746.228000", "180826.119000", "180826.122000", "180826.125000", "180826.127000", "180826.130000", "180826.132000", "180826.135000", "180826.137000", "180826.140000", "180826.142000", "180826.145000", "180826.147000", "180826.150000", "180826.152000", "180826.155000", "180826.157000", "180826.211000", "180826.213000", "180826.216000", "180826.218000", "180826.221000", "180826.223000", "180826.226000", "180826.228000", "180826.231000", "180826.233000", "180826.236000", "180906.128000", "180906.131000", "180906.134000", "180906.136000", "180906.139000", "180906.141000", "180906.144000", "180906.146000", "180906.149000", "180906.152000", "180906.154000", "180906.157000", "180906.220000", "180906.222000", "180906.225000", "180906.227000", "180906.230000", "180906.232000", "180906.235000", "180906.237000", "180906.240000", "180906.242000", "180906.245000", "180906.247000", "180906.250000", "180906.252000", "180946.119000", "180946.121000", "180946.124000", "180946.126000", "180946.129000", "180946.131000", "180946.134000", "180946.136000", "180946.139000", "180946.141000", "180946.144000", "180946.146000", "180946.149000", "180946.152000", "180946.154000", "180946.157000", "180946.160000", "180946.162000", "180946.165000", "180946.167000", "180946.170000", "180946.172000", "180946.175000", "180946.177000", "180946.180000", "180946.182000", "180946.185000", "181026.121000", "181026.124000", "181026.127000", "181026.129000", "181026.132000", "181026.134000", "181026.137000", "181026.139000", "181026.142000", "181026.145000", "181026.147000", "181026.150000", "181026.152000", "181026.155000", "181026.158000", "181026.163000", "181026.166000", "181026.168000", "181026.171000", "181026.174000", "181026.177000", "181026.180000", "181026.182000", "181026.185000", "181026.188000", "181026.191000", "181026.194000", "181106.153000", "181106.155000", "181106.158000", "181106.242000", "181106.244000", "181106.247000", "181106.249000", "181106.252000", "181106.254000", "181106.257000", "181106.259000", "181106.262000", "181106.264000", "181106.267000", "181106.269000", "181106.272000", "181106.274000", "181106.277000", "181106.280000", "181106.282000", "181106.285000", "181106.287000", "181106.290000", "181106.292000", "181106.295000", "181106.297000", "181106.300000", "181146.139000", "181146.141000", "181146.144000", "181146.146000", "181146.149000", "181146.151000", "181146.154000", "181146.157000", "181146.159000", "181146.162000", "181146.164000", "181146.167000", "181146.169000", "181146.172000", "181146.174000", "181146.177000", "181146.179000", "181146.182000", "181146.184000", "181146.187000", "181146.189000", "181146.192000", "181146.195000", "181146.197000", "181146.200000", "181146.202000", "181146.205000", "181226.129000", "181226.132000", "181226.135000", "181226.137000", "181226.140000", "181226.142000", "181226.145000", "181226.147000", "181226.150000", "181226.152000", "181226.155000", "181226.157000", "181226.193000", "181226.196000", "181226.198000", "181226.201000", "181226.203000", "181226.206000", "181226.208000", "181226.211000", "181226.213000", "181226.216000", "181226.218000", "181226.221000", "181226.223000", "181226.226000", "181226.228000", "181258.067000", "181258.069000", "181258.072000", "181258.074000", "181258.077000", "181258.080000", "181258.082000", "181258.084000", "181258.087000", "181258.090000", "181258.092000", "181258.094000", "181258.097000", "181258.100000", "181258.102000", "181258.104000", "181258.107000", "181258.110000", "181258.112000", "181258.115000", "181258.117000"],
