{
  "AcquisitionMatrixPE": 104,
  "AcquisitionNumber": 1,
  "AcquisitionTime": "18:14:23.807500",
  "BandwidthPerPixelPhaseEncode": 17.17,
  "BaseResolution": 104,
  "BodyPartExamined": "BRAIN",
  "CoilCombinationMethod": "Sum of Squares",
  "ConsistencyInfo": "N4_VE11C_LATEST_20160120",
  "ConversionSoftware": "dcm2niix",
  "ConversionSoftwareVersion": "v1.0.20211006",
  "DerivedVendorReportedEchoSpacing": 0.000560011,
  "DeviceSerialNumber": "167006",
  "DwellTime": 2.1e-06,
  "EchoTime": 0.037,
  "EchoTime1": 0.037,
  "EchoTime2": 0.001,
  "EchoTrainLength": 104,
  "EffectiveEchoSpacing": 0.000560011,
  "FlipAngle": 52,
  "HeudiconvVersion": "0.11.3.post9+gc939bf8",
  "ImageComments": "Unaliased MB4/PE3/LB",
  "ImageOrientationPatientDICOM": [0.996902, 0.0731211, 0.0289938, -0.0597507, 0.943666, -0.32546],
  "ImageOrientationText": "Tra>Cor(-18.9)>Sag(2.9)",
  "ImageType": [
    "ORIGINAL",
    "PRIMARY",
    "P",
    "MB",
    "ND",
    "MOSAIC",
    "PHASE"
],
  "ImagingFrequency": 123.259,
  "InPlanePhaseEncodingDirectionDICOM": "COL",
  "InstitutionAddress": "Chemin Queen-Mary 4565,Montreal,District,CA,H3W 1W5",
  "InstitutionName": "IUGM",
  "InstitutionalDepartmentName": "Department",
  "MRAcquisitionType": "2D",
  "MagneticFieldStrength": 3,
  "Manufacturer": "Siemens",
  "ManufacturersModelName": "Prisma_fit",
  "MatrixCoilMode": "SENSE",
  "Modality": "MR",
  "MultibandAccelerationFactor": 4,
  "PartialFourier": 1,
  "PatientPosition": "HFS",
  "PercentPhaseFOV": 100,
  "PercentSampling": 100,
  "PhaseEncodingDirection": "j",
  "PhaseEncodingSteps": 104,
  "PhaseResolution": 1,
  "PixelBandwidth": 2290,
  "ProcedureStepDescription": "memory^things",
  "ProtocolName": "func_task-mario_run-04",
  "PulseSequenceDetails": "%CustomerSeq%\\cmrr_mbep2d_bold",
  "ReceiveCoilActiveElements": "HC1-7;NC1,2",
  "ReceiveCoilName": "HeadNeck_64",
  "ReconMatrixPE": 104,
  "RepetitionTime": 1.49,
  "SAR": 0.051124,
  "ScanOptions": "FS",
  "ScanningSequence": "EP",
  "SequenceName": "epfid2d1_104",
  "SequenceVariant": "SK\\SS",
  "SeriesDescription": "func_task-mario_run-04",
  "SeriesNumber": 26,
  "ShimSetting": [633, -7180, -8829, 646, 87, 61, -19, -32],
  "SliceThickness": 2,
  "SliceTiming": [0, 0.785, 0.0975, 0.8825, 0.195, 0.98, 0.295, 1.0775, 0.3925, 1.175, 0.49, 1.275, 0.5875, 1.3725, 0.685, 0, 0.785, 0.0975, 0.8825, 0.195, 0.98, 0.295, 1.0775, 0.3925, 1.175, 0.49, 1.275, 0.5875, 1.3725, 0.685, 0, 0.785, 0.0975, 0.8825, 0.195, 0.98, 0.295, 1.0775, 0.3925, 1.175, 0.49, 1.275, 0.5875, 1.3725, 0.685, 0, 0.785, 0.0975, 0.8825, 0.195, 0.98, 0.295, 1.0775, 0.3925, 1.175, 0.49, 1.275, 0.5875, 1.3725, 0.685],
  "SoftwareVersions": "syngo MR E11",
  "SpacingBetweenSlices": 2,
  "StationName": "MRC35049",
  "TaskName": "mario",
  "TotalReadoutTime": 0.0576811,
  "TxRefAmp": 280.006,
  "WipMemBlock": "da55b5cd-30a7-4c3c-bba0-753514639067||Sequence: R016 ve11c/master r/e634e98; Dec 19 2017 11:00:25 by eja",
  "dcmmeta_affine": [
    [-1.9938030242919922, -0.11950139701366425, 0.1023169457912445, 109.89363861083984],
    [-0.1462422013282776, 1.8873319625854492, -0.6454389691352844, -54.12718963623047],
    [0.05798758566379547, 0.6509206295013428, 1.890222191810608, -64.2376708984375],
    [0.0, 0.0, 0.0, 1.0]
],
  "dcmmeta_reorient_transform": [
    [0.0, -1.0, 0.0, 103.0],
    [1.0, 0.0, 0.0, 0.0],
    [0.0, 0.0, 1.0, 0.0],
    [0.0, 0.0, 0.0, 1.0]
],
  "dcmmeta_shape": [104, 104, 60, 431],
  "dcmmeta_slice_dim": 2,
  "dcmmeta_version": 0.6,
  "global": {
    "const": {
      "AcquisitionMatrix": [104, 0, 0, 104],
      "AngioFlag": "N",
      "BitsAllocated": 16,
      "BitsStored": 16,
      "BodyPartExamined": "BRAIN",
      "Columns": 832,
      "EchoNumbers": 1,
      "EchoTime": 37.0,
      "EchoTrainLength": 104,
      "FlipAngle": 52.0,
      "HighBit": 15,
      "ImageOrientationPatient": [0.99690153207816, 0.07312110023007, 0.02899379315243, -0.0597506996365, 0.9436659569121, -0.3254603134917],
      "ImagePositionPatient": [-779.83080100014, -880.48897585991, 218.63477718546],
      "ImageType": [
        "ORIGINAL",
        "PRIMARY",
        "P",
        "MB",
        "ND",
        "MOSAIC"
],
      "ImagedNucleus": "1H",
      "ImagingFrequency": 123.258896,
      "InPlanePhaseEncodingDirection": "COL",
      "LargestImagePixelValue": 4095,
      "MRAcquisitionType": "2D",
      "MagneticFieldStrength": 3.0,
      "Manufacturer": "SIEMENS",
      "ManufacturerModelName": "Prisma_fit",
      "Modality": "MR",
      "NumberOfAverages": 1.0,
      "NumberOfPhaseEncodingSteps": 104,
      "PercentPhaseFieldOfView": 100.0,
      "PercentSampling": 100.0,
      "PerformedProcedureStepStartTime": "170220.101000",
      "PhotometricInterpretation": "MONOCHROME2",
      "PixelBandwidth": 2290.0,
      "PixelRepresentation": 0,
      "PixelSpacing": [2.0, 2.0],
      "ProtocolName": "func_task-mario_run-04",
      "RepetitionTime": 1490.0,
      "RescaleIntercept": -4096.0,
      "RescaleSlope": 2.0,
      "RescaleType": "US",
      "Rows": 832,
      "SAR": 0.0511240482522,
      "SamplesPerPixel": 1,
      "ScanOptions": "FS",
      "ScanningSequence": "EP",
      "SequenceName": "epfid2d1_104",
      "SequenceVariant": [
        "SK",
        "SS"
],
      "SeriesDescription": "func_task-mario_run-04",
      "SeriesNumber": 26,
      "SeriesTime": "181556.527000",
      "SliceLocation": -37.621848139662,
      "SliceThickness": 2.0,
      "SmallestImagePixelValue": 0,
      "SoftwareVersions": "syngo MR E11",
      "SpacingBetweenSlices": 2.0000000455499,
      "SpecificCharacterSet": "ISO_IR 100",
      "StudyID": "1",
      "StudyTime": "170219.935000",
      "TransmitCoilName": "Body",
      "VariableFlipAngleFlag": "N",
      "WindowCenterWidthExplanation": "Algo1",
      "dBdt": 0.0},
    "slices": {}
  },
  "time": {
    "samples": {
      "AcquisitionNumber": [1, 2, 3, 4, 5, 6, 7, 8, 9, 10, 11, 12, 13, 14, 15, 16, 17, 18, 19, 20, 21, 22, 23, 24, 25, 26, 27, 28, 29, 30, 31, 32, 33, 34, 35, 36, 37, 38, 39, 40, 41, 42, 43, 44, 45, 46, 47, 48, 49, 50, 51, 52, 53, 54, 55, 56, 57, 58, 59, 60, 61, 62, 63, 64, 65, 66, 67, 68, 69, 70, 71, 72, 73, 74, 75, 76, 77, 78, 79, 80, 81, 82, 83, 84, 85, 86, 87, 88, 89, 90, 91, 92, 93, 94, 95, 96, 97, 98, 99, 100, 101, 102, 103, 104, 105, 106, 107, 108, 109, 110, 111, 112, 113, 114, 115, 116, 117, 118, 119, 120, 121, 122, 123, 124, 125, 126, 127, 128, 129, 130, 131, 132, 133, 134, 135, 136, 137, 138, 139, 140, 141, 142, 143, 144, 145, 146, 147, 148, 149, 150, 151, 152, 153, 154, 155, 156, 157, 158, 159, 160, 161, 162, 163, 164, 165, 166, 167, 168, 169, 170, 171, 172, 173, 174, 175, 176, 177, 178, 179, 180, 181, 182, 183, 184, 185, 186, 187, 188, 189, 190, 191, 192, 193, 194, 195, 196, 197, 198, 199, 200, 201, 202, 203, 204, 205, 206, 207, 208, 209, 210, 211, 212, 213, 214, 215, 216, 217, 218, 219, 220, 221, 222, 223, 224, 225, 226, 227, 228, 229, 230, 231, 232, 233, 234, 235, 236, 237, 238, 239, 240, 241, 242, 243, 244, 245, 246, 247, 248, 249, 250, 251, 252, 253, 254, 255, 256, 257, 258, 259, 260, 261, 262, 263, 264, 265, 266, 267, 268, 269, 270, 271, 272, 273, 274, 275, 276, 277, 278, 279, 280, 281, 282, 283, 284, 285, 286, 287, 288, 289, 290, 291, 292, 293, 294, 295, 296, 297, 298, 299, 300, 301, 302, 303, 304, 305, 306, 307, 308, 309, 310, 311, 312, 313, 314, 315, 316, 317, 318, 319, 320, 321, 322, 323, 324, 325, 326, 327, 328, 329, 330, 331, 332, 333, 334, 335, 336, 337, 338, 339, 340, 341, 342, 343, 344, 345, 346, 347, 348, 349, 350, 351, 352, 353, 354, 355, 356, 357, 358, 359, 360, 361, 362, 363, 364, 365, 366, 367, 368, 369, 370, 371, 372, 373, 374, 375, 376, 377, 378, 379, 380, 381, 382, 383, 384, 385, 386, 387, 388, 389, 390, 391, 392, 393, 394, 395, 396, 397, 398, 399, 400, 401, 402, 403, 404, 405, 406, 407, 408, 409, 410, 411, 412, 413, 414, 415, 416, 417, 418, 419, 420, 421, 422, 423, 424, 425, 426, 427, 428, 429, 430, 431],
      "AcquisitionTime": ["181423.807500", "181425.297500", "181426.787500", "181428.277500", "181429.767500", "181431.257500", "181432.747500", "181434.237500", "181435.727500", "181437.217500", "181438.707500", "181440.197500", "181441.687500", "181443.177500", "181444.667500", "181446.157500", "181447.647500", "181449.137500", "181450.627500", "181452.117500", "181453.607500", "181455.097500", "181456.587500", "181458.077500", "181459.567500", "181501.057500", "181502.547500", "181504.037500", "181505.527500", "181507.017500", "181508.507500", "181509.997500", "181511.487500", "181512.977500", "181514.467500", "181515.957500", "181517.447500", "181518.937500", "181520.427500", "181521.917500", "181523.407500", "181524.897500", "181526.387500", "181527.877500", "181529.367500", "181530.857500", "181532.347500", "181533.837500", "181535.327500", "181536.817500", "181538.307500", "181539.797500", "181541.287500", "181542.777500", "181544.267500", "181545.757500", "181547.247500", "181548.737500", "181550.227500", "181551.717500", "181553.207500", "181554.697500", "181556.187500", "181557.677500", "181559.167500", "181600.657500", "181602.147500", "181603.637500", "181605.127500", "181606.617500", "181608.107500", "181609.597500", "181611.087500", "181612.577500", "181614.067500", "181615.557500", "181617.047500", "181618.537500", "181620.027500", "181621.517500", "181623.007500", "181624.497500", "181625.987500", "181627.477500", "181628.967500", "181630.457500", "181631.947500", "181633.437500", "181634.927500", "181636.417500", "181637.907500", "181639.397500", "181640.887500", "181642.377500", "181643.867500", "181645.357500", "181646.847500", "181648.337500", "181649.827500", "181651.317500", "181652.807500", "181654.297500", "181655.787500", "181657.277500", "181658.767500", "181700.257500", "181701.747500", "181703.237500", "181704.727500", "181706.217500", "181707.707500", "181709.197500", "181710.687500", "181712.177500", "181713.667500", "181715.157500", "181716.647500", "181718.137500", "181719.627500", "181721.117500", "181722.607500", "181724.097500", "181725.587500", "181727.077500", "181728.567500", "181730.057500", "181731.547500", "181733.037500", "181734.527500", "181736.017500", "181737.507500", "181738.997500", "181740.487500", "181741.977500", "181743.467500", "181744.957500", "181746.447500", "181747.937500", "181749.427500", "181750.917500", "181752.407500", "181753.897500", "181755.387500", "181756.877500", "181758.367500", "181759.857500", "181801.347500", "181802.837500", "181804.327500", "181805.817500", "181807.307500", "181808.797500", "181810.287500", "181811.777500", "181813.267500", "181814.757500", "181816.247500", "181817.737500", "181819.227500", "181820.717500", "181822.207500", "181823.697500", "181825.187500", "181826.677500", "181828.167500", "181829.657500", "181831.147500", "181832.637500", "181834.127500", "181835.617500", "181837.107500", "181838.597500", "181840.087500", "181841.577500", "181843.067500", "181844.557500", "181846.047500", "181847.537500", "181849.027500", "181850.517500", "181852.007500", "181853.497500", "181854.987500", "181856.477500", "181857.967500", "181859.457500", "181900.947500", "181902.437500", "181903.927500", "181905.417500", "181906.907500", "181908.397500", "181909.887500", "181911.377500", "181912.867500", "181914.357500", "181915.847500", "181917.337500", "181918.827500", "181920.317500", "181921.807500", "181923.297500", "181924.787500", "181926.277500", "181927.767500", "181929.257500", "181930.747500", "181932.237500", "181933.727500", "181935.217500", "181936.707500", "181938.197500", "181939.687500", "181941.177500", "181942.667500", "181944.157500", "181945.647500", "181947.137500", "181948.627500", "181950.117500", "181951.607500", "181953.097500", "181954.587500", "181956.077500", "181957.567500", "181959.057500", "182000.547500", "182002.037500", "182003.527500", "182005.017500", "182006.507500", "182007.997500", "182009.487500", "182010.977500", "182012.467500", "182013.957500", "182015.447500", "182016.937500", "182018.427500", "182019.917500", "182021.407500", "182022.897500", "182024.387500", "182025.877500", "182027.367500", "182028.857500", "182030.347500", "182031.837500", "182033.327500", "182034.817500", "182036.307500", "182037.797500", "182039.287500", "182040.777500", "182042.267500", "182043.757500", "182045.247500", "182046.737500", "182048.227500", "182049.717500", "182051.207500", "182052.697500", "182054.187500", "182055.677500", "182057.167500", "182058.657500", "182100.147500", "182101.637500", "182103.127500", "182104.617500", "182106.107500", "182107.597500", "182109.087500", "182110.577500", "182112.067500", "182113.557500", "182115.047500", "182116.537500", "182118.027500", "182119.517500", "182121.007500", "182122.497500", "182123.987500", "182125.477500", "182126.967500", "182128.457500", "182129.947500", "182131.437500", "182132.927500", "182134.417500", "182135.907500", "182137.397500", "182138.887500", "182140.377500", "182141.867500", "182143.357500", "182144.847500", "182146.337500", "182147.827500", "182149.317500", "182150.807500", "182152.297500", "182153.787500", "182155.277500", "182156.767500", "182158.257500", "182159.747500", "182201.237500", "182202.727500", "182204.217500", "182205.707500", "182207.197500", "182208.687500", "182210.177500", "182211.667500", "182213.157500", "182214.647500", "182216.137500", "182217.627500", "182219.117500", "182220.607500", "182222.097500", "182223.587500", "182225.077500", "182226.567500", "182228.057500", "182229.547500", "182231.037500", "182232.527500", "182234.017500", "182235.507500", "182236.997500", "182238.487500", "182239.977500", "182241.467500", "182242.957500", "182244.447500", "182245.937500", "182247.427500", "182248.917500", "182250.407500", "182251.897500", "182253.387500", "182254.877500", "182256.367500", "182257.857500", "182259.347500", "182300.837500", "182302.327500", "182303.817500", "182305.307500", "182306.797500", "182308.287500", "182309.777500", "182311.267500", "182312.757500", "182314.247500", "182315.737500", "182317.227500", "182318.717500", "182320.207500", "182321.697500", "182323.187500", "182324.677500", "182326.167500", "182327.657500", "182329.147500", "182330.637500", "182332.127500", "182333.617500", "182335.107500", "182336.597500", "182338.087500", "182339.577500", "182341.067500", "182342.557500", "182344.047500", "182345.537500", "182347.027500", "182348.517500", "182350.007500", "182351.497500", "182352.987500", "182354.477500", "182355.967500", "182357.457500", "182358.947500", "182400.437500", "182401.927500", "182403.417500", "182404.907500", "182406.397500", "182407.887500", "182409.377500", "182410.867500", "182412.357500", "182413.847500", "182415.337500", "182416.827500", "182418.317500", "182419.807500", "182421.297500", "182422.787500", "182424.277500", "182425.767500", "182427.257500", "182428.747500", "182430.237500", "182431.727500", "182433.217500", "182434.707500", "182436.197500", "182437.687500", "182439.177500", "182440.667500", "182442.157500", "182443.647500", "182445.137500", "182446.627500", "182448.117500", "182449.607500", "182451.097500", "182452.587500", "182454.077500", "182455.567500", "182457.057500", "182458.547500", "182500.037500", "182501.527500", "182503.017500", "182504.507500"],
      "ContentTime": ["181556.529000", "181556.532000", "181556.534000", "181556.537000", "181556.539000", "181556.542000", "181556.544000", "181556.547000", "181556.549000", "181556.552000", "181556.554000", "181556.557000", "181556.559000", "181556.562000", "181556.567000", "181556.569000", "181556.572000", "181556.574000", "181556.577000", "181556.579000", "181556.582000", "181556.589000", "181556.592000", "181556.594000", "181556.597000", "181556.600000", "181556.602000", "181556.604000", "181556.607000", "181556.610000", "181556.613000", "181556.616000", "181556.618000", "181556.621000", "181556.623000", "181556.626000", "181556.629000", "181616.430000", "181616.433000", "181616.435000", "181616.452000", "181616.454000", "181616.457000", "181616.459000", "181616.468000", "181616.471000", "181616.473000", "181616.475000", "181616.478000", "181616.481000", "181616.483000", "181616.485000", "181616.488000", "181616.490000", "181616.493000", "181616.495000", "181616.498000", "181636.416000", "181636.419000", "181636.421000", "181636.424000", "181636.426000", "181636.429000", "181636.431000", "181636.434000", "181636.436000", "181636.439000", "181636.442000", "181636.445000", "181636.447000", "181636.450000", "181636.452000", "181636.455000", "181636.458000", "181636.460000", "181636.463000", "181636.465000", "181656.445000", "181656.447000", "181656.450000", "181656.453000", "181656.455000", "181656.458000", "181656.460000", "181656.463000", "181656.465000", "181656.468000", "181656.470000", "181656.473000", "181656.475000", "181656.478000", "181656.480000", "181656.483000", "181656.485000", "181656.488000", "181656.490000", "181656.493000", "181656.495000", "181736.477000", "181736.480000", "181736.482000", "181736.485000", "181736.487000", "181736.490000", "181736.492000", "181736.495000", "181736.497000", "181736.500000", "181736.502000", "181736.505000", "181736.507000", "181736.510000", "181736.512000", "181736.515000", "181736.517000", "181736.520000", "181736.522000", "181736.525000", "181736.527000", "181736.530000", "181736.533000", "181736.535000", "181736.537000", "181736.540000", "181736.543000", "181736.545000", "181736.547000", "181736.550000", "181736.553000", "181816.444000", "181816.447000", "181816.449000", "181816.452000", "181816.454000", "181816.457000", "181816.459000", "181816.462000", "181816.465000", "181816.467000", "181816.470000", "181816.472000", "181816.475000", "181816.477000", "181816.480000", "181816.482000", "181816.485000", "181816.487000", "181816.490000", "181816.492000", "181816.495000", "181816.497000", "181816.500000", "181816.502000", "181816.505000", "181816.507000", "181856.441000", "181856.444000", "181856.446000", "181856.449000", "181856.452000", "181856.454000", "181856.457000", "181856.459000", "181856.462000", "181856.465000", "181856.467000", "181856.469000", "181856.472000", "181856.474000", "181856.477000", "181856.479000", "181856.482000", "181856.484000", "181856.487000", "181856.489000", "181856.492000", "181856.494000", "181856.497000", "181856.499000", "181856.502000", "181856.504000", "181856.507000", "181936.437000", "181936.440000", "181936.442000", "181936.445000", "181936.447000", "181936.450000", "181936.452000", "181936.455000", "181936.457000", "181936.460000", "181936.462000", "181936.465000", "181936.467000", "181936.470000", "181936.472000", "181936.475000", "181936.477000", "181936.480000", "181936.482000", "181936.485000", "181936.487000", "181936.490000", "181936.492000", "181936.495000", "181936.497000", "181936.499000", "181936.502000", "182016.450000", "182016.453000", "182016.455000", "182016.458000", "182016.461000", "182016.463000", "182016.466000", "182016.468000", "182016.471000", "182016.473000", "182016.476000", "182016.478000", "182016.481000", "182016.483000", "182016.486000", "182016.488000", "182016.491000", "182016.493000", "182016.496000", "182016.498000", "182016.501000", "182016.503000", "182016.506000", "182016.508000", "182016.511000", "182016.513000", "182016.516000", "182056.446000", "182056.449000", "182056.452000", "182056.454000", "182056.457000", "182056.459000", "182056.462000", "182056.465000", "182056.467000", "182056.469000", "182056.472000", "182056.474000", "182056.477000", "182056.479000", "182056.482000", "182056.484000", "182056.487000", "182056.490000", "182056.493000", "182056.495000", "182056.497000", "182056.500000", "182056.503000", "182056.505000", "182056.508000", "182056.510000", "182056.513000", "182136.438000", "182136.441000", "182136.443000", "182136.446000", "182136.448000", "182136.451000", "182136.454000", "182136.456000", "182136.459000", "182136.461000", "182136.464000", "182136.466000", "182136.469000", "182136.471000", "182136.474000", "182136.476000", "182136.479000", "182136.481000", "182136.484000", "182136.486000", "182136.489000", "182136.491000", "182136.494000", "182136.496000", "182136.499000", "182136.501000", "182136.504000", "182216.440000", "182216.443000", "182216.445000", "182216.448000", "182216.451000", "182216.453000", "182216.455000", "182216.458000", "182216.461000", "182216.463000", "182216.465000", "182216.468000", "182216.471000", "182216.473000", "182216.476000", "182216.478000", "182216.481000", "182216.483000", "182216.486000", "182216.488000", "182216.491000", "182216.493000", "182216.496000", "182216.498000", "182216.501000", "182216.503000", "182256.460000", "182256.463000", "182256.465000", "182256.468000", "182256.470000", "182256.473000", "182256.475000", "182256.478000", "182256.480000", "182256.487000", "182256.490000", "182256.492000", "182256.495000", "182256.497000", "182256.500000", "182256.503000", "182256.505000", "182256.507000", "182256.510000", "182256.513000", "182256.515000", "182256.518000", "182256.520000", "182256.523000", "182256.525000", "182256.527000", "182256.530000", "182336.446000", "182336.448000", "182336.451000", "182336.453000", "182336.456000", "182336.459000", "182336.461000", "182336.464000", "182336.466000", "182336.469000", "182336.471000", "182336.473000", "182336.476000", "182336.479000", "182336.481000", "182336.484000", "182336.486000", "182336.489000", "182336.491000", "182336.493000", "182336.496000", "182336.499000", "182336.501000", "182336.504000", "182336.506000", "182336.509000", "182336.511000", "182416.448000", "182416.451000", "182416.453000", "182416.456000", "182416.458000", "182416.461000", "182416.464000", "182416.466000", "182416.469000", "182416.471000", "182416.474000", "182416.476000", "182416.479000", "182416.481000", "182416.484000", "182416.486000", "182416.489000", "182416.491000", "182416.494000", "182416.496000", "182416.499000", "182416.501000", "182416.504000", "182416.506000", "182416.509000", "182416.511000", "182416.514000", "182456.439000", "182456.442000", "182456.444000", "182456.447000", "182456.449000", "182456.452000", "182456.454000", "182456.457000", "182456.459000", "182456.462000", "182456.464000", "182456.467000", "182456.469000", "182456.472000", "182456.474000", "182456.477000", "182456.479000", "182456.482000", "182456.484000", "182456.487000", "182456.489000", "182456.492000", "182456.494000", "182456.497000", "182456.499000", "182456.502000", "182456.504000", "182506.370000", "182506.372000", "182506.387000", "182506.390000", "182506.392000", "182506.395000", "182506.397000"],
      "InstanceCreationTime": ["181556.529000", "181556.532000", "181556.534000", "181556.537000", "181556.539000", "181556.542000", "181556.544000", "181556.547000", "181556.549000", "181556.552000", "181556.554000", "181556.557000", "181556.559000", "181556.562000", "181556.567000", "181556.569000", "181556.572000", "181556.574000", "181556.577000", "181556.579000", "181556.582000", "181556.589000", "181556.592000", "181556.594000", "181556.597000", "181556.600000", "181556.602000", "181556.604000", "181556.607000", "181556.610000", "181556.613000", "181556.616000", "181556.618000", "181556.621000", "181556.623000", "181556.626000", "181556.629000", "181616.430000", "181616.433000", "181616.435000", "181616.452000", "181616.454000", "181616.457000", "181616.459000", "181616.468000", "181616.471000", "181616.473000", "181616.475000", "181616.478000", "181616.481000", "181616.483000", "181616.485000", "181616.488000", "181616.490000", "181616.493000", "181616.495000", "181616.498000", "181636.416000", "181636.419000", "181636.421000", "181636.424000", "181636.426000", "181636.429000", "181636.431000", "181636.434000", "181636.436000", "181636.439000", "181636.442000", "181636.445000", "181636.447000", "181636.450000", "181636.452000", "181636.455000", "181636.458000", "181636.460000", "181636.463000", "181636.465000", "181656.445000", "181656.447000", "181656.450000", "181656.453000", "181656.455000", "181656.458000", "181656.460000", "181656.463000", "181656.465000", "181656.468000", "181656.470000", "181656.473000", "181656.475000", "181656.478000", "181656.480000", "181656.483000", "181656.485000", "181656.488000", "181656.490000", "181656.493000", "181656.495000", "181736.477000", "181736.480000", "181736.482000", "181736.485000", "181736.487000", "181736.490000", "181736.492000", "181736.495000", "181736.497000", "181736.500000", "181736.502000", "181736.505000", "181736.507000", "181736.510000", "181736.512000", "181736.515000", "181736.517000", "181736.520000", "181736.522000", "181736.525000", "181736.527000", "181736.530000", "181736.533000", "181736.535000", "181736.537000", "181736.540000", "181736.543000", "181736.545000", "181736.547000", "181736.550000", "181736.553000", "181816.444000", "181816.447000", "181816.449000", "181816.452000", "181816.454000", "181816.457000", "181816.459000", "181816.462000", "181816.465000", "181816.467000", "181816.470000", "181816.472000", "181816.475000", "181816.477000", "181816.480000", "181816.482000", "181816.485000", "181816.487000", "181816.490000", "181816.492000", "181816.495000", "181816.497000", "181816.500000", "181816.502000", "181816.505000", "181816.507000", "181856.441000", "181856.444000", "181856.446000", "181856.449000", "181856.452000", "181856.454000", "181856.457000", "181856.459000", "181856.462000", "181856.465000", "181856.467000", "181856.469000", "181856.472000", "181856.474000", "181856.477000", "181856.479000", "181856.482000", "181856.484000", "181856.487000", "181856.489000", "181856.492000", "181856.494000", "181856.497000", "181856.499000", "181856.502000", "181856.504000", "181856.507000", "181936.437000", "181936.440000", "181936.442000", "181936.445000", "181936.447000", "181936.450000", "181936.452000", "181936.455000", "181936.457000", "181936.460000", "181936.462000", "181936.465000", "181936.467000", "181936.470000", "181936.472000", "181936.475000", "181936.477000", "181936.480000", "181936.482000", "181936.485000", "181936.487000", "181936.490000", "181936.492000", "181936.495000", "181936.497000", "181936.499000", "181936.502000", "182016.450000", "182016.453000", "182016.455000", "182016.458000", "182016.461000", "182016.463000", "182016.466000", "182016.468000", "182016.471000", "182016.473000", "182016.476000", "182016.478000", "182016.481000", "182016.483000", "182016.486000", "182016.488000", "182016.491000", "182016.493000", "182016.496000", "182016.498000", "182016.501000", "182016.503000", "182016.506000", "182016.508000", "182016.511000", "182016.513000", "182016.516000", "182056.446000", "182056.449000", "182056.452000", "182056.454000", "182056.457000", "182056.459000", "182056.462000", "182056.465000", "182056.467000", "182056.469000", "182056.472000", "182056.474000", "182056.477000", "182056.479000", "182056.482000", "182056.484000", "182056.487000", "182056.490000", "182056.493000", "182056.495000", "182056.497000", "182056.500000", "182056.503000", "182056.505000", "182056.508000", "182056.510000", "182056.513000", "182136.438000", "182136.441000", "182136.443000", "182136.446000", "182136.448000", "182136.451000", "182136.454000", "182136.456000", "182136.459000", "182136.461000", "182136.464000", "182136.466000", "182136.469000", "182136.471000", "182136.474000", "182136.476000", "182136.479000", "182136.481000", "182136.484000", "182136.486000", "182136.489000", "182136.491000", "182136.494000", "182136.496000", "182136.499000", "182136.501000", "182136.504000", "182216.440000", "182216.443000", "182216.445000", "182216.448000", "182216.451000", "182216.453000", "182216.455000", "182216.458000", "182216.461000", "182216.463000", "182216.465000", "182216.468000", "182216.471000", "182216.473000", "182216.476000", "182216.478000", "182216.481000", "182216.483000", "182216.486000", "182216.488000", "182216.491000", "182216.493000", "182216.496000", "182216.498000", "182216.501000", "182216.503000", "182256.460000", "182256.463000", "182256.465000", "182256.468000", "182256.470000", "182256.473000", "182256.475000", "182256.478000", "182256.480000", "182256.487000", "182256.490000", "182256.492000", "182256.495000", "182256.497000", "182256.500000", "182256.503000", "182256.505000", "182256.507000", "182256.510000", "182256.513000", "182256.515000", "182256.518000", "182256.520000", "182256.523000", "182256.525000", "182256.527000", "182256.530000", "182336.446000", "182336.448000", "182336.451000", "182336.453000", "182336.456000", "182336.459000", "182336.461000", "182336.464000", "182336.466000", "182336.469000", "182336.471000", "182336.473000", "182336.476000", "182336.479000", "182336.481000", "182336.484000", "182336.486000", "182336.489000", "182336.491000", "182336.493000", "182336.496000", "182336.499000", "182336.501000", "182336.504000", "182336.506000", "182336.509000", "182336.511000", "182416.448000", "182416.451000", "182416.453000", "182416.456000", "182416.458000", "182416.461000", "182416.464000", "182416.466000", "182416.469000", "182416.471000", "182416.474000", "182416.476000", "182416.479000", "182416.481000", "182416.484000", "182416.486000", "182416.489000", "182416.491000", "182416.494000", "182416.496000", "182416.499000", "182416.501000", "182416.504000", "182416.506000", "182416.509000", "182416.511000", "182416.514000", "182456.439000", "182456.442000", "182456.444000", "182456.447000", "182456.449000", "182456.452000", "182456.454000", "182456.457000", "182456.459000", "182456.462000", "182456.464000", "182456.467000", "182456.469000", "182456.472000", "182456.474000", "182456.477000", "182456.479000", "182456.482000", "182456.484000", "182456.487000", "182456.489000", "182456.492000", "182456.494000", "182456.497000", "182456.499000", "182456.502000", "182456.504000", "182506.370000", "182506.372000", "182506.387000", "182506.390000", "182506.392000", "182506.395000", "182506.397000"],
