{
  "AcquisitionMatrixPE": 104,
  "AcquisitionNumber": 1,
  "AcquisitionTime": "17:49:49.727500",
  "BandwidthPerPixelPhaseEncode": 17.17,
  "BaseResolution": 104,
  "BodyPartExamined": "BRAIN",
  "CoilCombinationMethod": "Sum of Squares",
  "ConsistencyInfo": "N4_VE11C_LATEST_20160120",
  "ConversionSoftware": "dcm2niix",
  "ConversionSoftwareVersion": "v1.0.20211006",
  "DerivedVendorReportedEchoSpacing": 0.000560011,
  "DeviceSerialNumber": "167006",
  "DwellTime": 2.1e-06,
  "EchoTime": 0.037,
  "EchoTrainLength": 104,
  "EffectiveEchoSpacing": 0.000560011,
  "FlipAngle": 52,
  "HeudiconvVersion": "0.11.3.post9+gc939bf8",
  "ImageComments": "Unaliased MB4/PE3/LB",
  "ImageOrientationPatientDICOM": [0.996902, 0.0731211, 0.0289938, -0.0597507, 0.943666, -0.32546],
  "ImageOrientationText": "Tra>Cor(-18.9)>Sag(2.9)",
  "ImageType": [
    "ORIGINAL",
    "PRIMARY",
    "M",
    "MB",
    "ND",
    "MOSAIC"
],
  "ImagingFrequency": 123.259,
  "InPlanePhaseEncodingDirectionDICOM": "COL",
  "InstitutionAddress": "Chemin Queen-Mary 4565,Montreal,District,CA,H3W 1W5",
  "InstitutionName": "IUGM",
  "InstitutionalDepartmentName": "Department",
  "MRAcquisitionType": "2D",
  "MagneticFieldStrength": 3,
  "Manufacturer": "Siemens",
  "ManufacturersModelName": "Prisma_fit",
  "MatrixCoilMode": "SENSE",
  "Modality": "MR",
  "MultibandAccelerationFactor": 4,
  "PartialFourier": 1,
  "PatientPosition": "HFS",
  "PercentPhaseFOV": 100,
  "PercentSampling": 100,
  "PhaseEncodingDirection": "j",
  "PhaseEncodingSteps": 104,
  "PhaseResolution": 1,
  "PixelBandwidth": 2290,
  "ProcedureStepDescription": "memory^things",
  "ProtocolName": "func_task-mario_run-02",
  "PulseSequenceDetails": "%CustomerSeq%\\cmrr_mbep2d_bold",
  "ReceiveCoilActiveElements": "HC1-7;NC1,2",
  "ReceiveCoilName": "HeadNeck_64",
  "ReconMatrixPE": 104,
  "RepetitionTime": 1.49,
  "SAR": 0.051124,
  "ScanOptions": "FS",
  "ScanningSequence": "EP",
  "SequenceName": "epfid2d1_104",
  "SequenceVariant": "SK\\SS",
  "SeriesDescription": "func_task-mario_run-02",
  "SeriesNumber": 19,
  "ShimSetting": [633, -7180, -8829, 646, 87, 61, -19, -32],
  "SliceThickness": 2,
  "SliceTiming": [0, 0.7825, 0.0975, 0.88, 0.195, 0.98, 0.2925, 1.0775, 0.39, 1.175, 0.49, 1.2725, 0.5875, 1.37, 0.685, 0, 0.7825, 0.0975, 0.88, 0.195, 0.98, 0.2925, 1.0775, 0.39, 1.175, 0.49, 1.2725, 0.5875, 1.37, 0.685, 0, 0.7825, 0.0975, 0.88, 0.195, 0.98, 0.2925, 1.0775, 0.39, 1.175, 0.49, 1.2725, 0.5875, 1.37, 0.685, 0, 0.7825, 0.0975, 0.88, 0.195, 0.98, 0.2925, 1.0775, 0.39, 1.175, 0.49, 1.2725, 0.5875, 1.37, 0.685],
  "SoftwareVersions": "syngo MR E11",
  "SpacingBetweenSlices": 2,
  "StationName": "MRC35049",
  "TaskName": "mario",
  "TotalReadoutTime": 0.0576811,
  "TxRefAmp": 280.006,
  "WipMemBlock": "fd29db7f-c900-4223-84bb-327688a32c48||Sequence: R016 ve11c/master r/e634e98; Dec 19 2017 11:00:25 by eja",
  "dcmmeta_affine": [
    [-1.9938030242919922, -0.11950139701366425, 0.1023169457912445, 109.89363861083984],
    [-0.1462422013282776, 1.8873319625854492, -0.6454389691352844, -54.12718963623047],
    [0.05798758566379547, 0.6509206295013428, 1.890222191810608, -64.2376708984375],
    [0.0, 0.0, 0.0, 1.0]
],
  "dcmmeta_reorient_transform": [
    [0.0, -1.0, 0.0, 103.0],
    [1.0, 0.0, 0.0, 0.0],
    [0.0, 0.0, 1.0, 0.0],
    [0.0, 0.0, 0.0, 1.0]
],
  "dcmmeta_shape": [104, 104, 60, 452],
  "dcmmeta_slice_dim": 2,
  "dcmmeta_version": 0.6,
  "global": {
    "const": {
      "AcquisitionMatrix": [104, 0, 0, 104],
      "AngioFlag": "N",
      "BitsAllocated": 16,
      "BitsStored": 16,
      "BodyPartExamined": "BRAIN",
      "Columns": 832,
      "EchoNumbers": 1,
      "EchoTime": 37.0,
      "EchoTrainLength": 104,
      "FlipAngle": 52.0,
      "HighBit": 15,
      "ImageOrientationPatient": [0.99690153207816, 0.07312110023007, 0.02899379315243, -0.0597506996365, 0.9436659569121, -0.3254603134917],
      "ImagePositionPatient": [-779.83080100014, -880.48897585991, 218.63477718546],
      "ImageType": [
        "ORIGINAL",
        "PRIMARY",
        "M",
        "MB",
        "ND",
        "MOSAIC"
],
      "ImagedNucleus": "1H",
      "ImagingFrequency": 123.258884,
      "InPlanePhaseEncodingDirection": "COL",
      "MRAcquisitionType": "2D",
      "MagneticFieldStrength": 3.0,
      "Manufacturer": "SIEMENS",
      "ManufacturerModelName": "Prisma_fit",
      "Modality": "MR",
      "NumberOfAverages": 1.0,
      "NumberOfPhaseEncodingSteps": 104,
      "PercentPhaseFieldOfView": 100.0,
      "PercentSampling": 100.0,
      "PerformedProcedureStepStartTime": "170220.101000",
      "PhotometricInterpretation": "MONOCHROME2",
      "PixelBandwidth": 2290.0,
      "PixelRepresentation": 0,
      "PixelSpacing": [2.0, 2.0],
      "ProtocolName": "func_task-mario_run-02",
      "RepetitionTime": 1490.0,
      "Rows": 832,
      "SAR": 0.0511240482522,
      "SamplesPerPixel": 1,
      "ScanOptions": "FS",
      "ScanningSequence": "EP",
      "SequenceName": "epfid2d1_104",
      "SequenceVariant": [
        "SK",
        "SS"
],
      "SeriesDescription": "func_task-mario_run-02",
      "SeriesNumber": 19,
      "SeriesTime": "175111.449000",
      "SliceLocation": -37.621848139662,
      "SliceThickness": 2.0,
      "SmallestImagePixelValue": 0,
      "SoftwareVersions": "syngo MR E11",
      "SpacingBetweenSlices": 2.0000000455499,
      "SpecificCharacterSet": "ISO_IR 100",
      "StudyID": "1",
      "StudyTime": "170219.935000",
      "TransmitCoilName": "Body",
      "VariableFlipAngleFlag": "N",
      "WindowCenterWidthExplanation": "Algo1",
      "dBdt": 0.0},
    "slices": {}
  },
  "time": {
    "samples": {
      "AcquisitionNumber": [1, 2, 3, 4, 5, 6, 7, 8, 9, 10, 11, 12, 13, 14, 15, 16, 17, 18, 19, 20, 21, 22, 23, 24, 25, 26, 27, 28, 29, 30, 31, 32, 33, 34, 35, 36, 37, 38, 39, 40, 41, 42, 43, 44, 45, 46, 47, 48, 49, 50, 51, 52, 53, 54, 55, 56, 57, 58, 59, 60, 61, 62, 63, 64, 65, 66, 67, 68, 69, 70, 71, 72, 73, 74, 75, 76, 77, 78, 79, 80, 81, 82, 83, 84, 85, 86, 87, 88, 89, 90, 91, 92, 93, 94, 95, 96, 97, 98, 99, 100, 101, 102, 103, 104, 105, 106, 107, 108, 109, 110, 111, 112, 113, 114, 115, 116, 117, 118, 119, 120, 121, 122, 123, 124, 125, 126, 127, 128, 129, 130, 131, 132, 133, 134, 135, 136, 137, 138, 139, 140, 141, 142, 143, 144, 145, 146, 147, 148, 149, 150, 151, 152, 153, 154, 155, 156, 157, 158, 159, 160, 161, 162, 163, 164, 165, 166, 167, 168, 169, 170, 171, 172, 173, 174, 175, 176, 177, 178, 179, 180, 181, 182, 183, 184, 185, 186, 187, 188, 189, 190, 191, 192, 193, 194, 195, 196, 197, 198, 199, 200, 201, 202, 203, 204, 205, 206, 207, 208, 209, 210, 211, 212, 213, 214, 215, 216, 217, 218, 219, 220, 221, 222, 223, 224, 225, 226, 227, 228, 229, 230, 231, 232, 233, 234, 235, 236, 237, 238, 239, 240, 241, 242, 243, 244, 245, 246, 247, 248, 249, 250, 251, 252, 253, 254, 255, 256, 257, 258, 259, 260, 261, 262, 263, 264, 265, 266, 267, 268, 269, 270, 271, 272, 273, 274, 275, 276, 277, 278, 279, 280, 281, 282, 283, 284, 285, 286, 287, 288, 289, 290, 291, 292, 293, 294, 295, 296, 297, 298, 299, 300, 301, 302, 303, 304, 305, 306, 307, 308, 309, 310, 311, 312, 313, 314, 315, 316, 317, 318, 319, 320, 321, 322, 323, 324, 325, 326, 327, 328, 329, 330, 331, 332, 333, 334, 335, 336, 337, 338, 339, 340, 341, 342, 343, 344, 345, 346, 347, 348, 349, 350, 351, 352, 353, 354, 355, 356, 357, 358, 359, 360, 361, 362, 363, 364, 365, 366, 367, 368, 369, 370, 371, 372, 373, 374, 375, 376, 377, 378, 379, 380, 381, 382, 383, 384, 385, 386, 387, 388, 389, 390, 391, 392, 393, 394, 395, 396, 397, 398, 399, 400, 401, 402, 403, 404, 405, 406, 407, 408, 409, 410, 411, 412, 413, 414, 415, 416, 417, 418, 419, 420, 421, 422, 423, 424, 425, 426, 427, 428, 429, 430, 431, 432, 433, 434, 435, 436, 437, 438, 439, 440, 441, 442, 443, 444, 445, 446, 447, 448, 449, 450, 451, 452],
      "AcquisitionTime": ["174949.727500", "174951.217500", "174952.707500", "174954.197500", "174955.687500", "174957.177500", "174958.667500", "175000.157500", "175001.647500", "175003.137500", "175004.627500", "175006.117500", "175007.607500", "175009.097500", "175010.587500", "175012.077500", "175013.567500", "175015.057500", "175016.547500", "175018.037500", "175019.527500", "175021.017500", "175022.507500", "175023.997500", "175025.487500", "175026.977500", "175028.467500", "175029.957500", "175031.447500", "175032.937500", "175034.427500", "175035.917500", "175037.407500", "175038.897500", "175040.387500", "175041.877500", "175043.367500", "175044.857500", "175046.347500", "175047.837500", "175049.327500", "175050.817500", "175052.307500", "175053.797500", "175055.287500", "175056.777500", "175058.267500", "175059.757500", "175101.247500", "175102.737500", "175104.227500", "175105.717500", "175107.207500", "175108.697500", "175110.187500", "175111.677500", "175113.167500", "175114.657500", "175116.147500", "175117.637500", "175119.127500", "175120.617500", "175122.107500", "175123.597500", "175125.087500", "175126.577500", "175128.067500", "175129.557500", "175131.047500", "175132.537500", "175134.027500", "175135.517500", "175137.007500", "175138.497500", "175139.987500", "175141.477500", "175142.967500", "175144.457500", "175145.947500", "175147.437500", "175148.927500", "175150.417500", "175151.907500", "175153.397500", "175154.887500", "175156.377500", "175157.867500", "175159.357500", "175200.847500", "175202.337500", "175203.827500", "175205.317500", "175206.807500", "175208.297500", "175209.787500", "175211.277500", "175212.767500", "175214.257500", "175215.747500", "175217.237500", "175218.727500", "175220.217500", "175221.707500", "175223.197500", "175224.687500", "175226.177500", "175227.667500", "175229.157500", "175230.647500", "175232.137500", "175233.627500", "175235.117500", "175236.607500", "175238.097500", "175239.587500", "175241.077500", "175242.567500", "175244.057500", "175245.547500", "175247.037500", "175248.527500", "175250.017500", "175251.507500", "175252.997500", "175254.487500", "175255.977500", "175257.467500", "175258.957500", "175300.447500", "175301.937500", "175303.427500", "175304.917500", "175306.407500", "175307.897500", "175309.387500", "175310.877500", "175312.367500", "175313.857500", "175315.347500", "175316.837500", "175318.327500", "175319.817500", "175321.307500", "175322.797500", "175324.287500", "175325.777500", "175327.267500", "175328.757500", "175330.247500", "175331.737500", "175333.227500", "175334.717500", "175336.207500", "175337.697500", "175339.187500", "175340.677500", "175342.167500", "175343.657500", "175345.147500", "175346.637500", "175348.127500", "175349.617500", "175351.107500", "175352.597500", "175354.087500", "175355.577500", "175357.067500", "175358.557500", "175400.047500", "175401.537500", "175403.027500", "175404.517500", "175406.007500", "175407.497500", "175408.987500", "175410.477500", "175411.967500", "175413.457500", "175414.947500", "175416.437500", "175417.927500", "175419.417500", "175420.907500", "175422.397500", "175423.887500", "175425.377500", "175426.867500", "175428.357500", "175429.847500", "175431.337500", "175432.827500", "175434.317500", "175435.807500", "175437.297500", "175438.787500", "175440.277500", "175441.767500", "175443.257500", "175444.747500", "175446.237500", "175447.727500", "175449.217500", "175450.707500", "175452.197500", "175453.687500", "175455.177500", "175456.667500", "175458.157500", "175459.647500", "175501.137500", "175502.627500", "175504.117500", "175505.607500", "175507.097500", "175508.587500", "175510.077500", "175511.567500", "175513.057500", "175514.547500", "175516.037500", "175517.527500", "175519.017500", "175520.507500", "175521.997500", "175523.487500", "175524.977500", "175526.467500", "175527.957500", "175529.447500", "175530.937500", "175532.427500", "175533.917500", "175535.407500", "175536.897500", "175538.387500", "175539.877500", "175541.367500", "175542.857500", "175544.347500", "175545.837500", "175547.327500", "175548.817500", "175550.307500", "175551.797500", "175553.287500", "175554.777500", "175556.267500", "175557.757500", "175559.247500", "175600.737500", "175602.227500", "175603.717500", "175605.207500", "175606.697500", "175608.187500", "175609.677500", "175611.167500", "175612.657500", "175614.147500", "175615.637500", "175617.127500", "175618.617500", "175620.107500", "175621.597500", "175623.087500", "175624.577500", "175626.067500", "175627.557500", "175629.047500", "175630.537500", "175632.027500", "175633.517500", "175635.007500", "175636.497500", "175637.987500", "175639.477500", "175640.967500", "175642.457500", "175643.947500", "175645.437500", "175646.927500", "175648.417500", "175649.907500", "175651.397500", "175652.887500", "175654.377500", "175655.867500", "175657.357500", "175658.847500", "175700.337500", "175701.827500", "175703.317500", "175704.807500", "175706.297500", "175707.787500", "175709.277500", "175710.767500", "175712.257500", "175713.747500", "175715.237500", "175716.727500", "175718.217500", "175719.707500", "175721.197500", "175722.687500", "175724.177500", "175725.667500", "175727.157500", "175728.647500", "175730.137500", "175731.627500", "175733.117500", "175734.607500", "175736.097500", "175737.587500", "175739.077500", "175740.567500", "175742.057500", "175743.547500", "175745.037500", "175746.527500", "175748.017500", "175749.507500", "175750.997500", "175752.487500", "175753.977500", "175755.467500", "175756.957500", "175758.447500", "175759.937500", "175801.427500", "175802.917500", "175804.407500", "175805.897500", "175807.387500", "175808.877500", "175810.367500", "175811.857500", "175813.347500", "175814.837500", "175816.327500", "175817.817500", "175819.307500", "175820.797500", "175822.287500", "175823.777500", "175825.267500", "175826.757500", "175828.247500", "175829.737500", "175831.227500", "175832.717500", "175834.207500", "175835.697500", "175837.187500", "175838.677500", "175840.167500", "175841.657500", "175843.147500", "175844.637500", "175846.127500", "175847.617500", "175849.107500", "175850.597500", "175852.087500", "175853.577500", "175855.067500", "175856.557500", "175858.047500", "175859.537500", "175901.027500", "175902.517500", "175904.007500", "175905.497500", "175906.987500", "175908.477500", "175909.967500", "175911.457500", "175912.947500", "175914.437500", "175915.927500", "175917.417500", "175918.907500", "175920.397500", "175921.887500", "175923.377500", "175924.867500", "175926.357500", "175927.847500", "175929.337500", "175930.827500", "175932.317500", "175933.807500", "175935.297500", "175936.787500", "175938.277500", "175939.767500", "175941.257500", "175942.747500", "175944.237500", "175945.727500", "175947.217500", "175948.707500", "175950.197500", "175951.687500", "175953.177500", "175954.667500", "175956.157500", "175957.647500", "175959.137500", "180000.627500", "180002.117500", "180003.607500", "180005.097500", "180006.587500", "180008.077500", "180009.567500", "180011.057500", "180012.547500", "180014.037500", "180015.527500", "180017.017500", "180018.507500", "180019.997500", "180021.487500", "180022.977500", "180024.467500", "180025.957500", "180027.447500", "180028.937500", "180030.427500", "180031.917500", "180033.407500", "180034.897500", "180036.387500", "180037.877500", "180039.367500", "180040.857500", "180042.347500", "180043.837500", "180045.327500", "180046.817500", "180048.307500", "180049.797500", "180051.287500", "180052.777500", "180054.267500", "180055.757500", "180057.247500", "180058.737500", "180100.227500", "180101.717500"],
      "ContentTime": ["175111.453000", "175111.456000", "175111.460000", "175111.463000", "175111.466000", "175111.470000", "175111.473000", "175111.476000", "175111.480000", "175111.483000", "175111.486000", "175111.489000", "175111.493000", "175111.496000", "175111.499000", "175111.503000", "175111.506000", "175111.509000", "175111.512000", "175111.516000", "175111.519000", "175111.522000", "175111.526000", "175111.529000", "175111.532000", "175111.546000", "175111.549000", "175131.421000", "175131.425000", "175131.428000", "175131.436000", "175131.439000", "175131.443000", "175131.446000", "175131.449000", "175131.452000", "175131.456000", "175131.459000", "175131.462000", "175131.465000", "175131.469000", "175131.472000", "175131.475000", "175131.479000", "175131.482000", "175131.485000", "175131.488000", "175131.492000", "175151.421000", "175151.425000", "175151.428000", "175151.431000", "175151.435000", "175151.438000", "175151.442000", "175151.445000", "175151.448000", "175151.451000", "175151.455000", "175151.461000", "175151.465000", "175151.468000", "175151.471000", "175151.475000", "175151.478000", "175151.481000", "175151.484000", "175151.488000", "175211.421000", "175211.425000", "175211.428000", "175211.431000", "175211.435000", "175211.438000", "175211.441000", "175211.445000", "175211.448000", "175211.451000", "175211.455000", "175211.458000", "175211.461000", "175211.464000", "175211.468000", "175211.471000", "175211.474000", "175211.477000", "175211.481000", "175211.484000", "175251.421000", "175251.425000", "175251.428000", "175251.432000", "175251.435000", "175251.438000", "175251.442000", "175251.445000", "175251.449000", "175251.452000", "175251.455000", "175251.459000", "175251.474000", "175251.477000", "175251.481000", "175251.484000", "175251.487000", "175251.490000", "175251.494000", "175251.497000", "175251.500000", "175251.504000", "175251.507000", "175251.510000", "175251.513000", "175251.517000", "175251.520000", "175251.523000", "175251.527000", "175251.530000", "175251.533000", "175251.537000", "175251.540000", "175331.420000", "175331.424000", "175331.427000", "175331.430000", "175331.434000", "175331.437000", "175331.440000", "175331.444000", "175331.447000", "175331.450000", "175331.453000", "175331.457000", "175331.460000", "175331.463000", "175331.467000", "175331.470000", "175331.473000", "175331.477000", "175331.480000", "175331.483000", "175331.487000", "175331.490000", "175331.493000", "175331.496000", "175331.500000", "175331.503000", "175331.506000", "175411.421000", "175411.425000", "175411.440000", "175411.443000", "175411.446000", "175411.450000", "175411.453000", "175411.456000", "175411.460000", "175411.463000", "175411.466000", "175411.470000", "175411.473000", "175411.476000", "175411.480000", "175411.483000", "175411.486000", "175411.489000", "175411.493000", "175411.496000", "175411.499000", "175411.503000", "175411.506000", "175411.509000", "175411.512000", "175411.516000", "175411.519000", "175451.421000", "175451.425000", "175451.428000", "175451.432000", "175451.436000", "175451.439000", "175451.443000", "175451.446000", "175451.449000", "175451.453000", "175451.456000", "175451.459000", "175451.463000", "175451.466000", "175451.469000", "175451.472000", "175451.476000", "175451.479000", "175451.482000", "175451.486000", "175451.489000", "175451.493000", "175451.496000", "175451.499000", "175451.502000", "175451.506000", "175531.420000", "175531.424000", "175531.427000", "175531.430000", "175531.434000", "175531.437000", "175531.440000", "175531.444000", "175531.447000", "175531.450000", "175531.454000", "175531.457000", "175531.460000", "175531.464000", "175531.467000", "175531.470000", "175531.474000", "175531.477000", "175531.480000", "175531.483000", "175531.487000", "175531.490000", "175531.493000", "175531.496000", "175531.500000", "175531.503000", "175531.506000", "175611.421000", "175611.425000", "175611.428000", "175611.432000", "175611.435000", "175611.438000", "175611.442000", "175611.445000", "175611.448000", "175611.451000", "175611.455000", "175611.459000", "175611.462000", "175611.465000", "175611.469000", "175611.472000", "175611.475000", "175611.479000", "175611.482000", "175611.485000", "175611.489000", "175611.492000", "175611.495000", "175611.499000", "175611.502000", "175611.505000", "175611.508000", "175651.421000", "175651.425000", "175651.428000", "175651.431000", "175651.435000", "175651.438000", "175651.441000", "175651.445000", "175651.448000", "175651.451000", "175651.455000", "175651.458000", "175651.461000", "175651.465000", "175651.468000", "175651.471000", "175651.475000", "175651.478000", "175651.481000", "175651.484000", "175651.488000", "175651.491000", "175651.494000", "175651.497000", "175651.501000", "175651.504000", "175651.507000", "175731.421000", "175731.425000", "175731.428000", "175731.432000", "175731.435000", "175731.438000", "175731.442000", "175731.445000", "175731.448000", "175731.451000", "175731.455000", "175731.458000", "175731.484000", "175731.487000", "175731.491000", "175731.494000", "175731.497000", "175731.501000", "175731.504000", "175731.507000", "175731.511000", "175731.514000", "175731.517000", "175731.521000", "175731.524000", "175731.527000", "175731.530000", "175751.420000", "175751.424000", "175751.427000", "175751.430000", "175751.434000", "175751.437000", "175751.440000", "175751.444000", "175751.447000", "175751.450000", "175751.454000", "175751.457000", "175751.460000", "175831.421000", "175831.425000", "175831.428000", "175831.432000", "175831.435000", "175831.438000", "175831.442000", "175831.445000", "175831.448000", "175831.451000", "175831.455000", "175831.458000", "175831.461000", "175831.465000", "175831.468000", "175831.471000", "175831.475000", "175831.478000", "175831.481000", "175831.485000", "175831.488000", "175831.491000", "175831.495000", "175831.498000", "175831.501000", "175831.504000", "175831.508000", "175911.421000", "175911.425000", "175911.428000", "175911.431000", "175911.435000", "175911.438000", "175911.441000", "175911.445000", "175911.448000", "175911.451000", "175911.455000", "175911.458000", "175911.461000", "175911.465000", "175911.468000", "175911.471000", "175911.474000", "175911.478000", "175911.481000", "175911.484000", "175911.488000", "175911.491000", "175911.494000", "175911.497000", "175911.501000", "175911.504000", "175911.507000", "175951.421000", "175951.425000", "175951.428000", "175951.432000", "175951.449000", "175951.453000", "175951.456000", "175951.459000", "175951.462000", "175951.466000", "175951.469000", "175951.473000", "175951.476000", "175951.479000", "175951.482000", "175951.486000", "175951.489000", "175951.492000", "175951.496000", "175951.499000", "175951.503000", "175951.506000", "175951.509000", "175951.512000", "175951.516000", "175951.519000", "175951.522000", "180031.420000", "180031.424000", "180031.427000", "180031.430000", "180031.434000", "180031.437000", "180031.440000", "180031.444000", "180031.447000", "180031.450000", "180031.454000", "180031.457000", "180031.460000", "180031.464000", "180031.467000", "180031.470000", "180031.474000", "180031.477000", "180031.480000", "180031.483000", "180031.487000", "180031.490000", "180031.493000", "180031.497000", "180031.500000", "180031.503000", "180031.507000", "180105.464000", "180105.469000", "180105.472000", "180105.475000", "180105.479000", "180105.482000", "180105.485000", "180105.489000", "180105.492000", "180105.495000", "180105.499000", "180105.502000", "180105.506000", "180105.509000", "180105.512000", "180105.515000", "180105.519000", "180105.522000", "180105.525000", "180105.529000", "180105.532000", "180105.535000"],
