{
  "AcquisitionMatrixPE": 104,
  "AcquisitionNumber": 1,
  "AcquisitionTime": "17:49:49.727500",
  "BandwidthPerPixelPhaseEncode": 17.17,
  "BaseResolution": 104,
  "BodyPartExamined": "BRAIN",
  "CoilCombinationMethod": "Sum of Squares",
  "ConsistencyInfo": "N4_VE11C_LATEST_20160120",
  "ConversionSoftware": "dcm2niix",
  "ConversionSoftwareVersion": "v1.0.20211006",
  "DerivedVendorReportedEchoSpacing": 0.000560011,
  "DeviceSerialNumber": "167006",
  "DwellTime": 2.1e-06,
  "EchoTime": 0.037,
  "EchoTime1": 0.037,
  "EchoTime2": 0.001,
  "EchoTrainLength": 104,
  "EffectiveEchoSpacing": 0.000560011,
  "FlipAngle": 52,
  "HeudiconvVersion": "0.11.3.post9+gc939bf8",
  "ImageComments": "Unaliased MB4/PE3/LB",
  "ImageOrientationPatientDICOM": [0.996902, 0.0731211, 0.0289938, -0.0597507, 0.943666, -0.32546],
  "ImageOrientationText": "Tra>Cor(-18.9)>Sag(2.9)",
  "ImageType": [
    "ORIGINAL",
    "PRIMARY",
    "P",
    "MB",
    "ND",
    "MOSAIC",
    "PHASE"
],
  "ImagingFrequency": 123.259,
  "InPlanePhaseEncodingDirectionDICOM": "COL",
  "InstitutionAddress": "Chemin Queen-Mary 4565,Montreal,District,CA,H3W 1W5",
  "InstitutionName": "IUGM",
  "InstitutionalDepartmentName": "Department",
  "MRAcquisitionType": "2D",
  "MagneticFieldStrength": 3,
  "Manufacturer": "Siemens",
  "ManufacturersModelName": "Prisma_fit",
  "MatrixCoilMode": "SENSE",
  "Modality": "MR",
  "MultibandAccelerationFactor": 4,
  "PartialFourier": 1,
  "PatientPosition": "HFS",
  "PercentPhaseFOV": 100,
  "PercentSampling": 100,
  "PhaseEncodingDirection": "j",
  "PhaseEncodingSteps": 104,
  "PhaseResolution": 1,
  "PixelBandwidth": 2290,
  "ProcedureStepDescription": "memory^things",
  "ProtocolName": "func_task-mario_run-02",
  "PulseSequenceDetails": "%CustomerSeq%\\cmrr_mbep2d_bold",
  "ReceiveCoilActiveElements": "HC1-7;NC1,2",
  "ReceiveCoilName": "HeadNeck_64",
  "ReconMatrixPE": 104,
  "RepetitionTime": 1.49,
  "SAR": 0.051124,
  "ScanOptions": "FS",
  "ScanningSequence": "EP",
  "SequenceName": "epfid2d1_104",
  "SequenceVariant": "SK\\SS",
  "SeriesDescription": "func_task-mario_run-02",
  "SeriesNumber": 20,
  "ShimSetting": [633, -7180, -8829, 646, 87, 61, -19, -32],
  "SliceThickness": 2,
  "SliceTiming": [0, 0.7825, 0.0975, 0.88, 0.195, 0.98, 0.2925, 1.0775, 0.39, 1.175, 0.49, 1.2725, 0.5875, 1.37, 0.685, 0, 0.7825, 0.0975, 0.88, 0.195, 0.98, 0.2925, 1.0775, 0.39, 1.175, 0.49, 1.2725, 0.5875, 1.37, 0.685, 0, 0.7825, 0.0975, 0.88, 0.195, 0.98, 0.2925, 1.0775, 0.39, 1.175, 0.49, 1.2725, 0.5875, 1.37, 0.685, 0, 0.7825, 0.0975, 0.88, 0.195, 0.98, 0.2925, 1.0775, 0.39, 1.175, 0.49, 1.2725, 0.5875, 1.37, 0.685],
  "SoftwareVersions": "syngo MR E11",
  "SpacingBetweenSlices": 2,
  "StationName": "MRC35049",
  "TaskName": "mario",
  "TotalReadoutTime": 0.0576811,
  "TxRefAmp": 280.006,
  "WipMemBlock": "fd29db7f-c900-4223-84bb-327688a32c48||Sequence: R016 ve11c/master r/e634e98; Dec 19 2017 11:00:25 by eja",
  "dcmmeta_affine": [
    [-1.9938030242919922, -0.11950139701366425, 0.1023169457912445, 109.89363861083984],
    [-0.1462422013282776, 1.8873319625854492, -0.6454389691352844, -54.12718963623047],
    [0.05798758566379547, 0.6509206295013428, 1.890222191810608, -64.2376708984375],
    [0.0, 0.0, 0.0, 1.0]
],
  "dcmmeta_reorient_transform": [
    [0.0, -1.0, 0.0, 103.0],
    [1.0, 0.0, 0.0, 0.0],
    [0.0, 0.0, 1.0, 0.0],
    [0.0, 0.0, 0.0, 1.0]
],
  "dcmmeta_shape": [104, 104, 60, 452],
  "dcmmeta_slice_dim": 2,
  "dcmmeta_version": 0.6,
  "global": {
    "const": {
      "AcquisitionMatrix": [104, 0, 0, 104],
      "AngioFlag": "N",
      "BitsAllocated": 16,
      "BitsStored": 16,
      "BodyPartExamined": "BRAIN",
      "Columns": 832,
      "EchoNumbers": 1,
      "EchoTime": 37.0,
      "EchoTrainLength": 104,
      "FlipAngle": 52.0,
      "HighBit": 15,
      "ImageOrientationPatient": [0.99690153207816, 0.07312110023007, 0.02899379315243, -0.0597506996365, 0.9436659569121, -0.3254603134917],
      "ImagePositionPatient": [-779.83080100014, -880.48897585991, 218.63477718546],
      "ImageType": [
        "ORIGINAL",
        "PRIMARY",
        "P",
        "MB",
        "ND",
        "MOSAIC"
],
      "ImagedNucleus": "1H",
      "ImagingFrequency": 123.258884,
      "InPlanePhaseEncodingDirection": "COL",
      "LargestImagePixelValue": 4095,
      "MRAcquisitionType": "2D",
      "MagneticFieldStrength": 3.0,
      "Manufacturer": "SIEMENS",
      "ManufacturerModelName": "Prisma_fit",
      "Modality": "MR",
      "NumberOfAverages": 1.0,
      "NumberOfPhaseEncodingSteps": 104,
      "PercentPhaseFieldOfView": 100.0,
      "PercentSampling": 100.0,
      "PerformedProcedureStepStartTime": "170220.101000",
      "PhotometricInterpretation": "MONOCHROME2",
      "PixelBandwidth": 2290.0,
      "PixelRepresentation": 0,
      "PixelSpacing": [2.0, 2.0],
      "ProtocolName": "func_task-mario_run-02",
      "RepetitionTime": 1490.0,
      "RescaleIntercept": -4096.0,
      "RescaleSlope": 2.0,
      "RescaleType": "US",
      "Rows": 832,
      "SAR": 0.0511240482522,
      "SamplesPerPixel": 1,
      "ScanOptions": "FS",
      "ScanningSequence": "EP",
      "SequenceName": "epfid2d1_104",
      "SequenceVariant": [
        "SK",
        "SS"
],
      "SeriesDescription": "func_task-mario_run-02",
      "SeriesNumber": 20,
      "SeriesTime": "175111.584000",
      "SliceLocation": -37.621848139662,
      "SliceThickness": 2.0,
      "SmallestImagePixelValue": 0,
      "SoftwareVersions": "syngo MR E11",
      "SpacingBetweenSlices": 2.0000000455499,
      "SpecificCharacterSet": "ISO_IR 100",
      "StudyID": "1",
      "StudyTime": "170219.935000",
      "TransmitCoilName": "Body",
      "VariableFlipAngleFlag": "N",
      "WindowCenterWidthExplanation": "Algo1",
      "dBdt": 0.0},
    "slices": {}
  },
  "time": {
    "samples": {
      "AcquisitionNumber": [1, 2, 3, 4, 5, 6, 7, 8, 9, 10, 11, 12, 13, 14, 15, 16, 17, 18, 19, 20, 21, 22, 23, 24, 25, 26, 27, 28, 29, 30, 31, 32, 33, 34, 35, 36, 37, 38, 39, 40, 41, 42, 43, 44, 45, 46, 47, 48, 49, 50, 51, 52, 53, 54, 55, 56, 57, 58, 59, 60, 61, 62, 63, 64, 65, 66, 67, 68, 69, 70, 71, 72, 73, 74, 75, 76, 77, 78, 79, 80, 81, 82, 83, 84, 85, 86, 87, 88, 89, 90, 91, 92, 93, 94, 95, 96, 97, 98, 99, 100, 101, 102, 103, 104, 105, 106, 107, 108, 109, 110, 111, 112, 113, 114, 115, 116, 117, 118, 119, 120, 121, 122, 123, 124, 125, 126, 127, 128, 129, 130, 131, 132, 133, 134, 135, 136, 137, 138, 139, 140, 141, 142, 143, 144, 145, 146, 147, 148, 149, 150, 151, 152, 153, 154, 155, 156, 157, 158, 159, 160, 161, 162, 163, 164, 165, 166, 167, 168, 169, 170, 171, 172, 173, 174, 175, 176, 177, 178, 179, 180, 181, 182, 183, 184, 185, 186, 187, 188, 189, 190, 191, 192, 193, 194, 195, 196, 197, 198, 199, 200, 201, 202, 203, 204, 205, 206, 207, 208, 209, 210, 211, 212, 213, 214, 215, 216, 217, 218, 219, 220, 221, 222, 223, 224, 225, 226, 227, 228, 229, 230, 231, 232, 233, 234, 235, 236, 237, 238, 239, 240, 241, 242, 243, 244, 245, 246, 247, 248, 249, 250, 251, 252, 253, 254, 255, 256, 257, 258, 259, 260, 261, 262, 263, 264, 265, 266, 267, 268, 269, 270, 271, 272, 273, 274, 275, 276, 277, 278, 279, 280, 281, 282, 283, 284, 285, 286, 287, 288, 289, 290, 291, 292, 293, 294, 295, 296, 297, 298, 299, 300, 301, 302, 303, 304, 305, 306, 307, 308, 309, 310, 311, 312, 313, 314, 315, 316, 317, 318, 319, 320, 321, 322, 323, 324, 325, 326, 327, 328, 329, 330, 331, 332, 333, 334, 335, 336, 337, 338, 339, 340, 341, 342, 343, 344, 345, 346, 347, 348, 349, 350, 351, 352, 353, 354, 355, 356, 357, 358, 359, 360, 361, 362, 363, 364, 365, 366, 367, 368, 369, 370, 371, 372, 373, 374, 375, 376, 377, 378, 379, 380, 381, 382, 383, 384, 385, 386, 387, 388, 389, 390, 391, 392, 393, 394, 395, 396, 397, 398, 399, 400, 401, 402, 403, 404, 405, 406, 407, 408, 409, 410, 411, 412, 413, 414, 415, 416, 417, 418, 419, 420, 421, 422, 423, 424, 425, 426, 427, 428, 429, 430, 431, 432, 433, 434, 435, 436, 437, 438, 439, 440, 441, 442, 443, 444, 445, 446, 447, 448, 449, 450, 451, 452],
      "AcquisitionTime": ["174949.727500", "174951.217500", "174952.707500", "174954.197500", "174955.687500", "174957.177500", "174958.667500", "175000.157500", "175001.647500", "175003.137500", "175004.627500", "175006.117500", "175007.607500", "175009.097500", "175010.587500", "175012.077500", "175013.567500", "175015.057500", "175016.547500", "175018.037500", "175019.527500", "175021.017500", "175022.507500", "175023.997500", "175025.487500", "175026.977500", "175028.467500", "175029.957500", "175031.447500", "175032.937500", "175034.427500", "175035.917500", "175037.407500", "175038.897500", "175040.387500", "175041.877500", "175043.367500", "175044.857500", "175046.347500", "175047.837500", "175049.327500", "175050.817500", "175052.307500", "175053.797500", "175055.287500", "175056.777500", "175058.267500", "175059.757500", "175101.247500", "175102.737500", "175104.227500", "175105.717500", "175107.207500", "175108.697500", "175110.187500", "175111.677500", "175113.167500", "175114.657500", "175116.147500", "175117.637500", "175119.127500", "175120.617500", "175122.107500", "175123.597500", "175125.087500", "175126.577500", "175128.067500", "175129.557500", "175131.047500", "175132.537500", "175134.027500", "175135.517500", "175137.007500", "175138.497500", "175139.987500", "175141.477500", "175142.967500", "175144.457500", "175145.947500", "175147.437500", "175148.927500", "175150.417500", "175151.907500", "175153.397500", "175154.887500", "175156.377500", "175157.867500", "175159.357500", "175200.847500", "175202.337500", "175203.827500", "175205.317500", "175206.807500", "175208.297500", "175209.787500", "175211.277500", "175212.767500", "175214.257500", "175215.747500", "175217.237500", "175218.727500", "175220.217500", "175221.707500", "175223.197500", "175224.687500", "175226.177500", "175227.667500", "175229.157500", "175230.647500", "175232.137500", "175233.627500", "175235.117500", "175236.607500", "175238.097500", "175239.587500", "175241.077500", "175242.567500", "175244.057500", "175245.547500", "175247.037500", "175248.527500", "175250.017500", "175251.507500", "175252.997500", "175254.487500", "175255.977500", "175257.467500", "175258.957500", "175300.447500", "175301.937500", "175303.427500", "175304.917500", "175306.407500", "175307.897500", "175309.387500", "175310.877500", "175312.367500", "175313.857500", "175315.347500", "175316.837500", "175318.327500", "175319.817500", "175321.307500", "175322.797500", "175324.287500", "175325.777500", "175327.267500", "175328.757500", "175330.247500", "175331.737500", "175333.227500", "175334.717500", "175336.207500", "175337.697500", "175339.187500", "175340.677500", "175342.167500", "175343.657500", "175345.147500", "175346.637500", "175348.127500", "175349.617500", "175351.107500", "175352.597500", "175354.087500", "175355.577500", "175357.067500", "175358.557500", "175400.047500", "175401.537500", "175403.027500", "175404.517500", "175406.007500", "175407.497500", "175408.987500", "175410.477500", "175411.967500", "175413.457500", "175414.947500", "175416.437500", "175417.927500", "175419.417500", "175420.907500", "175422.397500", "175423.887500", "175425.377500", "175426.867500", "175428.357500", "175429.847500", "175431.337500", "175432.827500", "175434.317500", "175435.807500", "175437.297500", "175438.787500", "175440.277500", "175441.767500", "175443.257500", "175444.747500", "175446.237500", "175447.727500", "175449.217500", "175450.707500", "175452.197500", "175453.687500", "175455.177500", "175456.667500", "175458.157500", "175459.647500", "175501.137500", "175502.627500", "175504.117500", "175505.607500", "175507.097500", "175508.587500", "175510.077500", "175511.567500", "175513.057500", "175514.547500", "175516.037500", "175517.527500", "175519.017500", "175520.507500", "175521.997500", "175523.487500", "175524.977500", "175526.467500", "175527.957500", "175529.447500", "175530.937500", "175532.427500", "175533.917500", "175535.407500", "175536.897500", "175538.387500", "175539.877500", "175541.367500", "175542.857500", "175544.347500", "175545.837500", "175547.327500", "175548.817500", "175550.307500", "175551.797500", "175553.287500", "175554.777500", "175556.267500", "175557.757500", "175559.247500", "175600.737500", "175602.227500", "175603.717500", "175605.207500", "175606.697500", "175608.187500", "175609.677500", "175611.167500", "175612.657500", "175614.147500", "175615.637500", "175617.127500", "175618.617500", "175620.107500", "175621.597500", "175623.087500", "175624.577500", "175626.067500", "175627.557500", "175629.047500", "175630.537500", "175632.027500", "175633.517500", "175635.007500", "175636.497500", "175637.987500", "175639.477500", "175640.967500", "175642.457500", "175643.947500", "175645.437500", "175646.927500", "175648.417500", "175649.907500", "175651.397500", "175652.887500", "175654.377500", "175655.867500", "175657.357500", "175658.847500", "175700.337500", "175701.827500", "175703.317500", "175704.807500", "175706.297500", "175707.787500", "175709.277500", "175710.767500", "175712.257500", "175713.747500", "175715.237500", "175716.727500", "175718.217500", "175719.707500", "175721.197500", "175722.687500", "175724.177500", "175725.667500", "175727.157500", "175728.647500", "175730.137500", "175731.627500", "175733.117500", "175734.607500", "175736.097500", "175737.587500", "175739.077500", "175740.567500", "175742.057500", "175743.547500", "175745.037500", "175746.527500", "175748.017500", "175749.507500", "175750.997500", "175752.487500", "175753.977500", "175755.467500", "175756.957500", "175758.447500", "175759.937500", "175801.427500", "175802.917500", "175804.407500", "175805.897500", "175807.387500", "175808.877500", "175810.367500", "175811.857500", "175813.347500", "175814.837500", "175816.327500", "175817.817500", "175819.307500", "175820.797500", "175822.287500", "175823.777500", "175825.267500", "175826.757500", "175828.247500", "175829.737500", "175831.227500", "175832.717500", "175834.207500", "175835.697500", "175837.187500", "175838.677500", "175840.167500", "175841.657500", "175843.147500", "175844.637500", "175846.127500", "175847.617500", "175849.107500", "175850.597500", "175852.087500", "175853.577500", "175855.067500", "175856.557500", "175858.047500", "175859.537500", "175901.027500", "175902.517500", "175904.007500", "175905.497500", "175906.987500", "175908.477500", "175909.967500", "175911.457500", "175912.947500", "175914.437500", "175915.927500", "175917.417500", "175918.907500", "175920.397500", "175921.887500", "175923.377500", "175924.867500", "175926.357500", "175927.847500", "175929.337500", "175930.827500", "175932.317500", "175933.807500", "175935.297500", "175936.787500", "175938.277500", "175939.767500", "175941.257500", "175942.747500", "175944.237500", "175945.727500", "175947.217500", "175948.707500", "175950.197500", "175951.687500", "175953.177500", "175954.667500", "175956.157500", "175957.647500", "175959.137500", "180000.627500", "180002.117500", "180003.607500", "180005.097500", "180006.587500", "180008.077500", "180009.567500", "180011.057500", "180012.547500", "180014.037500", "180015.527500", "180017.017500", "180018.507500", "180019.997500", "180021.487500", "180022.977500", "180024.467500", "180025.957500", "180027.447500", "180028.937500", "180030.427500", "180031.917500", "180033.407500", "180034.897500", "180036.387500", "180037.877500", "180039.367500", "180040.857500", "180042.347500", "180043.837500", "180045.327500", "180046.817500", "180048.307500", "180049.797500", "180051.287500", "180052.777500", "180054.267500", "180055.757500", "180057.247500", "180058.737500", "180100.227500", "180101.717500"],
      "ContentTime": ["175111.587000", "175111.589000", "175111.592000", "175111.595000", "175111.597000", "175111.600000", "175111.602000", "175111.605000", "175111.607000", "175111.610000", "175111.612000", "175111.615000", "175111.617000", "175111.620000", "175111.622000", "175111.625000", "175111.627000", "175111.630000", "175111.632000", "175111.635000", "175111.637000", "175111.640000", "175111.642000", "175111.645000", "175111.647000", "175111.650000", "175111.652000", "175131.539000", "175131.542000", "175131.544000", "175131.547000", "175131.549000", "175131.552000", "175131.554000", "175131.557000", "175131.559000", "175131.562000", "175131.564000", "175131.567000", "175131.569000", "175131.572000", "175131.574000", "175131.577000", "175131.579000", "175131.582000", "175131.584000", "175131.587000", "175131.589000", "175151.520000", "175151.523000", "175151.532000", "175151.535000", "175151.537000", "175151.540000", "175151.542000", "175151.545000", "175151.547000", "175151.550000", "175151.552000", "175151.555000", "175151.557000", "175151.560000", "175151.563000", "175151.565000", "175151.567000", "175151.570000", "175151.572000", "175151.575000", "175211.525000", "175211.528000", "175211.534000", "175211.536000", "175211.539000", "175211.541000", "175211.544000", "175211.546000", "175211.549000", "175211.551000", "175211.554000", "175211.556000", "175211.559000", "175211.561000", "175211.564000", "175211.567000", "175211.569000", "175211.572000", "175211.574000", "175211.577000", "175251.596000", "175251.599000", "175251.602000", "175251.604000", "175251.607000", "175251.609000", "175251.612000", "175251.614000", "175251.617000", "175251.619000", "175251.622000", "175251.624000", "175251.626000", "175251.629000", "175251.632000", "175251.634000", "175251.636000", "175251.639000", "175251.641000", "175251.644000", "175251.646000", "175251.649000", "175251.652000", "175251.654000", "175251.656000", "175251.659000", "175251.662000", "175251.664000", "175251.666000", "175251.669000", "175251.671000", "175251.674000", "175251.676000", "175331.552000", "175331.555000", "175331.557000", "175331.560000", "175331.562000", "175331.565000", "175331.568000", "175331.570000", "175331.573000", "175331.575000", "175331.578000", "175331.580000", "175331.583000", "175331.585000", "175331.588000", "175331.590000", "175331.593000", "175331.595000", "175331.598000", "175331.600000", "175331.603000", "175331.605000", "175331.608000", "175331.610000", "175331.613000", "175331.615000", "175331.618000", "175411.966000", "175411.969000", "175411.971000", "175411.974000", "175411.976000", "175411.979000", "175411.981000", "175411.984000", "175411.986000", "175411.989000", "175411.991000", "175411.994000", "175411.996000", "175412.000000", "175412.002000", "175412.005000", "175412.008000", "175412.010000", "175412.012000", "175412.015000", "175412.018000", "175412.020000", "175412.022000", "175412.025000", "175412.028000", "175412.030000", "175412.033000", "175451.557000", "175451.560000", "175451.563000", "175451.565000", "175451.568000", "175451.571000", "175451.574000", "175451.576000", "175451.589000", "175451.591000", "175451.594000", "175451.605000", "175451.608000", "175451.610000", "175451.613000", "175451.615000", "175451.618000", "175451.620000", "175451.623000", "175451.625000", "175451.628000", "175451.630000", "175451.633000", "175451.635000", "175451.638000", "175451.640000", "175531.570000", "175531.573000", "175531.575000", "175531.578000", "175531.580000", "175531.583000", "175531.585000", "175531.588000", "175531.590000", "175531.593000", "175531.595000", "175531.598000", "175531.600000", "175531.603000", "175531.606000", "175531.608000", "175531.611000", "175531.613000", "175531.616000", "175531.618000", "175531.621000", "175531.623000", "175531.626000", "175531.628000", "175531.631000", "175531.633000", "175531.636000", "175611.561000", "175611.564000", "175611.567000", "175611.569000", "175611.572000", "175611.581000", "175611.584000", "175611.586000", "175611.589000", "175611.591000", "175611.594000", "175611.596000", "175611.599000", "175611.601000", "175611.604000", "175611.606000", "175611.609000", "175611.611000", "175611.613000", "175611.616000", "175611.618000", "175611.621000", "175611.623000", "175611.626000", "175611.628000", "175611.631000", "175611.633000", "175651.552000", "175651.555000", "175651.557000", "175651.560000", "175651.562000", "175651.565000", "175651.567000", "175651.570000", "175651.572000", "175651.575000", "175651.577000", "175651.580000", "175651.582000", "175651.585000", "175651.587000", "175651.590000", "175651.592000", "175651.595000", "175651.597000", "175651.600000", "175651.602000", "175651.605000", "175651.607000", "175651.610000", "175651.612000", "175651.615000", "175651.617000", "175731.571000", "175731.574000", "175731.577000", "175731.579000", "175731.582000", "175731.584000", "175731.587000", "175731.589000", "175731.592000", "175731.594000", "175731.597000", "175731.599000", "175731.602000", "175731.604000", "175731.607000", "175731.610000", "175731.612000", "175731.614000", "175731.617000", "175731.619000", "175731.622000", "175731.624000", "175731.627000", "175731.629000", "175731.632000", "175731.634000", "175731.637000", "175751.501000", "175751.504000", "175751.506000", "175751.509000", "175751.511000", "175751.514000", "175751.516000", "175751.519000", "175751.521000", "175751.524000", "175751.526000", "175751.538000", "175751.540000", "175831.549000", "175831.551000", "175831.554000", "175831.557000", "175831.559000", "175831.562000", "175831.564000", "175831.567000", "175831.570000", "175831.572000", "175831.575000", "175831.577000", "175831.580000", "175831.582000", "175831.585000", "175831.587000", "175831.590000", "175831.592000", "175831.595000", "175831.597000", "175831.600000", "175831.602000", "175831.605000", "175831.607000", "175831.610000", "175831.612000", "175831.615000", "175911.557000", "175911.560000", "175911.562000", "175911.565000", "175911.567000", "175911.570000", "175911.574000", "175911.576000", "175911.579000", "175911.582000", "175911.584000", "175911.587000", "175911.589000", "175911.592000", "175911.594000", "175911.597000", "175911.599000", "175911.602000", "175911.604000", "175911.607000", "175911.609000", "175911.612000", "175911.614000", "175911.617000", "175911.619000", "175911.622000", "175911.624000", "175951.571000", "175951.574000", "175951.576000", "175951.579000", "175951.581000", "175951.584000", "175951.586000", "175951.589000", "175951.591000", "175951.594000", "175951.596000", "175951.599000", "175951.601000", "175951.604000", "175951.606000", "175951.609000", "175951.611000", "175951.614000", "175951.616000", "175951.620000", "175951.622000", "175951.625000", "175951.627000", "175951.630000", "175951.633000", "175951.635000", "175951.637000", "180031.556000", "180031.559000", "180031.561000", "180031.564000", "180031.566000", "180031.569000", "180031.571000", "180031.574000", "180031.576000", "180031.579000", "180031.581000", "180031.584000", "180031.586000", "180031.589000", "180031.596000", "180031.599000", "180031.601000", "180031.604000", "180031.606000", "180031.609000", "180031.611000", "180031.614000", "180031.616000", "180031.619000", "180031.621000", "180031.624000", "180031.626000", "180105.576000", "180105.578000", "180105.581000", "180105.583000", "180105.586000", "180105.588000", "180105.591000", "180105.593000", "180105.596000", "180105.598000", "180105.601000", "180105.603000", "180105.606000", "180105.608000", "180105.611000", "180105.613000", "180105.620000", "180105.623000", "180105.625000", "180105.628000", "180105.630000", "180105.633000"],
