{
  "AcquisitionMatrixPE": 104,
  "AcquisitionNumber": 1,
  "AcquisitionTime": "15:48:23.685000",
  "BandwidthPerPixelPhaseEncode": 17.17,
  "BaseResolution": 104,
  "BodyPartExamined": "BRAIN",
  "CoilString": "HC1-7;NC1_2",
  "ConsistencyInfo": "N4_VE11C_LATEST_20160120",
  "ConversionSoftware": "dcm2niix",
  "ConversionSoftwareVersion": "v1.0.20190902",
  "DerivedVendorReportedEchoSpacing": 0.000560011,
  "DeviceSerialNumber": "167006",
  "DwellTime": 2.1e-06,
  "EchoTime": 0.037,
  "EchoTrainLength": 104,
  "EffectiveEchoSpacing": 0.000560011,
  "FlipAngle": 52,
  "HeudiconvVersion": "0.10.0",
  "ImageComments": "Unaliased_MB4_PE3_LB",
  "ImageOrientationPatientDICOM": [0.999405, -0.033763, 0.00707487, 0.0342015, 0.943045, -0.330901],
  "ImageType": [
    "ORIGINAL",
    "PRIMARY",
    "P",
    "MB",
    "ND",
    "MOSAIC"
],
  "ImagingFrequency": 123.259,
  "InPlanePhaseEncodingDirectionDICOM": "COL",
  "InstitutionAddress": "Chemin_Queen-Mary_4565_Montreal_District_CA_H3W_1W5",
  "InstitutionName": "IUGM",
  "InstitutionalDepartmentName": "Department",
  "MRAcquisitionType": "2D",
  "MagneticFieldStrength": 3,
  "Manufacturer": "Siemens",
  "ManufacturersModelName": "Prisma_fit",
  "Modality": "MR",
  "MultibandAccelerationFactor": 4,
  "PartialFourier": 1,
  "PatientPosition": "HFS",
  "PercentPhaseFOV": 100,
  "PhaseEncodingDirection": "j",
  "PhaseEncodingSteps": 104,
  "PhaseResolution": 1,
  "PixelBandwidth": 2290,
  "ProcedureStepDescription": "games_mario",
  "ProtocolName": "func_task-mario_run-01",
  "PulseSequenceDetails": "%CustomerSeq%_cmrr_mbep2d_bold",
  "ReceiveCoilActiveElements": "HC1-7;NC1,2",
  "ReceiveCoilName": "HeadNeck_64",
  "ReconMatrixPE": 104,
  "RepetitionTime": 1.49,
  "SAR": 0.0490341,
  "ScanOptions": "FS",
  "ScanningSequence": "EP",
  "SequenceName": "epfid2d1_104",
  "SequenceVariant": "SK_SS",
  "SeriesDescription": "func_task-mario_run-01",
  "SeriesNumber": 17,
  "ShimSetting": [624, -7253, -8829, 584, 3, -214, -85, -13],
  "SliceThickness": 2,
  "SliceTiming": [0, 0.785, 0.0975, 0.8825, 0.195, 0.98, 0.295, 1.0775, 0.3925, 1.175, 0.49, 1.2725, 0.5875, 1.3725, 0.685, 0, 0.785, 0.0975, 0.8825, 0.195, 0.98, 0.295, 1.0775, 0.3925, 1.175, 0.49, 1.2725, 0.5875, 1.3725, 0.685, 0, 0.785, 0.0975, 0.8825, 0.195, 0.98, 0.295, 1.0775, 0.3925, 1.175, 0.49, 1.2725, 0.5875, 1.3725, 0.685, 0, 0.785, 0.0975, 0.8825, 0.195, 0.98, 0.295, 1.0775, 0.3925, 1.175, 0.49, 1.2725, 0.5875, 1.3725, 0.685],
  "SoftwareVersions": "syngo_MR_E11",
  "SpacingBetweenSlices": 2,
  "StationName": "MRC35049",
  "TaskName": "mario",
  "TotalReadoutTime": 0.0576811,
  "TxRefAmp": 257.061,
  "WipMemBlock": "a5bc3865-60f8-45d8-ae1b-6099f13de636||Sequence: R016 ve11c/master r/e634e98; Dec 19 2017 11:00:25 by eja",
  "dcmmeta_affine": [
    [-1.9988096952438354, 0.06840299814939499, -0.009000597521662712, 103.67927551269531],
    [0.06752603501081467, 1.886090874671936, -0.661892294883728, -69.2450180053711],
    [0.014149735681712627, 0.6618022322654724, 1.8872778415679932, -66.0318603515625],
    [0.0, 0.0, 0.0, 1.0]
],
  "dcmmeta_reorient_transform": [
    [0.0, -1.0, 0.0, 103.0],
    [1.0, 0.0, 0.0, 0.0],
    [0.0, 0.0, 1.0, 0.0],
    [0.0, 0.0, 0.0, 1.0]
],
  "dcmmeta_shape": [104, 104, 60, 497],
  "dcmmeta_slice_dim": 2,
  "dcmmeta_version": 0.6,
  "global": {
    "const": {
      "AcquisitionMatrix": [104, 0, 0, 104],
      "AngioFlag": "N",
      "BitsAllocated": 16,
      "BitsStored": 16,
      "BodyPartExamined": "BRAIN",
      "Columns": 832,
      "EchoNumbers": 1,
      "EchoTime": 37.0,
      "EchoTrainLength": 104,
      "FlipAngle": 52.0,
      "HighBit": 15,
      "ImageOrientationPatient": [0.99940482531017, -0.0337630181526, 0.00707486762977, 0.0342014978999, 0.94304544402894, -0.3309011151956],
      "ImagePositionPatient": [-863.19018722532, -786.97995045134, 237.8792790392],
      "ImageType": [
        "ORIGINAL",
        "PRIMARY",
        "P",
        "MB",
        "ND",
        "MOSAIC"
],
      "ImagedNucleus": "1H",
      "ImagingFrequency": 123.258893,
      "InPlanePhaseEncodingDirection": "COL",
      "LargestImagePixelValue": 4095,
      "MRAcquisitionType": "2D",
      "MagneticFieldStrength": 3.0,
      "Manufacturer": "SIEMENS",
      "ManufacturerModelName": "Prisma_fit",
      "Modality": "MR",
      "NumberOfAverages": 1.0,
      "NumberOfPhaseEncodingSteps": 104,
      "PercentPhaseFieldOfView": 100.0,
      "PercentSampling": 100.0,
      "PerformedProcedureStepStartTime": "150117.277000",
      "PhotometricInterpretation": "MONOCHROME2",
      "PixelBandwidth": 2290.0,
      "PixelRepresentation": 0,
      "PixelSpacing": [2.0, 2.0],
      "ProtocolName": "func_task-mario_run-01",
      "RepetitionTime": 1490.0,
      "RescaleIntercept": -4096.0,
      "RescaleSlope": 2.0,
      "RescaleType": "US",
      "Rows": 832,
      "SAR": 0.04903413738336,
      "SamplesPerPixel": 1,
      "ScanOptions": "FS",
      "ScanningSequence": "EP",
      "SequenceName": "epfid2d1_104",
      "SequenceVariant": [
        "SK",
        "SS"
],
      "SeriesDescription": "func_task-mario_run-01",
      "SeriesNumber": 17,
      "SeriesTime": "154949.450000",
      "SliceLocation": -39.860448013765,
      "SliceThickness": 2.0,
      "SmallestImagePixelValue": 0,
      "SoftwareVersions": "syngo MR E11",
      "SpacingBetweenSlices": 2.0000000668212,
      "SpecificCharacterSet": "ISO_IR 100",
      "StudyID": "1",
      "StudyTime": "150117.208000",
      "TransmitCoilName": "Body",
      "VariableFlipAngleFlag": "N",
      "WindowCenterWidthExplanation": "Algo1",
      "dBdt": 0.0},
    "slices": {}
  },
  "time": {
    "samples": {
      "AcquisitionNumber": [1, 2, 3, 4, 5, 6, 7, 8, 9, 10, 11, 12, 13, 14, 15, 16, 17, 18, 19, 20, 21, 22, 23, 24, 25, 26, 27, 28, 29, 30, 31, 32, 33, 34, 35, 36, 37, 38, 39, 40, 41, 42, 43, 44, 45, 46, 47, 48, 49, 50, 51, 52, 53, 54, 55, 56, 57, 58, 59, 60, 61, 62, 63, 64, 65, 66, 67, 68, 69, 70, 71, 72, 73, 74, 75, 76, 77, 78, 79, 80, 81, 82, 83, 84, 85, 86, 87, 88, 89, 90, 91, 92, 93, 94, 95, 96, 97, 98, 99, 100, 101, 102, 103, 104, 105, 106, 107, 108, 109, 110, 111, 112, 113, 114, 115, 116, 117, 118, 119, 120, 121, 122, 123, 124, 125, 126, 127, 128, 129, 130, 131, 132, 133, 134, 135, 136, 137, 138, 139, 140, 141, 142, 143, 144, 145, 146, 147, 148, 149, 150, 151, 152, 153, 154, 155, 156, 157, 158, 159, 160, 161, 162, 163, 164, 165, 166, 167, 168, 169, 170, 171, 172, 173, 174, 175, 176, 177, 178, 179, 180, 181, 182, 183, 184, 185, 186, 187, 188, 189, 190, 191, 192, 193, 194, 195, 196, 197, 198, 199, 200, 201, 202, 203, 204, 205, 206, 207, 208, 209, 210, 211, 212, 213, 214, 215, 216, 217, 218, 219, 220, 221, 222, 223, 224, 225, 226, 227, 228, 229, 230, 231, 232, 233, 234, 235, 236, 237, 238, 239, 240, 241, 242, 243, 244, 245, 246, 247, 248, 249, 250, 251, 252, 253, 254, 255, 256, 257, 258, 259, 260, 261, 262, 263, 264, 265, 266, 267, 268, 269, 270, 271, 272, 273, 274, 275, 276, 277, 278, 279, 280, 281, 282, 283, 284, 285, 286, 287, 288, 289, 290, 291, 292, 293, 294, 295, 296, 297, 298, 299, 300, 301, 302, 303, 304, 305, 306, 307, 308, 309, 310, 311, 312, 313, 314, 315, 316, 317, 318, 319, 320, 321, 322, 323, 324, 325, 326, 327, 328, 329, 330, 331, 332, 333, 334, 335, 336, 337, 338, 339, 340, 341, 342, 343, 344, 345, 346, 347, 348, 349, 350, 351, 352, 353, 354, 355, 356, 357, 358, 359, 360, 361, 362, 363, 364, 365, 366, 367, 368, 369, 370, 371, 372, 373, 374, 375, 376, 377, 378, 379, 380, 381, 382, 383, 384, 385, 386, 387, 388, 389, 390, 391, 392, 393, 394, 395, 396, 397, 398, 399, 400, 401, 402, 403, 404, 405, 406, 407, 408, 409, 410, 411, 412, 413, 414, 415, 416, 417, 418, 419, 420, 421, 422, 423, 424, 425, 426, 427, 428, 429, 430, 431, 432, 433, 434, 435, 436, 437, 438, 439, 440, 441, 442, 443, 444, 445, 446, 447, 448, 449, 450, 451, 452, 453, 454, 455, 456, 457, 458, 459, 460, 461, 462, 463, 464, 465, 466, 467, 468, 469, 470, 471, 472, 473, 474, 475, 476, 477, 478, 479, 480, 481, 482, 483, 484, 485, 486, 487, 488, 489, 490, 491, 492, 493, 494, 495, 496, 497],
      "AcquisitionTime": ["154823.685000", "154825.175000", "154826.665000", "154828.155000", "154829.645000", "154831.135000", "154832.625000", "154834.115000", "154835.605000", "154837.095000", "154838.585000", "154840.075000", "154841.565000", "154843.055000", "154844.545000", "154846.035000", "154847.525000", "154849.015000", "154850.505000", "154851.995000", "154853.485000", "154854.975000", "154856.465000", "154857.955000", "154859.445000", "154900.935000", "154902.425000", "154903.915000", "154905.405000", "154906.895000", "154908.385000", "154909.875000", "154911.365000", "154912.855000", "154914.345000", "154915.835000", "154917.325000", "154918.815000", "154920.305000", "154921.795000", "154923.285000", "154924.775000", "154926.265000", "154927.755000", "154929.245000", "154930.735000", "154932.225000", "154933.715000", "154935.205000", "154936.695000", "154938.185000", "154939.675000", "154941.165000", "154942.655000", "154944.145000", "154945.635000", "154947.125000", "154948.615000", "154950.105000", "154951.595000", "154953.085000", "154954.575000", "154956.065000", "154957.555000", "154959.045000", "155000.535000", "155002.025000", "155003.515000", "155005.005000", "155006.495000", "155007.985000", "155009.475000", "155010.965000", "155012.455000", "155013.945000", "155015.435000", "155016.925000", "155018.415000", "155019.905000", "155021.395000", "155022.885000", "155024.375000", "155025.865000", "155027.355000", "155028.845000", "155030.335000", "155031.825000", "155033.315000", "155034.805000", "155036.295000", "155037.785000", "155039.275000", "155040.765000", "155042.255000", "155043.745000", "155045.235000", "155046.725000", "155048.215000", "155049.705000", "155051.195000", "155052.685000", "155054.175000", "155055.665000", "155057.155000", "155058.645000", "155100.135000", "155101.625000", "155103.115000", "155104.605000", "155106.095000", "155107.585000", "155109.075000", "155110.565000", "155112.055000", "155113.545000", "155115.035000", "155116.525000", "155118.015000", "155119.505000", "155120.995000", "155122.485000", "155123.975000", "155125.465000", "155126.955000", "155128.445000", "155129.935000", "155131.425000", "155132.915000", "155134.405000", "155135.895000", "155137.385000", "155138.875000", "155140.365000", "155141.855000", "155143.345000", "155144.835000", "155146.325000", "155147.815000", "155149.305000", "155150.795000", "155152.285000", "155153.775000", "155155.265000", "155156.755000", "155158.245000", "155159.735000", "155201.225000", "155202.715000", "155204.205000", "155205.695000", "155207.185000", "155208.675000", "155210.165000", "155211.655000", "155213.145000", "155214.635000", "155216.125000", "155217.615000", "155219.105000", "155220.595000", "155222.085000", "155223.575000", "155225.065000", "155226.555000", "155228.045000", "155229.535000", "155231.025000", "155232.515000", "155234.005000", "155235.495000", "155236.985000", "155238.475000", "155239.965000", "155241.455000", "155242.945000", "155244.435000", "155245.925000", "155247.415000", "155248.905000", "155250.395000", "155251.885000", "155253.375000", "155254.865000", "155256.355000", "155257.845000", "155259.335000", "155300.825000", "155302.315000", "155303.805000", "155305.295000", "155306.785000", "155308.275000", "155309.765000", "155311.255000", "155312.745000", "155314.235000", "155315.725000", "155317.215000", "155318.705000", "155320.195000", "155321.685000", "155323.175000", "155324.665000", "155326.155000", "155327.645000", "155329.135000", "155330.625000", "155332.115000", "155333.605000", "155335.095000", "155336.585000", "155338.075000", "155339.565000", "155341.055000", "155342.545000", "155344.035000", "155345.525000", "155347.015000", "155348.505000", "155349.995000", "155351.485000", "155352.975000", "155354.465000", "155355.955000", "155357.445000", "155358.935000", "155400.425000", "155401.915000", "155403.405000", "155404.895000", "155406.385000", "155407.875000", "155409.365000", "155410.855000", "155412.345000", "155413.835000", "155415.325000", "155416.815000", "155418.305000", "155419.795000", "155421.285000", "155422.775000", "155424.265000", "155425.755000", "155427.245000", "155428.735000", "155430.225000", "155431.715000", "155433.205000", "155434.695000", "155436.185000", "155437.675000", "155439.165000", "155440.655000", "155442.145000", "155443.635000", "155445.125000", "155446.615000", "155448.105000", "155449.595000", "155451.085000", "155452.575000", "155454.065000", "155455.555000", "155457.045000", "155458.535000", "155500.025000", "155501.515000", "155503.005000", "155504.495000", "155505.985000", "155507.475000", "155508.965000", "155510.455000", "155511.945000", "155513.435000", "155514.925000", "155516.415000", "155517.905000", "155519.395000", "155520.885000", "155522.375000", "155523.865000", "155525.355000", "155526.845000", "155528.335000", "155529.825000", "155531.315000", "155532.805000", "155534.295000", "155535.785000", "155537.275000", "155538.765000", "155540.255000", "155541.745000", "155543.235000", "155544.725000", "155546.215000", "155547.705000", "155549.195000", "155550.685000", "155552.175000", "155553.665000", "155555.155000", "155556.645000", "155558.135000", "155559.625000", "155601.115000", "155602.605000", "155604.095000", "155605.585000", "155607.075000", "155608.565000", "155610.055000", "155611.545000", "155613.035000", "155614.525000", "155616.015000", "155617.505000", "155618.995000", "155620.485000", "155621.975000", "155623.465000", "155624.955000", "155626.445000", "155627.935000", "155629.425000", "155630.915000", "155632.405000", "155633.895000", "155635.385000", "155636.875000", "155638.365000", "155639.855000", "155641.345000", "155642.835000", "155644.325000", "155645.815000", "155647.305000", "155648.795000", "155650.285000", "155651.775000", "155653.265000", "155654.755000", "155656.245000", "155657.735000", "155659.225000", "155700.715000", "155702.205000", "155703.695000", "155705.185000", "155706.675000", "155708.165000", "155709.655000", "155711.145000", "155712.635000", "155714.125000", "155715.615000", "155717.105000", "155718.595000", "155720.085000", "155721.575000", "155723.065000", "155724.555000", "155726.045000", "155727.535000", "155729.025000", "155730.515000", "155732.005000", "155733.495000", "155734.985000", "155736.475000", "155737.965000", "155739.455000", "155740.945000", "155742.435000", "155743.925000", "155745.415000", "155746.905000", "155748.395000", "155749.885000", "155751.375000", "155752.865000", "155754.355000", "155755.845000", "155757.335000", "155758.825000", "155800.315000", "155801.805000", "155803.295000", "155804.785000", "155806.275000", "155807.765000", "155809.255000", "155810.745000", "155812.235000", "155813.725000", "155815.215000", "155816.705000", "155818.195000", "155819.685000", "155821.175000", "155822.665000", "155824.155000", "155825.645000", "155827.135000", "155828.625000", "155830.115000", "155831.605000", "155833.095000", "155834.585000", "155836.075000", "155837.565000", "155839.055000", "155840.545000", "155842.035000", "155843.525000", "155845.015000", "155846.505000", "155847.995000", "155849.485000", "155850.975000", "155852.465000", "155853.955000", "155855.445000", "155856.935000", "155858.425000", "155859.915000", "155901.405000", "155902.895000", "155904.385000", "155905.875000", "155907.365000", "155908.855000", "155910.345000", "155911.835000", "155913.325000", "155914.815000", "155916.305000", "155917.795000", "155919.285000", "155920.775000", "155922.265000", "155923.755000", "155925.245000", "155926.735000", "155928.225000", "155929.715000", "155931.205000", "155932.695000", "155934.185000", "155935.675000", "155937.165000", "155938.655000", "155940.145000", "155941.635000", "155943.125000", "155944.615000", "155946.105000", "155947.595000", "155949.085000", "155950.575000", "155952.065000", "155953.555000", "155955.045000", "155956.535000", "155958.025000", "155959.515000", "160001.005000", "160002.495000", "160003.985000", "160005.475000", "160006.965000", "160008.455000", "160009.945000", "160011.435000", "160012.925000", "160014.415000", "160015.905000", "160017.395000", "160018.885000", "160020.375000", "160021.865000", "160023.355000", "160024.845000", "160026.335000", "160027.825000", "160029.315000", "160030.805000", "160032.295000", "160033.785000", "160035.275000", "160036.765000", "160038.255000", "160039.745000", "160041.235000", "160042.725000"],
      "ContentTime": ["154949.452000", "154949.455000", "154949.457000", "154949.460000", "154949.462000", "154949.465000", "154949.467000", "154949.470000", "154949.472000", "154949.475000", "154949.477000", "154949.480000", "154949.482000", "154949.485000", "154949.494000", "154949.497000", "154949.499000", "154949.502000", "154949.504000", "154949.507000", "154949.509000", "154949.512000", "154949.514000", "154949.517000", "154949.519000", "154949.522000", "154949.524000", "154949.527000", "154949.529000", "154949.532000", "154949.534000", "155009.398000", "155009.400000", "155009.403000", "155009.405000", "155009.408000", "155009.411000", "155009.413000", "155009.415000", "155009.418000", "155009.420000", "155009.423000", "155009.425000", "155009.428000", "155009.430000", "155009.433000", "155009.435000", "155009.438000", "155009.440000", "155009.443000", "155009.445000", "155009.448000", "155029.385000", "155029.388000", "155029.391000", "155029.393000", "155029.395000", "155029.398000", "155029.400000", "155029.403000", "155029.405000", "155029.408000", "155029.410000", "155029.413000", "155029.415000", "155029.418000", "155029.420000", "155029.422000", "155029.425000", "155029.427000", "155029.430000", "155029.432000", "155049.373000", "155049.375000", "155049.378000", "155049.380000", "155049.383000", "155049.385000", "155049.387000", "155049.390000", "155049.393000", "155049.395000", "155049.397000", "155049.400000", "155049.402000", "155049.405000", "155049.407000", "155049.410000", "155049.412000", "155049.415000", "155049.417000", "155049.419000", "155129.451000", "155129.453000", "155129.456000", "155129.458000", "155129.461000", "155129.463000", "155129.466000", "155129.468000", "155129.471000", "155129.473000", "155129.476000", "155129.478000", "155129.481000", "155129.483000", "155129.486000", "155129.488000", "155129.491000", "155129.493000", "155129.496000", "155129.498000", "155129.501000", "155129.503000", "155129.505000", "155129.508000", "155129.510000", "155129.513000", "155129.515000", "155129.518000", "155129.520000", "155129.523000", "155129.525000", "155129.527000", "155209.435000", "155209.438000", "155209.440000", "155209.443000", "155209.445000", "155209.448000", "155209.450000", "155209.453000", "155209.455000", "155209.457000", "155209.460000", "155209.463000", "155209.465000", "155209.467000", "155209.470000", "155209.472000", "155209.475000", "155209.477000", "155209.480000", "155209.482000", "155209.485000", "155209.487000", "155209.490000", "155209.492000", "155209.495000", "155209.497000", "155209.499000", "155249.859000", "155249.862000", "155249.864000", "155249.867000", "155249.869000", "155249.872000", "155249.874000", "155249.877000", "155249.879000", "155249.882000", "155249.884000", "155249.887000", "155249.890000", "155249.892000", "155249.894000", "155249.897000", "155249.900000", "155249.902000", "155249.904000", "155249.907000", "155249.910000", "155249.912000", "155249.915000", "155249.917000", "155249.919000", "155249.922000", "155249.925000", "155329.415000", "155329.418000", "155329.421000", "155329.423000", "155329.425000", "155329.428000", "155329.430000", "155329.433000", "155329.435000", "155329.438000", "155329.440000", "155329.443000", "155329.445000", "155329.448000", "155329.450000", "155329.453000", "155329.455000", "155329.458000", "155329.460000", "155329.463000", "155329.465000", "155329.468000", "155329.470000", "155329.474000", "155329.476000", "155329.479000", "155409.413000", "155409.416000", "155409.418000", "155409.421000", "155409.423000", "155409.426000", "155409.428000", "155409.431000", "155409.433000", "155409.436000", "155409.438000", "155409.441000", "155409.443000", "155409.446000", "155409.448000", "155409.451000", "155409.454000", "155409.456000", "155409.459000", "155409.461000", "155409.464000", "155409.466000", "155409.469000", "155409.471000", "155409.474000", "155409.476000", "155409.479000", "155449.421000", "155449.424000", "155449.426000", "155449.429000", "155449.431000", "155449.434000", "155449.436000", "155449.439000", "155449.441000", "155449.444000", "155449.446000", "155449.449000", "155449.451000", "155449.454000", "155449.456000", "155449.459000", "155449.461000", "155449.464000", "155449.466000", "155449.469000", "155449.471000", "155449.474000", "155449.476000", "155449.479000", "155449.481000", "155449.484000", "155449.486000", "155529.400000", "155529.402000", "155529.405000", "155529.408000", "155529.410000", "155529.413000", "155529.415000", "155529.418000", "155529.420000", "155529.423000", "155529.426000", "155529.428000", "155529.431000", "155529.433000", "155529.436000", "155529.438000", "155529.441000", "155529.443000", "155529.446000", "155529.448000", "155529.451000", "155529.453000", "155529.456000", "155529.458000", "155529.461000", "155529.463000", "155529.466000", "155609.402000", "155609.405000", "155609.408000", "155609.410000", "155609.413000", "155609.415000", "155609.418000", "155609.420000", "155609.423000", "155609.425000", "155609.428000", "155609.430000", "155609.433000", "155609.435000", "155609.438000", "155609.441000", "155609.443000", "155609.446000", "155609.448000", "155609.450000", "155609.453000", "155609.456000", "155609.458000", "155609.461000", "155609.463000", "155609.466000", "155609.468000", "155649.421000", "155649.423000", "155649.426000", "155649.428000", "155649.431000", "155649.433000", "155649.436000", "155649.439000", "155649.441000", "155649.443000", "155649.446000", "155649.448000", "155649.451000", "155649.454000", "155649.456000", "155649.459000", "155649.461000", "155649.464000", "155649.466000", "155649.468000", "155649.471000", "155649.473000", "155649.476000", "155649.478000", "155649.481000", "155649.483000", "155649.486000", "155729.417000", "155729.420000", "155729.422000", "155729.425000", "155729.428000", "155729.430000", "155729.433000", "155729.435000", "155729.438000", "155729.440000", "155729.443000", "155729.445000", "155729.448000", "155729.450000", "155729.453000", "155729.455000", "155729.458000", "155729.460000", "155729.463000", "155729.465000", "155729.468000", "155729.470000", "155729.473000", "155729.475000", "155729.478000", "155729.480000", "155729.483000", "155809.415000", "155809.418000", "155809.420000", "155809.423000", "155809.425000", "155809.428000", "155809.430000", "155809.433000", "155809.436000", "155809.438000", "155809.441000", "155809.443000", "155809.446000", "155809.448000", "155809.451000", "155809.453000", "155809.456000", "155809.458000", "155809.461000", "155809.463000", "155809.466000", "155809.468000", "155809.471000", "155809.473000", "155809.476000", "155809.478000", "155849.423000", "155849.425000", "155849.428000", "155849.431000", "155849.433000", "155849.436000", "155849.438000", "155849.441000", "155849.443000", "155849.446000", "155849.448000", "155849.451000", "155849.453000", "155849.455000", "155849.458000", "155849.461000", "155849.463000", "155849.465000", "155849.468000", "155849.471000", "155849.473000", "155849.476000", "155849.478000", "155849.481000", "155849.483000", "155849.485000", "155849.488000", "155929.402000", "155929.405000", "155929.408000", "155929.410000", "155929.413000", "155929.415000", "155929.418000", "155929.420000", "155929.423000", "155929.425000", "155929.428000", "155929.430000", "155929.433000", "155929.435000", "155929.438000", "155929.440000", "155929.443000", "155929.445000", "155929.448000", "155929.450000", "155929.453000", "155929.455000", "155929.458000", "155929.460000", "155929.463000", "155929.465000", "155929.468000", "155949.355000", "155949.358000", "155949.361000", "155949.369000", "155949.372000", "155949.374000", "155949.377000", "155949.379000", "155949.382000", "155949.384000", "155949.387000", "155949.389000", "155949.392000", "155949.394000", "160029.411000", "160029.414000", "160029.416000", "160029.419000", "160029.421000", "160029.424000", "160029.426000", "160029.429000", "160029.431000", "160029.434000", "160029.436000", "160029.439000", "160029.441000", "160029.444000", "160029.446000", "160029.449000", "160029.451000", "160029.453000", "160029.456000", "160029.458000", "160029.461000", "160029.464000", "160029.466000", "160029.469000", "160029.471000", "160029.474000", "160044.578000", "160044.581000", "160044.583000", "160044.586000", "160044.588000", "160044.591000", "160044.593000", "160044.596000", "160044.598000", "160044.601000", "160044.603000"],
