{
  "AcquisitionMatrixPE": 104,
  "AcquisitionNumber": 1,
  "AcquisitionTime": "17:52:40.027500",
  "BandwidthPerPixelPhaseEncode": 17.17,
  "BaseResolution": 104,
  "BodyPartExamined": "BRAIN",
  "CoilCombinationMethod": "Sum of Squares",
  "ConsistencyInfo": "N4_VE11C_LATEST_20160120",
  "ConversionSoftware": "dcm2niix",
  "ConversionSoftwareVersion": "v1.0.20211006",
  "DerivedVendorReportedEchoSpacing": 0.000560011,
  "DeviceSerialNumber": "167006",
  "DwellTime": 2.1e-06,
  "EchoTime": 0.037,
  "EchoTime1": 0.037,
  "EchoTime2": 0.001,
  "EchoTrainLength": 104,
  "EffectiveEchoSpacing": 0.000560011,
  "FlipAngle": 52,
  "HeudiconvVersion": "0.11.3.post9+gc939bf8",
  "ImageComments": "Unaliased MB4/PE3/LB",
  "ImageOrientationPatientDICOM": [0.999534, -0.0304006, -0.00286107, 0.0273958, 0.934213, -0.355663],
  "ImageOrientationText": "Tra>Cor(-20.8)>Sag(-0.8)",
  "ImageType": [
    "ORIGINAL",
    "PRIMARY",
    "P",
    "MB",
    "ND",
    "MOSAIC",
    "PHASE"
],
  "ImagingFrequency": 123.26,
  "InPlanePhaseEncodingDirectionDICOM": "COL",
  "InstitutionAddress": "Chemin Queen-Mary 4565,Montreal,District,CA,H3W 1W5",
  "InstitutionName": "IUGM",
  "InstitutionalDepartmentName": "Department",
  "MRAcquisitionType": "2D",
  "MagneticFieldStrength": 3,
  "Manufacturer": "Siemens",
  "ManufacturersModelName": "Prisma_fit",
  "MatrixCoilMode": "SENSE",
  "Modality": "MR",
  "MultibandAccelerationFactor": 4,
  "PartialFourier": 1,
  "PatientPosition": "HFS",
  "PercentPhaseFOV": 100,
  "PercentSampling": 100,
  "PhaseEncodingDirection": "j",
  "PhaseEncodingSteps": 104,
  "PhaseResolution": 1,
  "PixelBandwidth": 2290,
  "ProcedureStepDescription": "games^mario",
  "ProtocolName": "func_task-mario_run-03",
  "PulseSequenceDetails": "%CustomerSeq%\\cmrr_mbep2d_bold",
  "ReceiveCoilActiveElements": "HC1-7;NC1,2",
  "ReceiveCoilName": "HeadNeck_64",
  "ReconMatrixPE": 104,
  "RepetitionTime": 1.49,
  "SAR": 0.0796904,
  "ScanOptions": "FS",
  "ScanningSequence": "EP",
  "SequenceName": "epfid2d1_104",
  "SequenceVariant": "SK\\SS",
  "SeriesDescription": "func_task-mario_run-03",
  "SeriesNumber": 17,
  "ShimSetting": [597, -7261, -8808, 422, 25, -334, 2, 47],
  "SliceThickness": 2,
  "SliceTiming": [0, 0.7825, 0.0975, 0.8825, 0.195, 0.98, 0.2925, 1.0775, 0.3925, 1.175, 0.49, 1.2725, 0.5875, 1.3725, 0.685, 0, 0.7825, 0.0975, 0.8825, 0.195, 0.98, 0.2925, 1.0775, 0.3925, 1.175, 0.49, 1.2725, 0.5875, 1.3725, 0.685, 0, 0.7825, 0.0975, 0.8825, 0.195, 0.98, 0.2925, 1.0775, 0.3925, 1.175, 0.49, 1.2725, 0.5875, 1.3725, 0.685, 0, 0.7825, 0.0975, 0.8825, 0.195, 0.98, 0.2925, 1.0775, 0.3925, 1.175, 0.49, 1.2725, 0.5875, 1.3725, 0.685],
  "SoftwareVersions": "syngo MR E11",
  "SpacingBetweenSlices": 2,
  "StationName": "MRC35049",
  "TaskName": "mario",
  "TotalReadoutTime": 0.0576811,
  "TxRefAmp": 302.015,
  "WipMemBlock": "ce9ba749-ce61-462b-8ba2-1a732b64fb00||Sequence: R017 ve11c/master r/75a17815+; Jun 28 2022 16:32:11 by eja",
  "dcmmeta_affine": [
    [-1.9990674257278442, 0.054791610687971115, -0.026970412582159042, 101.65910339355469],
    [0.06080115959048271, 1.8684253692626953, -0.7108376026153564, -64.67285919189453],
    [-0.005722132511436939, 0.7113260626792908, 1.8692197799682617, -60.42997741699219],
    [0.0, 0.0, 0.0, 1.0]
],
  "dcmmeta_reorient_transform": [
    [0.0, -1.0, 0.0, 103.0],
    [1.0, 0.0, 0.0, 0.0],
    [0.0, 0.0, 1.0, 0.0],
    [0.0, 0.0, 0.0, 1.0]
],
  "dcmmeta_shape": [104, 104, 60, 445],
  "dcmmeta_slice_dim": 2,
  "dcmmeta_version": 0.6,
  "global": {
    "const": {
      "AcquisitionMatrix": [104, 0, 0, 104],
      "AngioFlag": "N",
      "BitsAllocated": 16,
      "BitsStored": 16,
      "BodyPartExamined": "BRAIN",
      "Columns": 832,
      "EchoNumbers": 1,
      "EchoTime": 37.0,
      "EchoTrainLength": 104,
      "FlipAngle": 52.0,
      "HighBit": 15,
      "ImageOrientationPatient": [0.99953370082334, -0.0304005792384, -0.0028610662978, 0.02739580500677, 0.9342126551798, -0.3556630213699],
      "ImagePositionPatient": [-854.90732152598, -785.75013534245, 273.84214126606],
      "ImageType": [
        "ORIGINAL",
        "PRIMARY",
        "P",
        "MB",
        "ND",
        "MOSAIC"
],
      "ImagedNucleus": "1H",
      "ImagingFrequency": 123.260099,
      "InPlanePhaseEncodingDirection": "COL",
      "LargestImagePixelValue": 4095,
      "MRAcquisitionType": "2D",
      "MagneticFieldStrength": 3.0,
      "Manufacturer": "SIEMENS",
      "ManufacturerModelName": "Prisma_fit",
      "Modality": "MR",
      "NumberOfAverages": 1.0,
      "NumberOfPhaseEncodingSteps": 104,
      "PercentPhaseFieldOfView": 100.0,
      "PercentSampling": 100.0,
      "PerformedProcedureStepStartTime": "170915.475000",
      "PhotometricInterpretation": "MONOCHROME2",
      "PixelBandwidth": 2290.0,
      "PixelRepresentation": 0,
      "PixelSpacing": [2.0, 2.0],
      "ProtocolName": "func_task-mario_run-03",
      "RepetitionTime": 1490.0,
      "RescaleIntercept": -4096.0,
      "RescaleSlope": 2.0,
      "RescaleType": "US",
      "Rows": 832,
      "SAR": 0.07969043030064,
      "SamplesPerPixel": 1,
      "ScanOptions": "FS",
      "ScanningSequence": "EP",
      "SequenceName": "epfid2d1_104",
      "SequenceVariant": [
        "SK",
        "SS"
],
      "SeriesDescription": "func_task-mario_run-03",
      "SeriesNumber": 17,
      "SeriesTime": "175343.265000",
      "SliceLocation": -34.863396578645,
      "SliceThickness": 2.0,
      "SmallestImagePixelValue": 0,
      "SoftwareVersions": "syngo MR E11",
      "SpacingBetweenSlices": 2.0000000323959,
      "SpecificCharacterSet": "ISO_IR 100",
      "StudyID": "1",
      "StudyTime": "170915.324000",
      "TransmitCoilName": "Body",
      "VariableFlipAngleFlag": "N",
      "WindowCenterWidthExplanation": "Algo1",
      "dBdt": 0.0},
    "slices": {}
  },
  "time": {
    "samples": {
      "AcquisitionNumber": [1, 2, 3, 4, 5, 6, 7, 8, 9, 10, 11, 12, 13, 14, 15, 16, 17, 18, 19, 20, 21, 22, 23, 24, 25, 26, 27, 28, 29, 30, 31, 32, 33, 34, 35, 36, 37, 38, 39, 40, 41, 42, 43, 44, 45, 46, 47, 48, 49, 50, 51, 52, 53, 54, 55, 56, 57, 58, 59, 60, 61, 62, 63, 64, 65, 66, 67, 68, 69, 70, 71, 72, 73, 74, 75, 76, 77, 78, 79, 80, 81, 82, 83, 84, 85, 86, 87, 88, 89, 90, 91, 92, 93, 94, 95, 96, 97, 98, 99, 100, 101, 102, 103, 104, 105, 106, 107, 108, 109, 110, 111, 112, 113, 114, 115, 116, 117, 118, 119, 120, 121, 122, 123, 124, 125, 126, 127, 128, 129, 130, 131, 132, 133, 134, 135, 136, 137, 138, 139, 140, 141, 142, 143, 144, 145, 146, 147, 148, 149, 150, 151, 152, 153, 154, 155, 156, 157, 158, 159, 160, 161, 162, 163, 164, 165, 166, 167, 168, 169, 170, 171, 172, 173, 174, 175, 176, 177, 178, 179, 180, 181, 182, 183, 184, 185, 186, 187, 188, 189, 190, 191, 192, 193, 194, 195, 196, 197, 198, 199, 200, 201, 202, 203, 204, 205, 206, 207, 208, 209, 210, 211, 212, 213, 214, 215, 216, 217, 218, 219, 220, 221, 222, 223, 224, 225, 226, 227, 228, 229, 230, 231, 232, 233, 234, 235, 236, 237, 238, 239, 240, 241, 242, 243, 244, 245, 246, 247, 248, 249, 250, 251, 252, 253, 254, 255, 256, 257, 258, 259, 260, 261, 262, 263, 264, 265, 266, 267, 268, 269, 270, 271, 272, 273, 274, 275, 276, 277, 278, 279, 280, 281, 282, 283, 284, 285, 286, 287, 288, 289, 290, 291, 292, 293, 294, 295, 296, 297, 298, 299, 300, 301, 302, 303, 304, 305, 306, 307, 308, 309, 310, 311, 312, 313, 314, 315, 316, 317, 318, 319, 320, 321, 322, 323, 324, 325, 326, 327, 328, 329, 330, 331, 332, 333, 334, 335, 336, 337, 338, 339, 340, 341, 342, 343, 344, 345, 346, 347, 348, 349, 350, 351, 352, 353, 354, 355, 356, 357, 358, 359, 360, 361, 362, 363, 364, 365, 366, 367, 368, 369, 370, 371, 372, 373, 374, 375, 376, 377, 378, 379, 380, 381, 382, 383, 384, 385, 386, 387, 388, 389, 390, 391, 392, 393, 394, 395, 396, 397, 398, 399, 400, 401, 402, 403, 404, 405, 406, 407, 408, 409, 410, 411, 412, 413, 414, 415, 416, 417, 418, 419, 420, 421, 422, 423, 424, 425, 426, 427, 428, 429, 430, 431, 432, 433, 434, 435, 436, 437, 438, 439, 440, 441, 442, 443, 444, 445],
      "AcquisitionTime": ["175240.027500", "175241.517500", "175243.007500", "175244.497500", "175245.987500", "175247.477500", "175248.967500", "175250.457500", "175251.947500", "175253.437500", "175254.927500", "175256.417500", "175257.907500", "175259.397500", "175300.887500", "175302.377500", "175303.867500", "175305.357500", "175306.847500", "175308.337500", "175309.827500", "175311.317500", "175312.807500", "175314.297500", "175315.787500", "175317.277500", "175318.767500", "175320.257500", "175321.747500", "175323.237500", "175324.727500", "175326.217500", "175327.707500", "175329.197500", "175330.687500", "175332.177500", "175333.667500", "175335.157500", "175336.647500", "175338.137500", "175339.627500", "175341.117500", "175342.607500", "175344.097500", "175345.587500", "175347.077500", "175348.567500", "175350.057500", "175351.547500", "175353.037500", "175354.527500", "175356.017500", "175357.507500", "175358.997500", "175400.487500", "175401.977500", "175403.467500", "175404.957500", "175406.447500", "175407.937500", "175409.427500", "175410.917500", "175412.407500", "175413.897500", "175415.387500", "175416.877500", "175418.367500", "175419.857500", "175421.347500", "175422.837500", "175424.327500", "175425.817500", "175427.307500", "175428.797500", "175430.287500", "175431.777500", "175433.267500", "175434.757500", "175436.247500", "175437.737500", "175439.227500", "175440.717500", "175442.207500", "175443.697500", "175445.187500", "175446.677500", "175448.167500", "175449.657500", "175451.147500", "175452.637500", "175454.127500", "175455.617500", "175457.107500", "175458.597500", "175500.087500", "175501.577500", "175503.067500", "175504.557500", "175506.047500", "175507.537500", "175509.027500", "175510.517500", "175512.007500", "175513.497500", "175514.987500", "175516.477500", "175517.967500", "175519.457500", "175520.947500", "175522.437500", "175523.927500", "175525.417500", "175526.907500", "175528.397500", "175529.887500", "175531.377500", "175532.867500", "175534.357500", "175535.847500", "175537.337500", "175538.827500", "175540.317500", "175541.807500", "175543.297500", "175544.787500", "175546.277500", "175547.767500", "175549.257500", "175550.747500", "175552.237500", "175553.727500", "175555.217500", "175556.707500", "175558.197500", "175559.687500", "175601.177500", "175602.667500", "175604.157500", "175605.647500", "175607.137500", "175608.627500", "175610.117500", "175611.607500", "175613.097500", "175614.587500", "175616.077500", "175617.567500", "175619.057500", "175620.547500", "175622.037500", "175623.527500", "175625.017500", "175626.507500", "175627.997500", "175629.487500", "175630.977500", "175632.467500", "175633.957500", "175635.447500", "175636.937500", "175638.427500", "175639.917500", "175641.407500", "175642.897500", "175644.387500", "175645.877500", "175647.367500", "175648.857500", "175650.347500", "175651.837500", "175653.327500", "175654.817500", "175656.307500", "175657.797500", "175659.287500", "175700.777500", "175702.267500", "175703.757500", "175705.247500", "175706.737500", "175708.227500", "175709.717500", "175711.207500", "175712.697500", "175714.187500", "175715.677500", "175717.167500", "175718.657500", "175720.147500", "175721.637500", "175723.127500", "175724.617500", "175726.107500", "175727.597500", "175729.087500", "175730.577500", "175732.067500", "175733.557500", "175735.047500", "175736.537500", "175738.027500", "175739.517500", "175741.007500", "175742.497500", "175743.987500", "175745.477500", "175746.967500", "175748.457500", "175749.947500", "175751.437500", "175752.927500", "175754.417500", "175755.907500", "175757.397500", "175758.887500", "175800.377500", "175801.867500", "175803.357500", "175804.847500", "175806.337500", "175807.827500", "175809.317500", "175810.807500", "175812.297500", "175813.787500", "175815.277500", "175816.767500", "175818.257500", "175819.747500", "175821.237500", "175822.727500", "175824.217500", "175825.707500", "175827.197500", "175828.687500", "175830.177500", "175831.667500", "175833.157500", "175834.647500", "175836.137500", "175837.627500", "175839.117500", "175840.607500", "175842.097500", "175843.587500", "175845.077500", "175846.567500", "175848.057500", "175849.547500", "175851.037500", "175852.527500", "175854.017500", "175855.507500", "175856.997500", "175858.487500", "175859.977500", "175901.467500", "175902.957500", "175904.447500", "175905.937500", "175907.427500", "175908.917500", "175910.407500", "175911.897500", "175913.387500", "175914.877500", "175916.367500", "175917.857500", "175919.347500", "175920.837500", "175922.327500", "175923.817500", "175925.307500", "175926.797500", "175928.287500", "175929.777500", "175931.267500", "175932.757500", "175934.247500", "175935.737500", "175937.227500", "175938.717500", "175940.207500", "175941.697500", "175943.187500", "175944.677500", "175946.167500", "175947.657500", "175949.147500", "175950.637500", "175952.127500", "175953.617500", "175955.107500", "175956.597500", "175958.087500", "175959.577500", "180001.067500", "180002.557500", "180004.047500", "180005.537500", "180007.027500", "180008.517500", "180010.007500", "180011.497500", "180012.987500", "180014.477500", "180015.967500", "180017.457500", "180018.947500", "180020.437500", "180021.927500", "180023.417500", "180024.907500", "180026.397500", "180027.887500", "180029.377500", "180030.867500", "180032.357500", "180033.847500", "180035.337500", "180036.827500", "180038.317500", "180039.807500", "180041.297500", "180042.787500", "180044.277500", "180045.767500", "180047.257500", "180048.747500", "180050.237500", "180051.727500", "180053.217500", "180054.707500", "180056.197500", "180057.687500", "180059.177500", "180100.667500", "180102.157500", "180103.647500", "180105.137500", "180106.627500", "180108.117500", "180109.607500", "180111.097500", "180112.587500", "180114.077500", "180115.567500", "180117.057500", "180118.547500", "180120.037500", "180121.527500", "180123.017500", "180124.507500", "180125.997500", "180127.487500", "180128.977500", "180130.467500", "180131.957500", "180133.447500", "180134.937500", "180136.427500", "180137.917500", "180139.407500", "180140.897500", "180142.387500", "180143.877500", "180145.367500", "180146.857500", "180148.347500", "180149.837500", "180151.327500", "180152.817500", "180154.307500", "180155.797500", "180157.287500", "180158.777500", "180200.267500", "180201.757500", "180203.247500", "180204.737500", "180206.227500", "180207.717500", "180209.207500", "180210.697500", "180212.187500", "180213.677500", "180215.167500", "180216.657500", "180218.147500", "180219.637500", "180221.127500", "180222.617500", "180224.107500", "180225.597500", "180227.087500", "180228.577500", "180230.067500", "180231.557500", "180233.047500", "180234.537500", "180236.027500", "180237.517500", "180239.007500", "180240.497500", "180241.987500", "180243.477500", "180244.967500", "180246.457500", "180247.947500", "180249.437500", "180250.927500", "180252.417500", "180253.907500", "180255.397500", "180256.887500", "180258.377500", "180259.867500", "180301.357500", "180302.847500", "180304.337500", "180305.827500", "180307.317500", "180308.807500", "180310.297500", "180311.787500", "180313.277500", "180314.767500", "180316.257500", "180317.747500", "180319.237500", "180320.727500", "180322.217500", "180323.707500", "180325.197500", "180326.687500", "180328.177500", "180329.667500", "180331.157500", "180332.647500", "180334.137500", "180335.627500", "180337.117500", "180338.607500", "180340.097500", "180341.587500"],
      "ContentTime": ["175343.267000", "175343.270000", "175343.272000", "175343.275000", "175343.277000", "175343.280000", "175343.282000", "175343.286000", "175343.288000", "175343.291000", "175343.293000", "175343.296000", "175343.298000", "175343.301000", "175403.270000", "175403.273000", "175403.275000", "175403.278000", "175403.281000", "175403.283000", "175403.286000", "175403.293000", "175403.296000", "175403.298000", "175403.301000", "175403.304000", "175403.306000", "175403.309000", "175403.311000", "175403.314000", "175403.316000", "175403.319000", "175403.321000", "175403.324000", "175423.251000", "175423.254000", "175423.264000", "175423.267000", "175423.269000", "175423.272000", "175423.274000", "175423.277000", "175423.279000", "175423.282000", "175423.284000", "175423.287000", "175423.289000", "175423.292000", "175423.294000", "175423.297000", "175423.299000", "175423.302000", "175423.304000", "175423.306000", "175423.309000", "175443.250000", "175443.253000", "175443.256000", "175443.258000", "175443.261000", "175443.263000", "175443.265000", "175443.268000", "175443.270000", "175443.273000", "175443.275000", "175443.278000", "175443.280000", "175443.283000", "175443.285000", "175443.288000", "175443.290000", "175443.293000", "175443.295000", "175443.298000", "175503.256000", "175503.259000", "175503.261000", "175503.264000", "175503.266000", "175503.269000", "175503.271000", "175503.274000", "175503.276000", "175503.279000", "175503.281000", "175503.284000", "175503.286000", "175503.289000", "175503.291000", "175503.294000", "175503.296000", "175503.299000", "175503.301000", "175503.304000", "175543.292000", "175543.295000", "175543.297000", "175543.300000", "175543.302000", "175543.305000", "175543.307000", "175543.310000", "175543.312000", "175543.315000", "175543.317000", "175543.320000", "175543.322000", "175543.325000", "175543.327000", "175543.330000", "175543.332000", "175543.335000", "175543.337000", "175543.340000", "175543.342000", "175543.345000", "175543.347000", "175543.350000", "175543.352000", "175543.355000", "175543.357000", "175623.288000", "175623.291000", "175623.293000", "175623.296000", "175623.298000", "175623.301000", "175623.303000", "175623.306000", "175623.308000", "175623.311000", "175623.313000", "175623.316000", "175623.318000", "175623.321000", "175623.323000", "175623.326000", "175623.328000", "175623.330000", "175623.333000", "175623.335000", "175623.338000", "175623.340000", "175623.343000", "175623.345000", "175623.348000", "175623.350000", "175623.353000", "175703.289000", "175703.292000", "175703.295000", "175703.297000", "175703.300000", "175703.302000", "175703.305000", "175703.307000", "175703.310000", "175703.312000", "175703.315000", "175703.317000", "175703.320000", "175703.322000", "175703.325000", "175703.327000", "175703.330000", "175703.332000", "175703.335000", "175703.337000", "175703.340000", "175703.342000", "175703.345000", "175703.347000", "175703.350000", "175703.352000", "175743.281000", "175743.284000", "175743.287000", "175743.289000", "175743.292000", "175743.294000", "175743.297000", "175743.299000", "175743.302000", "175743.304000", "175743.307000", "175743.309000", "175743.312000", "175743.314000", "175743.317000", "175743.319000", "175743.322000", "175743.324000", "175743.327000", "175743.329000", "175743.332000", "175743.334000", "175743.337000", "175743.339000", "175743.342000", "175743.344000", "175743.347000", "175823.283000", "175823.286000", "175823.288000", "175823.291000", "175823.293000", "175823.296000", "175823.298000", "175823.301000", "175823.303000", "175823.306000", "175823.308000", "175823.311000", "175823.313000", "175823.316000", "175823.318000", "175823.321000", "175823.323000", "175823.326000", "175823.328000", "175823.330000", "175823.333000", "175823.335000", "175823.338000", "175823.340000", "175823.343000", "175823.345000", "175823.348000", "175903.285000", "175903.288000", "175903.290000", "175903.293000", "175903.296000", "175903.298000", "175903.301000", "175903.303000", "175903.306000", "175903.308000", "175903.311000", "175903.313000", "175903.316000", "175903.318000", "175903.321000", "175903.323000", "175903.326000", "175903.328000", "175903.331000", "175903.333000", "175903.336000", "175903.338000", "175903.341000", "175903.343000", "175903.346000", "175903.348000", "175903.351000", "175943.288000", "175943.291000", "175943.293000", "175943.295000", "175943.298000", "175943.300000", "175943.303000", "175943.305000", "175943.308000", "175943.310000", "175943.313000", "175943.315000", "175943.318000", "175943.320000", "175943.323000", "175943.325000", "175943.328000", "175943.330000", "175943.333000", "175943.335000", "175943.338000", "175943.340000", "175943.343000", "175943.345000", "175943.348000", "175943.351000", "175943.353000", "180023.284000", "180023.287000", "180023.290000", "180023.292000", "180023.295000", "180023.297000", "180023.300000", "180023.302000", "180023.305000", "180023.307000", "180023.310000", "180023.312000", "180023.315000", "180023.317000", "180023.320000", "180023.322000", "180023.325000", "180023.327000", "180023.330000", "180023.332000", "180023.335000", "180023.337000", "180023.340000", "180023.343000", "180023.345000", "180023.347000", "180023.350000", "180103.309000", "180103.312000", "180103.315000", "180103.317000", "180103.320000", "180103.322000", "180103.325000", "180103.327000", "180103.330000", "180103.332000", "180103.335000", "180103.337000", "180103.339000", "180103.342000", "180103.344000", "180103.347000", "180103.349000", "180103.352000", "180103.354000", "180103.357000", "180103.359000", "180103.362000", "180103.364000", "180103.367000", "180103.370000", "180103.372000", "180103.375000", "180143.283000", "180143.286000", "180143.288000", "180143.291000", "180143.294000", "180143.296000", "180143.299000", "180143.302000", "180143.304000", "180143.307000", "180143.309000", "180143.312000", "180143.315000", "180143.317000", "180143.320000", "180143.322000", "180143.325000", "180143.327000", "180143.330000", "180143.333000", "180143.335000", "180143.338000", "180143.340000", "180143.343000", "180143.345000", "180143.348000", "180223.292000", "180223.295000", "180223.297000", "180223.300000", "180223.302000", "180223.305000", "180223.307000", "180223.310000", "180223.312000", "180223.315000", "180223.317000", "180223.320000", "180223.322000", "180223.325000", "180223.327000", "180223.330000", "180223.332000", "180223.335000", "180223.337000", "180223.340000", "180223.342000", "180223.345000", "180223.347000", "180223.350000", "180223.352000", "180223.355000", "180223.357000", "180303.288000", "180303.291000", "180303.293000", "180303.296000", "180303.299000", "180303.301000", "180303.304000", "180303.306000", "180303.309000", "180303.311000", "180303.314000", "180303.316000", "180303.319000", "180303.322000", "180303.324000", "180303.327000", "180303.329000", "180303.332000", "180303.334000", "180303.337000", "180303.339000", "180303.342000", "180303.344000", "180303.346000", "180303.349000", "180303.351000", "180303.354000", "180343.296000", "180343.299000", "180343.301000", "180343.304000", "180343.306000", "180343.309000", "180343.311000", "180343.314000", "180343.316000", "180343.319000", "180343.322000", "180343.324000", "180343.327000", "180343.329000", "180343.332000", "180343.334000", "180343.337000", "180343.339000", "180343.342000", "180343.344000", "180343.347000", "180343.349000", "180343.352000", "180343.355000", "180343.357000", "180343.360000", "180343.362000", "180345.024000"],
