{
  "AcquisitionMatrixPE": 104,
  "AcquisitionNumber": 1,
  "AcquisitionTime": "17:38:53.430000",
  "BandwidthPerPixelPhaseEncode": 17.17,
  "BaseResolution": 104,
  "BodyPartExamined": "BRAIN",
  "CoilCombinationMethod": "Sum of Squares",
  "ConsistencyInfo": "N4_VE11C_LATEST_20160120",
  "ConversionSoftware": "dcm2niix",
  "ConversionSoftwareVersion": "v1.0.20211006",
  "DerivedVendorReportedEchoSpacing": 0.000560011,
  "DeviceSerialNumber": "167006",
  "DwellTime": 2.1e-06,
  "EchoTime": 0.037,
  "EchoTrainLength": 104,
  "EffectiveEchoSpacing": 0.000560011,
  "FlipAngle": 52,
  "HeudiconvVersion": "0.11.3.post9+gc939bf8",
  "ImageComments": "Unaliased MB4/PE3/LB",
  "ImageOrientationPatientDICOM": [0.999534, -0.0304006, -0.00286107, 0.0273958, 0.934213, -0.355663],
  "ImageOrientationText": "Tra>Cor(-20.8)>Sag(-0.8)",
  "ImageType": [
    "ORIGINAL",
    "PRIMARY",
    "M",
    "MB",
    "ND",
    "MOSAIC"
],
  "ImagingFrequency": 123.26,
  "InPlanePhaseEncodingDirectionDICOM": "COL",
  "InstitutionAddress": "Chemin Queen-Mary 4565,Montreal,District,CA,H3W 1W5",
  "InstitutionName": "IUGM",
  "InstitutionalDepartmentName": "Department",
  "MRAcquisitionType": "2D",
  "MagneticFieldStrength": 3,
  "Manufacturer": "Siemens",
  "ManufacturersModelName": "Prisma_fit",
  "MatrixCoilMode": "SENSE",
  "Modality": "MR",
  "MultibandAccelerationFactor": 4,
  "PartialFourier": 1,
  "PatientPosition": "HFS",
  "PercentPhaseFOV": 100,
  "PercentSampling": 100,
  "PhaseEncodingDirection": "j",
  "PhaseEncodingSteps": 104,
  "PhaseResolution": 1,
  "PixelBandwidth": 2290,
  "ProcedureStepDescription": "games^mario",
  "ProtocolName": "func_task-mario_run-02",
  "PulseSequenceDetails": "%CustomerSeq%\\cmrr_mbep2d_bold",
  "ReceiveCoilActiveElements": "HC1-7;NC1,2",
  "ReceiveCoilName": "HeadNeck_64",
  "ReconMatrixPE": 104,
  "RepetitionTime": 1.49,
  "SAR": 0.0796904,
  "ScanOptions": "FS",
  "ScanningSequence": "EP",
  "SequenceName": "epfid2d1_104",
  "SequenceVariant": "SK\\SS",
  "SeriesDescription": "func_task-mario_run-02",
  "SeriesNumber": 13,
  "ShimSetting": [597, -7261, -8808, 422, 25, -334, 2, 47],
  "SliceThickness": 2,
  "SliceTiming": [0, 0.785, 0.0975, 0.8825, 0.1975, 0.98, 0.295, 1.0775, 0.3925, 1.1775, 0.49, 1.275, 0.5875, 1.3725, 0.6875, 0, 0.785, 0.0975, 0.8825, 0.1975, 0.98, 0.295, 1.0775, 0.3925, 1.1775, 0.49, 1.275, 0.5875, 1.3725, 0.6875, 0, 0.785, 0.0975, 0.8825, 0.1975, 0.98, 0.295, 1.0775, 0.3925, 1.1775, 0.49, 1.275, 0.5875, 1.3725, 0.6875, 0, 0.785, 0.0975, 0.8825, 0.1975, 0.98, 0.295, 1.0775, 0.3925, 1.1775, 0.49, 1.275, 0.5875, 1.3725, 0.6875],
  "SoftwareVersions": "syngo MR E11",
  "SpacingBetweenSlices": 2,
  "StationName": "MRC35049",
  "TaskName": "mario",
  "TotalReadoutTime": 0.0576811,
  "TxRefAmp": 302.015,
  "WipMemBlock": "bbfd5bbb-6488-408b-9486-8d1ce4813c3c||Sequence: R017 ve11c/master r/75a17815+; Jun 28 2022 16:32:11 by eja",
  "dcmmeta_affine": [
    [-1.9990674257278442, 0.054791610687971115, -0.026970412582159042, 101.65910339355469],
    [0.06080115959048271, 1.8684253692626953, -0.7108376026153564, -64.67285919189453],
    [-0.005722132511436939, 0.7113260626792908, 1.8692197799682617, -60.42997741699219],
    [0.0, 0.0, 0.0, 1.0]
],
  "dcmmeta_reorient_transform": [
    [0.0, -1.0, 0.0, 103.0],
    [1.0, 0.0, 0.0, 0.0],
    [0.0, 0.0, 1.0, 0.0],
    [0.0, 0.0, 0.0, 1.0]
],
  "dcmmeta_shape": [104, 104, 60, 474],
  "dcmmeta_slice_dim": 2,
  "dcmmeta_version": 0.6,
  "global": {
    "const": {
      "AcquisitionMatrix": [104, 0, 0, 104],
      "AngioFlag": "N",
      "BitsAllocated": 16,
      "BitsStored": 16,
      "BodyPartExamined": "BRAIN",
      "Columns": 832,
      "EchoNumbers": 1,
      "EchoTime": 37.0,
      "EchoTrainLength": 104,
      "FlipAngle": 52.0,
      "HighBit": 15,
      "ImageOrientationPatient": [0.99953370082334, -0.0304005792384, -0.0028610662978, 0.02739580500677, 0.9342126551798, -0.3556630213699],
      "ImagePositionPatient": [-854.90732152598, -785.75013534245, 273.84214126606],
      "ImageType": [
        "ORIGINAL",
        "PRIMARY",
        "M",
        "MB",
        "ND",
        "MOSAIC"
],
      "ImagedNucleus": "1H",
      "ImagingFrequency": 123.26009,
      "InPlanePhaseEncodingDirection": "COL",
      "MRAcquisitionType": "2D",
      "MagneticFieldStrength": 3.0,
      "Manufacturer": "SIEMENS",
      "ManufacturerModelName": "Prisma_fit",
      "Modality": "MR",
      "NumberOfAverages": 1.0,
      "NumberOfPhaseEncodingSteps": 104,
      "PercentPhaseFieldOfView": 100.0,
      "PercentSampling": 100.0,
      "PerformedProcedureStepStartTime": "170915.475000",
      "PhotometricInterpretation": "MONOCHROME2",
      "PixelBandwidth": 2290.0,
      "PixelRepresentation": 0,
      "PixelSpacing": [2.0, 2.0],
      "ProtocolName": "func_task-mario_run-02",
      "RepetitionTime": 1490.0,
      "Rows": 832,
      "SAR": 0.07969043030064,
      "SamplesPerPixel": 1,
      "ScanOptions": "FS",
      "ScanningSequence": "EP",
      "SequenceName": "epfid2d1_104",
      "SequenceVariant": [
        "SK",
        "SS"
],
      "SeriesDescription": "func_task-mario_run-02",
      "SeriesNumber": 13,
      "SeriesTime": "174020.406000",
      "SliceLocation": -34.863396578645,
      "SliceThickness": 2.0,
      "SmallestImagePixelValue": 0,
      "SoftwareVersions": "syngo MR E11",
      "SpacingBetweenSlices": 2.0000000323959,
      "SpecificCharacterSet": "ISO_IR 100",
      "StudyID": "1",
      "StudyTime": "170915.324000",
      "TransmitCoilName": "Body",
      "VariableFlipAngleFlag": "N",
      "WindowCenterWidthExplanation": "Algo1",
      "dBdt": 0.0},
    "slices": {}
  },
  "time": {
    "samples": {
      "AcquisitionNumber": [1, 2, 3, 4, 5, 6, 7, 8, 9, 10, 11, 12, 13, 14, 15, 16, 17, 18, 19, 20, 21, 22, 23, 24, 25, 26, 27, 28, 29, 30, 31, 32, 33, 34, 35, 36, 37, 38, 39, 40, 41, 42, 43, 44, 45, 46, 47, 48, 49, 50, 51, 52, 53, 54, 55, 56, 57, 58, 59, 60, 61, 62, 63, 64, 65, 66, 67, 68, 69, 70, 71, 72, 73, 74, 75, 76, 77, 78, 79, 80, 81, 82, 83, 84, 85, 86, 87, 88, 89, 90, 91, 92, 93, 94, 95, 96, 97, 98, 99, 100, 101, 102, 103, 104, 105, 106, 107, 108, 109, 110, 111, 112, 113, 114, 115, 116, 117, 118, 119, 120, 121, 122, 123, 124, 125, 126, 127, 128, 129, 130, 131, 132, 133, 134, 135, 136, 137, 138, 139, 140, 141, 142, 143, 144, 145, 146, 147, 148, 149, 150, 151, 152, 153, 154, 155, 156, 157, 158, 159, 160, 161, 162, 163, 164, 165, 166, 167, 168, 169, 170, 171, 172, 173, 174, 175, 176, 177, 178, 179, 180, 181, 182, 183, 184, 185, 186, 187, 188, 189, 190, 191, 192, 193, 194, 195, 196, 197, 198, 199, 200, 201, 202, 203, 204, 205, 206, 207, 208, 209, 210, 211, 212, 213, 214, 215, 216, 217, 218, 219, 220, 221, 222, 223, 224, 225, 226, 227, 228, 229, 230, 231, 232, 233, 234, 235, 236, 237, 238, 239, 240, 241, 242, 243, 244, 245, 246, 247, 248, 249, 250, 251, 252, 253, 254, 255, 256, 257, 258, 259, 260, 261, 262, 263, 264, 265, 266, 267, 268, 269, 270, 271, 272, 273, 274, 275, 276, 277, 278, 279, 280, 281, 282, 283, 284, 285, 286, 287, 288, 289, 290, 291, 292, 293, 294, 295, 296, 297, 298, 299, 300, 301, 302, 303, 304, 305, 306, 307, 308, 309, 310, 311, 312, 313, 314, 315, 316, 317, 318, 319, 320, 321, 322, 323, 324, 325, 326, 327, 328, 329, 330, 331, 332, 333, 334, 335, 336, 337, 338, 339, 340, 341, 342, 343, 344, 345, 346, 347, 348, 349, 350, 351, 352, 353, 354, 355, 356, 357, 358, 359, 360, 361, 362, 363, 364, 365, 366, 367, 368, 369, 370, 371, 372, 373, 374, 375, 376, 377, 378, 379, 380, 381, 382, 383, 384, 385, 386, 387, 388, 389, 390, 391, 392, 393, 394, 395, 396, 397, 398, 399, 400, 401, 402, 403, 404, 405, 406, 407, 408, 409, 410, 411, 412, 413, 414, 415, 416, 417, 418, 419, 420, 421, 422, 423, 424, 425, 426, 427, 428, 429, 430, 431, 432, 433, 434, 435, 436, 437, 438, 439, 440, 441, 442, 443, 444, 445, 446, 447, 448, 449, 450, 451, 452, 453, 454, 455, 456, 457, 458, 459, 460, 461, 462, 463, 464, 465, 466, 467, 468, 469, 470, 471, 472, 473, 474],
      "AcquisitionTime": ["173853.430000", "173854.920000", "173856.410000", "173857.900000", "173859.390000", "173900.880000", "173902.370000", "173903.860000", "173905.350000", "173906.840000", "173908.330000", "173909.820000", "173911.310000", "173912.800000", "173914.290000", "173915.780000", "173917.270000", "173918.760000", "173920.250000", "173921.740000", "173923.230000", "173924.720000", "173926.210000", "173927.700000", "173929.190000", "173930.680000", "173932.170000", "173933.660000", "173935.150000", "173936.640000", "173938.130000", "173939.620000", "173941.110000", "173942.600000", "173944.090000", "173945.580000", "173947.070000", "173948.560000", "173950.050000", "173951.540000", "173953.030000", "173954.520000", "173956.010000", "173957.500000", "173958.990000", "174000.480000", "174001.970000", "174003.460000", "174004.950000", "174006.440000", "174007.930000", "174009.420000", "174010.910000", "174012.400000", "174013.890000", "174015.380000", "174016.870000", "174018.360000", "174019.850000", "174021.340000", "174022.830000", "174024.320000", "174025.810000", "174027.300000", "174028.790000", "174030.280000", "174031.770000", "174033.260000", "174034.750000", "174036.240000", "174037.730000", "174039.220000", "174040.710000", "174042.200000", "174043.690000", "174045.180000", "174046.670000", "174048.160000", "174049.650000", "174051.140000", "174052.630000", "174054.120000", "174055.610000", "174057.100000", "174058.590000", "174100.080000", "174101.570000", "174103.060000", "174104.550000", "174106.040000", "174107.530000", "174109.020000", "174110.510000", "174112.000000", "174113.490000", "174114.980000", "174116.470000", "174117.960000", "174119.450000", "174120.940000", "174122.430000", "174123.920000", "174125.410000", "174126.900000", "174128.390000", "174129.880000", "174131.370000", "174132.860000", "174134.350000", "174135.840000", "174137.330000", "174138.820000", "174140.310000", "174141.800000", "174143.290000", "174144.780000", "174146.270000", "174147.760000", "174149.250000", "174150.740000", "174152.230000", "174153.720000", "174155.210000", "174156.700000", "174158.190000", "174159.680000", "174201.170000", "174202.660000", "174204.150000", "174205.640000", "174207.130000", "174208.620000", "174210.110000", "174211.600000", "174213.090000", "174214.580000", "174216.070000", "174217.560000", "174219.050000", "174220.540000", "174222.030000", "174223.520000", "174225.010000", "174226.500000", "174227.990000", "174229.480000", "174230.970000", "174232.460000", "174233.950000", "174235.440000", "174236.930000", "174238.420000", "174239.910000", "174241.400000", "174242.890000", "174244.380000", "174245.870000", "174247.360000", "174248.850000", "174250.340000", "174251.830000", "174253.320000", "174254.810000", "174256.300000", "174257.790000", "174259.280000", "174300.770000", "174302.260000", "174303.750000", "174305.240000", "174306.730000", "174308.220000", "174309.710000", "174311.200000", "174312.690000", "174314.180000", "174315.670000", "174317.160000", "174318.650000", "174320.140000", "174321.630000", "174323.120000", "174324.610000", "174326.100000", "174327.590000", "174329.080000", "174330.570000", "174332.060000", "174333.550000", "174335.040000", "174336.530000", "174338.020000", "174339.510000", "174341.000000", "174342.490000", "174343.980000", "174345.470000", "174346.960000", "174348.450000", "174349.940000", "174351.430000", "174352.920000", "174354.410000", "174355.900000", "174357.390000", "174358.880000", "174400.370000", "174401.860000", "174403.350000", "174404.840000", "174406.330000", "174407.820000", "174409.310000", "174410.800000", "174412.290000", "174413.780000", "174415.270000", "174416.760000", "174418.250000", "174419.740000", "174421.230000", "174422.720000", "174424.210000", "174425.700000", "174427.190000", "174428.680000", "174430.170000", "174431.660000", "174433.150000", "174434.640000", "174436.130000", "174437.620000", "174439.110000", "174440.600000", "174442.090000", "174443.580000", "174445.070000", "174446.560000", "174448.050000", "174449.540000", "174451.030000", "174452.520000", "174454.010000", "174455.500000", "174456.990000", "174458.480000", "174459.970000", "174501.460000", "174502.950000", "174504.440000", "174505.930000", "174507.420000", "174508.910000", "174510.400000", "174511.890000", "174513.380000", "174514.870000", "174516.360000", "174517.850000", "174519.340000", "174520.830000", "174522.320000", "174523.810000", "174525.300000", "174526.790000", "174528.280000", "174529.770000", "174531.260000", "174532.750000", "174534.240000", "174535.730000", "174537.220000", "174538.710000", "174540.200000", "174541.690000", "174543.180000", "174544.670000", "174546.160000", "174547.650000", "174549.140000", "174550.630000", "174552.120000", "174553.610000", "174555.100000", "174556.590000", "174558.080000", "174559.570000", "174601.060000", "174602.550000", "174604.040000", "174605.530000", "174607.020000", "174608.510000", "174610.000000", "174611.490000", "174612.980000", "174614.470000", "174615.960000", "174617.450000", "174618.940000", "174620.430000", "174621.920000", "174623.410000", "174624.900000", "174626.390000", "174627.880000", "174629.370000", "174630.860000", "174632.350000", "174633.840000", "174635.330000", "174636.820000", "174638.310000", "174639.800000", "174641.290000", "174642.780000", "174644.270000", "174645.760000", "174647.250000", "174648.740000", "174650.230000", "174651.720000", "174653.210000", "174654.700000", "174656.190000", "174657.680000", "174659.170000", "174700.660000", "174702.150000", "174703.640000", "174705.130000", "174706.620000", "174708.110000", "174709.600000", "174711.090000", "174712.580000", "174714.070000", "174715.560000", "174717.050000", "174718.540000", "174720.030000", "174721.520000", "174723.010000", "174724.500000", "174725.990000", "174727.480000", "174728.970000", "174730.460000", "174731.950000", "174733.440000", "174734.930000", "174736.420000", "174737.910000", "174739.400000", "174740.890000", "174742.380000", "174743.870000", "174745.360000", "174746.850000", "174748.340000", "174749.830000", "174751.320000", "174752.810000", "174754.300000", "174755.790000", "174757.280000", "174758.770000", "174800.260000", "174801.750000", "174803.240000", "174804.730000", "174806.220000", "174807.710000", "174809.200000", "174810.690000", "174812.180000", "174813.670000", "174815.160000", "174816.650000", "174818.140000", "174819.630000", "174821.120000", "174822.610000", "174824.100000", "174825.590000", "174827.080000", "174828.570000", "174830.060000", "174831.550000", "174833.040000", "174834.530000", "174836.020000", "174837.510000", "174839.000000", "174840.490000", "174841.980000", "174843.470000", "174844.960000", "174846.450000", "174847.940000", "174849.430000", "174850.920000", "174852.410000", "174853.900000", "174855.390000", "174856.880000", "174858.370000", "174859.860000", "174901.350000", "174902.840000", "174904.330000", "174905.820000", "174907.310000", "174908.800000", "174910.290000", "174911.780000", "174913.270000", "174914.760000", "174916.250000", "174917.740000", "174919.230000", "174920.720000", "174922.210000", "174923.700000", "174925.190000", "174926.680000", "174928.170000", "174929.660000", "174931.150000", "174932.640000", "174934.130000", "174935.620000", "174937.110000", "174938.600000", "174940.090000", "174941.580000", "174943.070000", "174944.560000", "174946.050000", "174947.540000", "174949.030000", "174950.520000", "174952.010000", "174953.500000", "174954.990000", "174956.480000", "174957.970000", "174959.460000", "175000.950000", "175002.440000", "175003.930000", "175005.420000", "175006.910000", "175008.400000", "175009.890000", "175011.380000", "175012.870000", "175014.360000", "175015.850000", "175017.340000", "175018.830000", "175020.320000", "175021.810000", "175023.300000", "175024.790000", "175026.280000", "175027.770000", "175029.260000", "175030.750000", "175032.240000", "175033.730000", "175035.220000", "175036.710000", "175038.200000"],
      "ContentTime": ["174020.409000", "174020.413000", "174020.416000", "174020.420000", "174020.423000", "174020.426000", "174020.430000", "174020.433000", "174020.436000", "174020.440000", "174020.443000", "174020.446000", "174020.450000", "174020.453000", "174020.456000", "174020.459000", "174020.463000", "174020.466000", "174020.469000", "174020.473000", "174020.476000", "174020.479000", "174020.483000", "174020.491000", "174020.495000", "174020.498000", "174020.501000", "174020.504000", "174020.508000", "174020.511000", "174020.514000", "174020.518000", "174020.521000", "174020.524000", "174020.528000", "174020.534000", "174020.537000", "174020.540000", "174040.368000", "174040.372000", "174040.375000", "174040.378000", "174040.382000", "174040.385000", "174040.388000", "174040.391000", "174040.395000", "174040.398000", "174040.402000", "174040.405000", "174040.408000", "174040.411000", "174040.415000", "174040.418000", "174040.421000", "174040.425000", "174040.428000", "174040.431000", "174040.435000", "174100.367000", "174100.371000", "174100.375000", "174100.378000", "174100.381000", "174100.385000", "174100.388000", "174100.391000", "174100.395000", "174100.398000", "174100.401000", "174100.405000", "174100.408000", "174100.411000", "174100.414000", "174100.418000", "174100.421000", "174100.424000", "174100.428000", "174100.431000", "174140.368000", "174140.372000", "174140.375000", "174140.379000", "174140.382000", "174140.385000", "174140.388000", "174140.392000", "174140.395000", "174140.399000", "174140.402000", "174140.405000", "174140.408000", "174140.412000", "174140.415000", "174140.433000", "174140.437000", "174140.440000", "174140.443000", "174140.446000", "174140.450000", "174140.453000", "174140.456000", "174140.460000", "174140.463000", "174140.466000", "174140.470000", "174140.473000", "174140.476000", "174140.480000", "174140.483000", "174140.486000", "174220.368000", "174220.372000", "174220.375000", "174220.379000", "174220.382000", "174220.385000", "174220.389000", "174220.392000", "174220.396000", "174220.399000", "174220.402000", "174220.406000", "174220.409000", "174220.412000", "174220.416000", "174220.419000", "174220.422000", "174220.426000", "174220.429000", "174220.432000", "174220.435000", "174220.439000", "174220.442000", "174220.445000", "174220.449000", "174220.452000", "174220.455000", "174300.367000", "174300.371000", "174300.374000", "174300.378000", "174300.381000", "174300.384000", "174300.388000", "174300.391000", "174300.394000", "174300.398000", "174300.401000", "174300.404000", "174300.408000", "174300.411000", "174300.414000", "174300.418000", "174300.421000", "174300.424000", "174300.428000", "174300.431000", "174300.434000", "174300.438000", "174300.441000", "174300.444000", "174300.448000", "174300.451000", "174300.454000", "174340.368000", "174340.372000", "174340.375000", "174340.379000", "174340.382000", "174340.386000", "174340.389000", "174340.393000", "174340.396000", "174340.399000", "174340.403000", "174340.406000", "174340.409000", "174340.413000", "174340.416000", "174340.419000", "174340.423000", "174340.426000", "174340.429000", "174340.432000", "174340.436000", "174340.439000", "174340.442000", "174340.446000", "174340.449000", "174340.452000", "174420.368000", "174420.372000", "174420.375000", "174420.379000", "174420.382000", "174420.385000", "174420.389000", "174420.392000", "174420.395000", "174420.399000", "174420.402000", "174420.405000", "174420.409000", "174420.412000", "174420.415000", "174420.418000", "174420.422000", "174420.425000", "174420.428000", "174420.432000", "174420.435000", "174420.438000", "174420.442000", "174420.445000", "174420.448000", "174420.452000", "174420.455000", "174500.368000", "174500.372000", "174500.375000", "174500.378000", "174500.382000", "174500.385000", "174500.389000", "174500.392000", "174500.395000", "174500.399000", "174500.402000", "174500.405000", "174500.409000", "174500.412000", "174500.415000", "174500.419000", "174500.422000", "174500.425000", "174500.429000", "174500.432000", "174500.435000", "174500.438000", "174500.442000", "174500.445000", "174500.449000", "174500.452000", "174500.455000", "174540.367000", "174540.371000", "174540.374000", "174540.377000", "174540.381000", "174540.384000", "174540.387000", "174540.391000", "174540.394000", "174540.398000", "174540.401000", "174540.405000", "174540.408000", "174540.411000", "174540.415000", "174540.418000", "174540.421000", "174540.425000", "174540.428000", "174540.431000", "174540.435000", "174540.438000", "174540.441000", "174540.445000", "174540.448000", "174540.451000", "174540.454000", "174620.368000", "174620.372000", "174620.376000", "174620.379000", "174620.382000", "174620.386000", "174620.389000", "174620.392000", "174620.408000", "174620.412000", "174620.415000", "174620.419000", "174620.422000", "174620.425000", "174620.429000", "174620.432000", "174620.435000", "174620.439000", "174620.442000", "174620.445000", "174620.449000", "174620.452000", "174620.455000", "174620.459000", "174620.462000", "174620.465000", "174620.469000", "174700.368000", "174700.372000", "174700.375000", "174700.379000", "174700.389000", "174700.392000", "174700.395000", "174700.399000", "174700.402000", "174700.406000", "174700.409000", "174700.412000", "174700.416000", "174700.419000", "174700.422000", "174700.426000", "174700.429000", "174700.432000", "174700.436000", "174700.439000", "174700.442000", "174700.446000", "174700.449000", "174700.452000", "174700.456000", "174700.459000", "174700.462000", "174740.367000", "174740.371000", "174740.374000", "174740.377000", "174740.381000", "174740.384000", "174740.387000", "174740.391000", "174740.394000", "174740.398000", "174740.401000", "174740.404000", "174740.407000", "174740.411000", "174740.414000", "174740.418000", "174740.421000", "174740.424000", "174740.428000", "174740.431000", "174740.434000", "174740.438000", "174740.441000", "174740.445000", "174740.448000", "174740.451000", "174740.455000", "174820.368000", "174820.372000", "174820.375000", "174820.379000", "174820.382000", "174820.385000", "174820.389000", "174820.392000", "174820.395000", "174820.399000", "174820.402000", "174820.405000", "174820.409000", "174820.412000", "174820.416000", "174820.419000", "174820.422000", "174820.426000", "174820.429000", "174820.432000", "174820.436000", "174820.439000", "174820.456000", "174820.459000", "174820.463000", "174820.466000", "174900.368000", "174900.372000", "174900.375000", "174900.379000", "174900.382000", "174900.385000", "174900.389000", "174900.392000", "174900.395000", "174900.399000", "174900.402000", "174900.405000", "174900.409000", "174900.412000", "174900.415000", "174900.419000", "174900.422000", "174900.425000", "174900.429000", "174900.432000", "174900.435000", "174900.439000", "174900.442000", "174900.445000", "174900.449000", "174900.452000", "174900.455000", "174940.368000", "174940.372000", "174940.375000", "174940.379000", "174940.383000", "174940.386000", "174940.389000", "174940.393000", "174940.396000", "174940.399000", "174940.403000", "174940.406000", "174940.409000", "174940.413000", "174940.416000", "174940.420000", "174940.423000", "174940.426000", "174940.430000", "174940.433000", "174940.436000", "174940.440000", "174940.443000", "174940.446000", "174940.449000", "174940.453000", "174940.456000", "175020.367000", "175020.371000", "175020.374000", "175020.377000", "175020.381000", "175020.384000", "175020.387000", "175020.391000", "175020.394000", "175020.398000", "175020.401000", "175020.404000", "175020.408000", "175020.411000", "175020.414000", "175020.418000", "175020.421000", "175020.424000", "175020.428000", "175020.431000", "175020.434000", "175020.438000", "175020.441000", "175020.444000", "175020.447000", "175020.451000", "175020.454000", "175040.679000", "175040.682000", "175040.686000", "175040.689000", "175040.692000", "175040.696000", "175040.699000", "175040.702000", "175040.706000", "175040.709000", "175040.712000", "175040.716000", "175040.719000", "175040.722000"],
