{
  "AcquisitionMatrixPE": 104,
  "AcquisitionNumber": 1,
  "AcquisitionTime": "18:04:58.307500",
  "BandwidthPerPixelPhaseEncode": 17.17,
  "BaseResolution": 104,
  "BodyPartExamined": "BRAIN",
  "CoilCombinationMethod": "Sum of Squares",
  "ConsistencyInfo": "N4_VE11C_LATEST_20160120",
  "ConversionSoftware": "dcm2niix",
  "ConversionSoftwareVersion": "v1.0.20211006",
  "DerivedVendorReportedEchoSpacing": 0.000560011,
  "DeviceSerialNumber": "167006",
  "DwellTime": 2.1e-06,
  "EchoTime": 0.037,
  "EchoTime1": 0.037,
  "EchoTime2": 0.001,
  "EchoTrainLength": 104,
  "EffectiveEchoSpacing": 0.000560011,
  "FlipAngle": 52,
  "HeudiconvVersion": "0.11.3.post9+gc939bf8",
  "ImageComments": "Unaliased MB4/PE3/LB",
  "ImageOrientationPatientDICOM": [0.999534, -0.0304006, -0.00286107, 0.0273958, 0.934213, -0.355663],
  "ImageOrientationText": "Tra>Cor(-20.8)>Sag(-0.8)",
  "ImageType": [
    "ORIGINAL",
    "PRIMARY",
    "P",
    "MB",
    "ND",
    "MOSAIC",
    "PHASE"
],
  "ImagingFrequency": 123.26,
  "InPlanePhaseEncodingDirectionDICOM": "COL",
  "InstitutionAddress": "Chemin Queen-Mary 4565,Montreal,District,CA,H3W 1W5",
  "InstitutionName": "IUGM",
  "InstitutionalDepartmentName": "Department",
  "MRAcquisitionType": "2D",
  "MagneticFieldStrength": 3,
  "Manufacturer": "Siemens",
  "ManufacturersModelName": "Prisma_fit",
  "MatrixCoilMode": "SENSE",
  "Modality": "MR",
  "MultibandAccelerationFactor": 4,
  "PartialFourier": 1,
  "PatientPosition": "HFS",
  "PercentPhaseFOV": 100,
  "PercentSampling": 100,
  "PhaseEncodingDirection": "j",
  "PhaseEncodingSteps": 104,
  "PhaseResolution": 1,
  "PixelBandwidth": 2290,
  "ProcedureStepDescription": "games^mario",
  "ProtocolName": "func_task-mario_run-04",
  "PulseSequenceDetails": "%CustomerSeq%\\cmrr_mbep2d_bold",
  "ReceiveCoilActiveElements": "HC1-7;NC1,2",
  "ReceiveCoilName": "HeadNeck_64",
  "ReconMatrixPE": 104,
  "RepetitionTime": 1.49,
  "SAR": 0.0796904,
  "ScanOptions": "FS",
  "ScanningSequence": "EP",
  "SequenceName": "epfid2d1_104",
  "SequenceVariant": "SK\\SS",
  "SeriesDescription": "func_task-mario_run-04",
  "SeriesNumber": 20,
  "ShimSetting": [597, -7261, -8808, 422, 25, -334, 2, 47],
  "SliceThickness": 2,
  "SliceTiming": [0, 0.7825, 0.0975, 0.8825, 0.195, 0.98, 0.295, 1.0775, 0.3925, 1.175, 0.49, 1.2725, 0.5875, 1.3725, 0.685, 0, 0.7825, 0.0975, 0.8825, 0.195, 0.98, 0.295, 1.0775, 0.3925, 1.175, 0.49, 1.2725, 0.5875, 1.3725, 0.685, 0, 0.7825, 0.0975, 0.8825, 0.195, 0.98, 0.295, 1.0775, 0.3925, 1.175, 0.49, 1.2725, 0.5875, 1.3725, 0.685, 0, 0.7825, 0.0975, 0.8825, 0.195, 0.98, 0.295, 1.0775, 0.3925, 1.175, 0.49, 1.2725, 0.5875, 1.3725, 0.685],
  "SoftwareVersions": "syngo MR E11",
  "SpacingBetweenSlices": 2,
  "StationName": "MRC35049",
  "TaskName": "mario",
  "TotalReadoutTime": 0.0576811,
  "TxRefAmp": 302.015,
  "WipMemBlock": "d14a2fe4-102a-42a0-892e-e75f1cf675ba||Sequence: R017 ve11c/master r/75a17815+; Jun 28 2022 16:32:11 by eja",
  "dcmmeta_affine": [
    [-1.9990674257278442, 0.054791610687971115, -0.026970412582159042, 101.65910339355469],
    [0.06080115959048271, 1.8684253692626953, -0.7108376026153564, -64.67285919189453],
    [-0.005722132511436939, 0.7113260626792908, 1.8692197799682617, -60.42997741699219],
    [0.0, 0.0, 0.0, 1.0]
],
  "dcmmeta_reorient_transform": [
    [0.0, -1.0, 0.0, 103.0],
    [1.0, 0.0, 0.0, 0.0],
    [0.0, 0.0, 1.0, 0.0],
    [0.0, 0.0, 0.0, 1.0]
],
  "dcmmeta_shape": [104, 104, 60, 435],
  "dcmmeta_slice_dim": 2,
  "dcmmeta_version": 0.6,
  "global": {
    "const": {
      "AcquisitionMatrix": [104, 0, 0, 104],
      "AngioFlag": "N",
      "BitsAllocated": 16,
      "BitsStored": 16,
      "BodyPartExamined": "BRAIN",
      "Columns": 832,
      "EchoNumbers": 1,
      "EchoTime": 37.0,
      "EchoTrainLength": 104,
      "FlipAngle": 52.0,
      "HighBit": 15,
      "ImageOrientationPatient": [0.99953370082334, -0.0304005792384, -0.0028610662978, 0.02739580500677, 0.9342126551798, -0.3556630213699],
      "ImagePositionPatient": [-854.90732152598, -785.75013534245, 273.84214126606],
      "ImageType": [
        "ORIGINAL",
        "PRIMARY",
        "P",
        "MB",
        "ND",
        "MOSAIC"
],
      "ImagedNucleus": "1H",
      "ImagingFrequency": 123.260101,
      "InPlanePhaseEncodingDirection": "COL",
      "LargestImagePixelValue": 4095,
      "MRAcquisitionType": "2D",
      "MagneticFieldStrength": 3.0,
      "Manufacturer": "SIEMENS",
      "ManufacturerModelName": "Prisma_fit",
      "Modality": "MR",
      "NumberOfAverages": 1.0,
      "NumberOfPhaseEncodingSteps": 104,
      "PercentPhaseFieldOfView": 100.0,
      "PercentSampling": 100.0,
      "PerformedProcedureStepStartTime": "170915.475000",
      "PhotometricInterpretation": "MONOCHROME2",
      "PixelBandwidth": 2290.0,
      "PixelRepresentation": 0,
      "PixelSpacing": [2.0, 2.0],
      "ProtocolName": "func_task-mario_run-04",
      "RepetitionTime": 1490.0,
      "RescaleIntercept": -4096.0,
      "RescaleSlope": 2.0,
      "RescaleType": "US",
      "Rows": 832,
      "SAR": 0.07969043030064,
      "SamplesPerPixel": 1,
      "ScanOptions": "FS",
      "ScanningSequence": "EP",
      "SequenceName": "epfid2d1_104",
      "SequenceVariant": [
        "SK",
        "SS"
],
      "SeriesDescription": "func_task-mario_run-04",
      "SeriesNumber": 20,
      "SeriesTime": "180615.815000",
      "SliceLocation": -34.863396578645,
      "SliceThickness": 2.0,
      "SmallestImagePixelValue": 0,
      "SoftwareVersions": "syngo MR E11",
      "SpacingBetweenSlices": 2.0000000323959,
      "SpecificCharacterSet": "ISO_IR 100",
      "StudyID": "1",
      "StudyTime": "170915.324000",
      "TransmitCoilName": "Body",
      "VariableFlipAngleFlag": "N",
      "WindowCenterWidthExplanation": "Algo1",
      "dBdt": 0.0},
    "slices": {}
  },
  "time": {
    "samples": {
      "AcquisitionNumber": [1, 2, 3, 4, 5, 6, 7, 8, 9, 10, 11, 12, 13, 14, 15, 16, 17, 18, 19, 20, 21, 22, 23, 24, 25, 26, 27, 28, 29, 30, 31, 32, 33, 34, 35, 36, 37, 38, 39, 40, 41, 42, 43, 44, 45, 46, 47, 48, 49, 50, 51, 52, 53, 54, 55, 56, 57, 58, 59, 60, 61, 62, 63, 64, 65, 66, 67, 68, 69, 70, 71, 72, 73, 74, 75, 76, 77, 78, 79, 80, 81, 82, 83, 84, 85, 86, 87, 88, 89, 90, 91, 92, 93, 94, 95, 96, 97, 98, 99, 100, 101, 102, 103, 104, 105, 106, 107, 108, 109, 110, 111, 112, 113, 114, 115, 116, 117, 118, 119, 120, 121, 122, 123, 124, 125, 126, 127, 128, 129, 130, 131, 132, 133, 134, 135, 136, 137, 138, 139, 140, 141, 142, 143, 144, 145, 146, 147, 148, 149, 150, 151, 152, 153, 154, 155, 156, 157, 158, 159, 160, 161, 162, 163, 164, 165, 166, 167, 168, 169, 170, 171, 172, 173, 174, 175, 176, 177, 178, 179, 180, 181, 182, 183, 184, 185, 186, 187, 188, 189, 190, 191, 192, 193, 194, 195, 196, 197, 198, 199, 200, 201, 202, 203, 204, 205, 206, 207, 208, 209, 210, 211, 212, 213, 214, 215, 216, 217, 218, 219, 220, 221, 222, 223, 224, 225, 226, 227, 228, 229, 230, 231, 232, 233, 234, 235, 236, 237, 238, 239, 240, 241, 242, 243, 244, 245, 246, 247, 248, 249, 250, 251, 252, 253, 254, 255, 256, 257, 258, 259, 260, 261, 262, 263, 264, 265, 266, 267, 268, 269, 270, 271, 272, 273, 274, 275, 276, 277, 278, 279, 280, 281, 282, 283, 284, 285, 286, 287, 288, 289, 290, 291, 292, 293, 294, 295, 296, 297, 298, 299, 300, 301, 302, 303, 304, 305, 306, 307, 308, 309, 310, 311, 312, 313, 314, 315, 316, 317, 318, 319, 320, 321, 322, 323, 324, 325, 326, 327, 328, 329, 330, 331, 332, 333, 334, 335, 336, 337, 338, 339, 340, 341, 342, 343, 344, 345, 346, 347, 348, 349, 350, 351, 352, 353, 354, 355, 356, 357, 358, 359, 360, 361, 362, 363, 364, 365, 366, 367, 368, 369, 370, 371, 372, 373, 374, 375, 376, 377, 378, 379, 380, 381, 382, 383, 384, 385, 386, 387, 388, 389, 390, 391, 392, 393, 394, 395, 396, 397, 398, 399, 400, 401, 402, 403, 404, 405, 406, 407, 408, 409, 410, 411, 412, 413, 414, 415, 416, 417, 418, 419, 420, 421, 422, 423, 424, 425, 426, 427, 428, 429, 430, 431, 432, 433, 434, 435],
      "AcquisitionTime": ["180458.307500", "180459.797500", "180501.287500", "180502.777500", "180504.267500", "180505.757500", "180507.247500", "180508.737500", "180510.227500", "180511.717500", "180513.207500", "180514.697500", "180516.187500", "180517.677500", "180519.167500", "180520.657500", "180522.147500", "180523.637500", "180525.127500", "180526.617500", "180528.107500", "180529.597500", "180531.087500", "180532.577500", "180534.067500", "180535.557500", "180537.047500", "180538.537500", "180540.027500", "180541.517500", "180543.007500", "180544.497500", "180545.987500", "180547.477500", "180548.967500", "180550.457500", "180551.947500", "180553.437500", "180554.927500", "180556.417500", "180557.907500", "180559.397500", "180600.887500", "180602.377500", "180603.867500", "180605.357500", "180606.847500", "180608.337500", "180609.827500", "180611.317500", "180612.807500", "180614.297500", "180615.787500", "180617.277500", "180618.767500", "180620.257500", "180621.747500", "180623.237500", "180624.727500", "180626.217500", "180627.707500", "180629.197500", "180630.687500", "180632.177500", "180633.667500", "180635.157500", "180636.647500", "180638.137500", "180639.627500", "180641.117500", "180642.607500", "180644.097500", "180645.587500", "180647.077500", "180648.567500", "180650.057500", "180651.547500", "180653.037500", "180654.527500", "180656.017500", "180657.507500", "180658.997500", "180700.487500", "180701.977500", "180703.467500", "180704.957500", "180706.447500", "180707.937500", "180709.427500", "180710.917500", "180712.407500", "180713.897500", "180715.387500", "180716.877500", "180718.367500", "180719.857500", "180721.347500", "180722.837500", "180724.327500", "180725.817500", "180727.307500", "180728.797500", "180730.287500", "180731.777500", "180733.267500", "180734.757500", "180736.247500", "180737.737500", "180739.227500", "180740.717500", "180742.207500", "180743.697500", "180745.187500", "180746.677500", "180748.167500", "180749.657500", "180751.147500", "180752.637500", "180754.127500", "180755.617500", "180757.107500", "180758.597500", "180800.087500", "180801.577500", "180803.067500", "180804.557500", "180806.047500", "180807.537500", "180809.027500", "180810.517500", "180812.007500", "180813.497500", "180814.987500", "180816.477500", "180817.967500", "180819.457500", "180820.947500", "180822.437500", "180823.927500", "180825.417500", "180826.907500", "180828.397500", "180829.887500", "180831.377500", "180832.867500", "180834.357500", "180835.847500", "180837.337500", "180838.827500", "180840.317500", "180841.807500", "180843.297500", "180844.787500", "180846.277500", "180847.767500", "180849.257500", "180850.747500", "180852.237500", "180853.727500", "180855.217500", "180856.707500", "180858.197500", "180859.687500", "180901.177500", "180902.667500", "180904.157500", "180905.647500", "180907.137500", "180908.627500", "180910.117500", "180911.607500", "180913.097500", "180914.587500", "180916.077500", "180917.567500", "180919.057500", "180920.547500", "180922.037500", "180923.527500", "180925.017500", "180926.507500", "180927.997500", "180929.487500", "180930.977500", "180932.467500", "180933.957500", "180935.447500", "180936.937500", "180938.427500", "180939.917500", "180941.407500", "180942.897500", "180944.387500", "180945.877500", "180947.367500", "180948.857500", "180950.347500", "180951.837500", "180953.327500", "180954.817500", "180956.307500", "180957.797500", "180959.287500", "181000.777500", "181002.267500", "181003.757500", "181005.247500", "181006.737500", "181008.227500", "181009.717500", "181011.207500", "181012.697500", "181014.187500", "181015.677500", "181017.167500", "181018.657500", "181020.147500", "181021.637500", "181023.127500", "181024.617500", "181026.107500", "181027.597500", "181029.087500", "181030.577500", "181032.067500", "181033.557500", "181035.047500", "181036.537500", "181038.027500", "181039.517500", "181041.007500", "181042.497500", "181043.987500", "181045.477500", "181046.967500", "181048.457500", "181049.947500", "181051.437500", "181052.927500", "181054.417500", "181055.907500", "181057.397500", "181058.887500", "181100.377500", "181101.867500", "181103.357500", "181104.847500", "181106.337500", "181107.827500", "181109.317500", "181110.807500", "181112.297500", "181113.787500", "181115.277500", "181116.767500", "181118.257500", "181119.747500", "181121.237500", "181122.727500", "181124.217500", "181125.707500", "181127.197500", "181128.687500", "181130.177500", "181131.667500", "181133.157500", "181134.647500", "181136.137500", "181137.627500", "181139.117500", "181140.607500", "181142.097500", "181143.587500", "181145.077500", "181146.567500", "181148.057500", "181149.547500", "181151.037500", "181152.527500", "181154.017500", "181155.507500", "181156.997500", "181158.487500", "181159.977500", "181201.467500", "181202.957500", "181204.447500", "181205.937500", "181207.427500", "181208.917500", "181210.407500", "181211.897500", "181213.387500", "181214.877500", "181216.367500", "181217.857500", "181219.347500", "181220.837500", "181222.327500", "181223.817500", "181225.307500", "181226.797500", "181228.287500", "181229.777500", "181231.267500", "181232.757500", "181234.247500", "181235.737500", "181237.227500", "181238.717500", "181240.207500", "181241.697500", "181243.187500", "181244.677500", "181246.167500", "181247.657500", "181249.147500", "181250.637500", "181252.127500", "181253.617500", "181255.107500", "181256.597500", "181258.087500", "181259.577500", "181301.067500", "181302.557500", "181304.047500", "181305.537500", "181307.027500", "181308.517500", "181310.007500", "181311.497500", "181312.987500", "181314.477500", "181315.967500", "181317.457500", "181318.947500", "181320.437500", "181321.927500", "181323.417500", "181324.907500", "181326.397500", "181327.887500", "181329.377500", "181330.867500", "181332.357500", "181333.847500", "181335.337500", "181336.827500", "181338.317500", "181339.807500", "181341.297500", "181342.787500", "181344.277500", "181345.767500", "181347.257500", "181348.747500", "181350.237500", "181351.727500", "181353.217500", "181354.707500", "181356.197500", "181357.687500", "181359.177500", "181400.667500", "181402.157500", "181403.647500", "181405.137500", "181406.627500", "181408.117500", "181409.607500", "181411.097500", "181412.587500", "181414.077500", "181415.567500", "181417.057500", "181418.547500", "181420.037500", "181421.527500", "181423.017500", "181424.507500", "181425.997500", "181427.487500", "181428.977500", "181430.467500", "181431.957500", "181433.447500", "181434.937500", "181436.427500", "181437.917500", "181439.407500", "181440.897500", "181442.387500", "181443.877500", "181445.367500", "181446.857500", "181448.347500", "181449.837500", "181451.327500", "181452.817500", "181454.307500", "181455.797500", "181457.287500", "181458.777500", "181500.267500", "181501.757500", "181503.247500", "181504.737500", "181506.227500", "181507.717500", "181509.207500", "181510.697500", "181512.187500", "181513.677500", "181515.167500", "181516.657500", "181518.147500", "181519.637500", "181521.127500", "181522.617500", "181524.107500", "181525.597500", "181527.087500", "181528.577500", "181530.067500", "181531.557500", "181533.047500", "181534.537500", "181536.027500", "181537.517500", "181539.007500", "181540.497500", "181541.987500", "181543.477500", "181544.967500"],
      "ContentTime": ["180615.817000", "180615.820000", "180615.823000", "180615.825000", "180615.828000", "180615.830000", "180615.833000", "180615.835000", "180615.838000", "180615.840000", "180615.843000", "180615.845000", "180615.848000", "180615.850000", "180615.853000", "180615.855000", "180615.858000", "180615.860000", "180615.863000", "180615.865000", "180615.868000", "180615.870000", "180615.873000", "180615.875000", "180615.878000", "180615.880000", "180615.883000", "180615.885000", "180635.729000", "180635.731000", "180635.734000", "180635.737000", "180635.739000", "180635.742000", "180635.744000", "180635.747000", "180635.749000", "180635.752000", "180635.754000", "180635.757000", "180635.759000", "180635.762000", "180635.765000", "180635.767000", "180635.770000", "180635.772000", "180635.775000", "180635.777000", "180635.780000", "180655.728000", "180655.730000", "180655.733000", "180655.735000", "180655.738000", "180655.741000", "180655.743000", "180655.746000", "180655.748000", "180655.751000", "180655.754000", "180655.756000", "180655.759000", "180655.761000", "180655.764000", "180655.766000", "180655.769000", "180655.771000", "180655.774000", "180655.776000", "180715.738000", "180715.741000", "180715.743000", "180715.746000", "180715.748000", "180715.751000", "180715.753000", "180715.756000", "180715.758000", "180715.761000", "180715.763000", "180715.766000", "180715.768000", "180715.771000", "180715.774000", "180715.776000", "180715.779000", "180715.781000", "180715.784000", "180715.786000", "180755.787000", "180755.789000", "180755.792000", "180755.794000", "180755.797000", "180755.799000", "180755.802000", "180755.804000", "180755.807000", "180755.809000", "180755.812000", "180755.814000", "180755.817000", "180755.819000", "180755.822000", "180755.824000", "180755.827000", "180755.829000", "180755.832000", "180755.835000", "180755.837000", "180755.840000", "180755.842000", "180755.845000", "180755.847000", "180755.850000", "180755.852000", "180755.855000", "180755.857000", "180836.222000", "180836.225000", "180836.227000", "180836.230000", "180836.232000", "180836.235000", "180836.237000", "180836.240000", "180836.242000", "180836.245000", "180836.247000", "180836.250000", "180836.252000", "180836.255000", "180836.257000", "180836.260000", "180836.262000", "180836.265000", "180836.267000", "180836.270000", "180836.272000", "180836.275000", "180836.277000", "180836.280000", "180836.282000", "180836.285000", "180836.287000", "180915.790000", "180915.793000", "180915.795000", "180915.798000", "180915.800000", "180915.803000", "180915.805000", "180915.808000", "180915.810000", "180915.813000", "180915.815000", "180915.818000", "180915.820000", "180915.823000", "180915.825000", "180915.827000", "180915.830000", "180915.832000", "180915.835000", "180915.837000", "180915.840000", "180915.842000", "180915.845000", "180915.847000", "180915.850000", "180915.852000", "180915.855000", "180955.775000", "180955.778000", "180955.781000", "180955.783000", "180955.786000", "180955.788000", "180955.791000", "180955.793000", "180955.796000", "180955.798000", "180955.801000", "180955.803000", "180955.806000", "180955.808000", "180955.811000", "180955.813000", "180955.816000", "180955.818000", "180955.821000", "180955.823000", "180955.826000", "180955.828000", "180955.831000", "180955.833000", "180955.836000", "180955.838000", "181035.766000", "181035.769000", "181035.771000", "181035.775000", "181035.778000", "181035.780000", "181035.783000", "181035.785000", "181035.787000", "181035.790000", "181035.792000", "181035.795000", "181035.797000", "181035.800000", "181035.802000", "181035.805000", "181035.807000", "181035.810000", "181035.812000", "181035.815000", "181035.817000", "181035.820000", "181035.822000", "181035.825000", "181035.827000", "181035.831000", "181035.833000", "181115.751000", "181115.754000", "181115.756000", "181115.759000", "181115.761000", "181115.764000", "181115.766000", "181115.769000", "181115.771000", "181115.780000", "181115.783000", "181115.785000", "181115.788000", "181115.791000", "181115.793000", "181115.796000", "181115.798000", "181115.801000", "181115.803000", "181115.806000", "181115.808000", "181115.811000", "181115.813000", "181115.816000", "181115.818000", "181115.821000", "181115.823000", "181155.758000", "181155.761000", "181155.764000", "181155.766000", "181155.769000", "181155.771000", "181155.774000", "181155.776000", "181155.779000", "181155.781000", "181155.784000", "181155.787000", "181155.789000", "181155.792000", "181155.794000", "181155.797000", "181155.799000", "181155.802000", "181155.805000", "181155.807000", "181155.810000", "181155.812000", "181155.815000", "181155.817000", "181155.820000", "181155.822000", "181155.825000", "181235.767000", "181235.770000", "181235.773000", "181235.775000", "181235.778000", "181235.780000", "181235.783000", "181235.785000", "181235.788000", "181235.790000", "181235.793000", "181235.795000", "181235.798000", "181235.800000", "181235.803000", "181235.805000", "181235.808000", "181235.810000", "181235.813000", "181235.815000", "181235.818000", "181235.820000", "181235.823000", "181235.825000", "181235.828000", "181235.830000", "181235.833000", "181315.741000", "181315.744000", "181315.746000", "181315.749000", "181315.751000", "181315.754000", "181315.756000", "181315.759000", "181315.761000", "181315.764000", "181315.766000", "181315.769000", "181315.771000", "181315.774000", "181315.776000", "181315.779000", "181315.781000", "181315.784000", "181315.786000", "181315.789000", "181315.791000", "181315.794000", "181315.796000", "181315.799000", "181315.801000", "181315.804000", "181315.806000", "181335.694000", "181335.696000", "181335.699000", "181335.702000", "181335.713000", "181335.715000", "181335.718000", "181335.720000", "181335.723000", "181335.725000", "181335.728000", "181335.730000", "181335.733000", "181415.759000", "181415.762000", "181415.764000", "181415.767000", "181415.791000", "181415.793000", "181415.796000", "181415.798000", "181415.801000", "181415.803000", "181415.806000", "181415.808000", "181415.811000", "181415.813000", "181415.816000", "181415.818000", "181415.821000", "181415.823000", "181415.826000", "181415.828000", "181415.831000", "181415.833000", "181415.836000", "181415.838000", "181415.841000", "181415.843000", "181415.846000", "181455.768000", "181455.771000", "181455.774000", "181455.776000", "181455.779000", "181455.781000", "181455.784000", "181455.786000", "181455.789000", "181455.791000", "181455.794000", "181455.796000", "181455.799000", "181455.801000", "181455.804000", "181455.806000", "181455.809000", "181455.811000", "181455.814000", "181455.816000", "181455.819000", "181455.821000", "181455.824000", "181455.826000", "181455.829000", "181455.831000", "181455.834000", "181535.758000", "181535.761000", "181535.763000", "181535.766000", "181535.768000", "181535.771000", "181535.773000", "181535.776000", "181535.778000", "181535.781000", "181535.783000", "181535.786000", "181535.788000", "181535.791000", "181535.793000", "181535.796000", "181535.798000", "181535.801000", "181535.803000", "181535.806000", "181535.808000", "181535.811000", "181535.813000", "181535.816000", "181535.818000", "181535.821000", "181535.823000", "181548.681000", "181548.684000", "181548.687000", "181548.689000", "181548.692000", "181548.694000", "181548.697000", "181548.699000"],
