{
  "AcquisitionMatrixPE": 104,
  "AcquisitionNumber": 1,
  "AcquisitionTime": "18:17:1.902500",
  "BandwidthPerPixelPhaseEncode": 17.17,
  "BaseResolution": 104,
  "BodyPartExamined": "BRAIN",
  "CoilCombinationMethod": "Sum of Squares",
  "ConsistencyInfo": "N4_VE11C_LATEST_20160120",
  "ConversionSoftware": "dcm2niix",
  "ConversionSoftwareVersion": "v1.0.20211006",
  "DerivedVendorReportedEchoSpacing": 0.000560011,
  "DeviceSerialNumber": "167006",
  "DwellTime": 2.1e-06,
  "EchoTime": 0.037,
  "EchoTime1": 0.037,
  "EchoTime2": 0.001,
  "EchoTrainLength": 104,
  "EffectiveEchoSpacing": 0.000560011,
  "FlipAngle": 52,
  "HeudiconvVersion": "0.11.3.post9+gc939bf8",
  "ImageComments": "Unaliased MB4/PE3/LB",
  "ImageOrientationPatientDICOM": [0.999534, -0.0304006, -0.00286107, 0.0273958, 0.934213, -0.355663],
  "ImageOrientationText": "Tra>Cor(-20.8)>Sag(-0.8)",
  "ImageType": [
    "ORIGINAL",
    "PRIMARY",
    "P",
    "MB",
    "ND",
    "MOSAIC",
    "PHASE"
],
  "ImagingFrequency": 123.26,
  "InPlanePhaseEncodingDirectionDICOM": "COL",
  "InstitutionAddress": "Chemin Queen-Mary 4565,Montreal,District,CA,H3W 1W5",
  "InstitutionName": "IUGM",
  "InstitutionalDepartmentName": "Department",
  "MRAcquisitionType": "2D",
  "MagneticFieldStrength": 3,
  "Manufacturer": "Siemens",
  "ManufacturersModelName": "Prisma_fit",
  "MatrixCoilMode": "SENSE",
  "Modality": "MR",
  "MultibandAccelerationFactor": 4,
  "PartialFourier": 1,
  "PatientPosition": "HFS",
  "PercentPhaseFOV": 100,
  "PercentSampling": 100,
  "PhaseEncodingDirection": "j",
  "PhaseEncodingSteps": 104,
  "PhaseResolution": 1,
  "PixelBandwidth": 2290,
  "ProcedureStepDescription": "games^mario",
  "ProtocolName": "func_task-mario_run-05",
  "PulseSequenceDetails": "%CustomerSeq%\\cmrr_mbep2d_bold",
  "ReceiveCoilActiveElements": "HC1-7;NC1,2",
  "ReceiveCoilName": "HeadNeck_64",
  "ReconMatrixPE": 104,
  "RepetitionTime": 1.49,
  "SAR": 0.0796904,
  "ScanOptions": "FS",
  "ScanningSequence": "EP",
  "SequenceName": "epfid2d1_104",
  "SequenceVariant": "SK\\SS",
  "SeriesDescription": "func_task-mario_run-05",
  "SeriesNumber": 23,
  "ShimSetting": [597, -7261, -8808, 422, 25, -334, 2, 47],
  "SliceThickness": 2,
  "SliceTiming": [0, 0.785, 0.1, 0.8825, 0.1975, 0.98, 0.295, 1.08, 0.3925, 1.1775, 0.49, 1.275, 0.59, 1.3725, 0.6875, 0, 0.785, 0.1, 0.8825, 0.1975, 0.98, 0.295, 1.08, 0.3925, 1.1775, 0.49, 1.275, 0.59, 1.3725, 0.6875, 0, 0.785, 0.1, 0.8825, 0.1975, 0.98, 0.295, 1.08, 0.3925, 1.1775, 0.49, 1.275, 0.59, 1.3725, 0.6875, 0, 0.785, 0.1, 0.8825, 0.1975, 0.98, 0.295, 1.08, 0.3925, 1.1775, 0.49, 1.275, 0.59, 1.3725, 0.6875],
  "SoftwareVersions": "syngo MR E11",
  "SpacingBetweenSlices": 2,
  "StationName": "MRC35049",
  "TaskName": "mario",
  "TotalReadoutTime": 0.0576811,
  "TxRefAmp": 302.015,
  "WipMemBlock": "5df985a3-2313-4654-ab9e-990ed13b14e6||Sequence: R017 ve11c/master r/75a17815+; Jun 28 2022 16:32:11 by eja",
  "dcmmeta_affine": [
    [-1.9990674257278442, 0.054791610687971115, -0.026970412582159042, 101.65910339355469],
    [0.06080115959048271, 1.8684253692626953, -0.7108376026153564, -64.67285919189453],
    [-0.005722132511436939, 0.7113260626792908, 1.8692197799682617, -60.42997741699219],
    [0.0, 0.0, 0.0, 1.0]
],
  "dcmmeta_reorient_transform": [
    [0.0, -1.0, 0.0, 103.0],
    [1.0, 0.0, 0.0, 0.0],
    [0.0, 0.0, 1.0, 0.0],
    [0.0, 0.0, 0.0, 1.0]
],
  "dcmmeta_shape": [104, 104, 60, 491],
  "dcmmeta_slice_dim": 2,
  "dcmmeta_version": 0.6,
  "global": {
    "const": {
      "AcquisitionMatrix": [104, 0, 0, 104],
      "AngioFlag": "N",
      "BitsAllocated": 16,
      "BitsStored": 16,
      "BodyPartExamined": "BRAIN",
      "Columns": 832,
      "EchoNumbers": 1,
      "EchoTime": 37.0,
      "EchoTrainLength": 104,
      "FlipAngle": 52.0,
      "HighBit": 15,
      "ImageOrientationPatient": [0.99953370082334, -0.0304005792384, -0.0028610662978, 0.02739580500677, 0.9342126551798, -0.3556630213699],
      "ImagePositionPatient": [-854.90732152598, -785.75013534245, 273.84214126606],
      "ImageType": [
        "ORIGINAL",
        "PRIMARY",
        "P",
        "MB",
        "ND",
        "MOSAIC"
],
      "ImagedNucleus": "1H",
      "ImagingFrequency": 123.260105,
      "InPlanePhaseEncodingDirection": "COL",
      "LargestImagePixelValue": 4095,
      "MRAcquisitionType": "2D",
      "MagneticFieldStrength": 3.0,
      "Manufacturer": "SIEMENS",
      "ManufacturerModelName": "Prisma_fit",
      "Modality": "MR",
      "NumberOfAverages": 1.0,
      "NumberOfPhaseEncodingSteps": 104,
      "PercentPhaseFieldOfView": 100.0,
      "PercentSampling": 100.0,
      "PerformedProcedureStepStartTime": "170915.475000",
      "PhotometricInterpretation": "MONOCHROME2",
      "PixelBandwidth": 2290.0,
      "PixelRepresentation": 0,
      "PixelSpacing": [2.0, 2.0],
      "ProtocolName": "func_task-mario_run-05",
      "RepetitionTime": 1490.0,
      "RescaleIntercept": -4096.0,
      "RescaleSlope": 2.0,
      "RescaleType": "US",
      "Rows": 832,
      "SAR": 0.07969043030064,
      "SamplesPerPixel": 1,
      "ScanOptions": "FS",
      "ScanningSequence": "EP",
      "SequenceName": "epfid2d1_104",
      "SequenceVariant": [
        "SK",
        "SS"
],
      "SeriesDescription": "func_task-mario_run-05",
      "SeriesNumber": 23,
      "SeriesTime": "181820.545000",
      "SliceLocation": -34.863396578645,
      "SliceThickness": 2.0,
      "SmallestImagePixelValue": 0,
      "SoftwareVersions": "syngo MR E11",
      "SpacingBetweenSlices": 2.0000000323959,
      "SpecificCharacterSet": "ISO_IR 100",
      "StudyID": "1",
      "StudyTime": "170915.324000",
      "TransmitCoilName": "Body",
      "VariableFlipAngleFlag": "N",
      "WindowCenterWidthExplanation": "Algo1",
      "dBdt": 0.0},
    "slices": {}
  },
  "time": {
    "samples": {
      "AcquisitionNumber": [1, 2, 3, 4, 5, 6, 7, 8, 9, 10, 11, 12, 13, 14, 15, 16, 17, 18, 19, 20, 21, 22, 23, 24, 25, 26, 27, 28, 29, 30, 31, 32, 33, 34, 35, 36, 37, 38, 39, 40, 41, 42, 43, 44, 45, 46, 47, 48, 49, 50, 51, 52, 53, 54, 55, 56, 57, 58, 59, 60, 61, 62, 63, 64, 65, 66, 67, 68, 69, 70, 71, 72, 73, 74, 75, 76, 77, 78, 79, 80, 81, 82, 83, 84, 85, 86, 87, 88, 89, 90, 91, 92, 93, 94, 95, 96, 97, 98, 99, 100, 101, 102, 103, 104, 105, 106, 107, 108, 109, 110, 111, 112, 113, 114, 115, 116, 117, 118, 119, 120, 121, 122, 123, 124, 125, 126, 127, 128, 129, 130, 131, 132, 133, 134, 135, 136, 137, 138, 139, 140, 141, 142, 143, 144, 145, 146, 147, 148, 149, 150, 151, 152, 153, 154, 155, 156, 157, 158, 159, 160, 161, 162, 163, 164, 165, 166, 167, 168, 169, 170, 171, 172, 173, 174, 175, 176, 177, 178, 179, 180, 181, 182, 183, 184, 185, 186, 187, 188, 189, 190, 191, 192, 193, 194, 195, 196, 197, 198, 199, 200, 201, 202, 203, 204, 205, 206, 207, 208, 209, 210, 211, 212, 213, 214, 215, 216, 217, 218, 219, 220, 221, 222, 223, 224, 225, 226, 227, 228, 229, 230, 231, 232, 233, 234, 235, 236, 237, 238, 239, 240, 241, 242, 243, 244, 245, 246, 247, 248, 249, 250, 251, 252, 253, 254, 255, 256, 257, 258, 259, 260, 261, 262, 263, 264, 265, 266, 267, 268, 269, 270, 271, 272, 273, 274, 275, 276, 277, 278, 279, 280, 281, 282, 283, 284, 285, 286, 287, 288, 289, 290, 291, 292, 293, 294, 295, 296, 297, 298, 299, 300, 301, 302, 303, 304, 305, 306, 307, 308, 309, 310, 311, 312, 313, 314, 315, 316, 317, 318, 319, 320, 321, 322, 323, 324, 325, 326, 327, 328, 329, 330, 331, 332, 333, 334, 335, 336, 337, 338, 339, 340, 341, 342, 343, 344, 345, 346, 347, 348, 349, 350, 351, 352, 353, 354, 355, 356, 357, 358, 359, 360, 361, 362, 363, 364, 365, 366, 367, 368, 369, 370, 371, 372, 373, 374, 375, 376, 377, 378, 379, 380, 381, 382, 383, 384, 385, 386, 387, 388, 389, 390, 391, 392, 393, 394, 395, 396, 397, 398, 399, 400, 401, 402, 403, 404, 405, 406, 407, 408, 409, 410, 411, 412, 413, 414, 415, 416, 417, 418, 419, 420, 421, 422, 423, 424, 425, 426, 427, 428, 429, 430, 431, 432, 433, 434, 435, 436, 437, 438, 439, 440, 441, 442, 443, 444, 445, 446, 447, 448, 449, 450, 451, 452, 453, 454, 455, 456, 457, 458, 459, 460, 461, 462, 463, 464, 465, 466, 467, 468, 469, 470, 471, 472, 473, 474, 475, 476, 477, 478, 479, 480, 481, 482, 483, 484, 485, 486, 487, 488, 489, 490, 491],
      "AcquisitionTime": ["181701.902500", "181703.392500", "181704.882500", "181706.372500", "181707.862500", "181709.352500", "181710.842500", "181712.332500", "181713.822500", "181715.312500", "181716.802500", "181718.292500", "181719.782500", "181721.272500", "181722.762500", "181724.252500", "181725.742500", "181727.232500", "181728.722500", "181730.212500", "181731.702500", "181733.192500", "181734.682500", "181736.172500", "181737.662500", "181739.152500", "181740.642500", "181742.132500", "181743.622500", "181745.112500", "181746.602500", "181748.092500", "181749.582500", "181751.072500", "181752.562500", "181754.052500", "181755.542500", "181757.032500", "181758.522500", "181800.012500", "181801.502500", "181802.992500", "181804.482500", "181805.972500", "181807.462500", "181808.952500", "181810.442500", "181811.932500", "181813.422500", "181814.912500", "181816.402500", "181817.892500", "181819.382500", "181820.872500", "181822.362500", "181823.852500", "181825.342500", "181826.832500", "181828.322500", "181829.812500", "181831.302500", "181832.792500", "181834.282500", "181835.772500", "181837.262500", "181838.752500", "181840.242500", "181841.732500", "181843.222500", "181844.712500", "181846.202500", "181847.692500", "181849.182500", "181850.672500", "181852.162500", "181853.652500", "181855.142500", "181856.632500", "181858.122500", "181859.612500", "181901.102500", "181902.592500", "181904.082500", "181905.572500", "181907.062500", "181908.552500", "181910.042500", "181911.532500", "181913.022500", "181914.512500", "181916.002500", "181917.492500", "181918.982500", "181920.472500", "181921.962500", "181923.452500", "181924.942500", "181926.432500", "181927.922500", "181929.412500", "181930.902500", "181932.392500", "181933.882500", "181935.372500", "181936.862500", "181938.352500", "181939.842500", "181941.332500", "181942.822500", "181944.312500", "181945.802500", "181947.292500", "181948.782500", "181950.272500", "181951.762500", "181953.252500", "181954.742500", "181956.232500", "181957.722500", "181959.212500", "182000.702500", "182002.192500", "182003.682500", "182005.172500", "182006.662500", "182008.152500", "182009.642500", "182011.132500", "182012.622500", "182014.112500", "182015.602500", "182017.092500", "182018.582500", "182020.072500", "182021.562500", "182023.052500", "182024.542500", "182026.032500", "182027.522500", "182029.012500", "182030.502500", "182031.992500", "182033.482500", "182034.972500", "182036.462500", "182037.952500", "182039.442500", "182040.932500", "182042.422500", "182043.912500", "182045.402500", "182046.892500", "182048.382500", "182049.872500", "182051.362500", "182052.852500", "182054.342500", "182055.832500", "182057.322500", "182058.812500", "182100.302500", "182101.792500", "182103.282500", "182104.772500", "182106.262500", "182107.752500", "182109.242500", "182110.732500", "182112.222500", "182113.712500", "182115.202500", "182116.692500", "182118.182500", "182119.672500", "182121.162500", "182122.652500", "182124.142500", "182125.632500", "182127.122500", "182128.612500", "182130.102500", "182131.592500", "182133.082500", "182134.572500", "182136.062500", "182137.552500", "182139.042500", "182140.532500", "182142.022500", "182143.512500", "182145.002500", "182146.492500", "182147.982500", "182149.472500", "182150.962500", "182152.452500", "182153.942500", "182155.432500", "182156.922500", "182158.412500", "182159.902500", "182201.392500", "182202.882500", "182204.372500", "182205.862500", "182207.352500", "182208.842500", "182210.332500", "182211.822500", "182213.312500", "182214.802500", "182216.292500", "182217.782500", "182219.272500", "182220.762500", "182222.252500", "182223.742500", "182225.232500", "182226.722500", "182228.212500", "182229.702500", "182231.192500", "182232.682500", "182234.172500", "182235.662500", "182237.152500", "182238.642500", "182240.132500", "182241.622500", "182243.112500", "182244.602500", "182246.092500", "182247.582500", "182249.072500", "182250.562500", "182252.052500", "182253.542500", "182255.032500", "182256.522500", "182258.012500", "182259.502500", "182300.992500", "182302.482500", "182303.972500", "182305.462500", "182306.952500", "182308.442500", "182309.932500", "182311.422500", "182312.912500", "182314.402500", "182315.892500", "182317.382500", "182318.872500", "182320.362500", "182321.852500", "182323.342500", "182324.832500", "182326.322500", "182327.812500", "182329.302500", "182330.792500", "182332.282500", "182333.772500", "182335.262500", "182336.752500", "182338.242500", "182339.732500", "182341.222500", "182342.712500", "182344.202500", "182345.692500", "182347.182500", "182348.672500", "182350.162500", "182351.652500", "182353.142500", "182354.632500", "182356.122500", "182357.612500", "182359.102500", "182400.592500", "182402.082500", "182403.572500", "182405.062500", "182406.552500", "182408.042500", "182409.532500", "182411.022500", "182412.512500", "182414.002500", "182415.492500", "182416.982500", "182418.472500", "182419.962500", "182421.452500", "182422.942500", "182424.432500", "182425.922500", "182427.412500", "182428.902500", "182430.392500", "182431.882500", "182433.372500", "182434.862500", "182436.352500", "182437.842500", "182439.332500", "182440.822500", "182442.312500", "182443.802500", "182445.292500", "182446.782500", "182448.272500", "182449.762500", "182451.252500", "182452.742500", "182454.232500", "182455.722500", "182457.212500", "182458.702500", "182500.192500", "182501.682500", "182503.172500", "182504.662500", "182506.152500", "182507.642500", "182509.132500", "182510.622500", "182512.112500", "182513.602500", "182515.092500", "182516.582500", "182518.072500", "182519.562500", "182521.052500", "182522.542500", "182524.032500", "182525.522500", "182527.012500", "182528.502500", "182529.992500", "182531.482500", "182532.972500", "182534.462500", "182535.952500", "182537.442500", "182538.932500", "182540.422500", "182541.912500", "182543.402500", "182544.892500", "182546.382500", "182547.872500", "182549.362500", "182550.852500", "182552.342500", "182553.832500", "182555.322500", "182556.812500", "182558.302500", "182559.792500", "182601.282500", "182602.772500", "182604.262500", "182605.752500", "182607.242500", "182608.732500", "182610.222500", "182611.712500", "182613.202500", "182614.692500", "182616.182500", "182617.672500", "182619.162500", "182620.652500", "182622.142500", "182623.632500", "182625.122500", "182626.612500", "182628.102500", "182629.592500", "182631.082500", "182632.572500", "182634.062500", "182635.552500", "182637.042500", "182638.532500", "182640.022500", "182641.512500", "182643.002500", "182644.492500", "182645.982500", "182647.472500", "182648.962500", "182650.452500", "182651.942500", "182653.432500", "182654.922500", "182656.412500", "182657.902500", "182659.392500", "182700.882500", "182702.372500", "182703.862500", "182705.352500", "182706.842500", "182708.332500", "182709.822500", "182711.312500", "182712.802500", "182714.292500", "182715.782500", "182717.272500", "182718.762500", "182720.252500", "182721.742500", "182723.232500", "182724.722500", "182726.212500", "182727.702500", "182729.192500", "182730.682500", "182732.172500", "182733.662500", "182735.152500", "182736.642500", "182738.132500", "182739.622500", "182741.112500", "182742.602500", "182744.092500", "182745.582500", "182747.072500", "182748.562500", "182750.052500", "182751.542500", "182753.032500", "182754.522500", "182756.012500", "182757.502500", "182758.992500", "182800.482500", "182801.972500", "182803.462500", "182804.952500", "182806.442500", "182807.932500", "182809.422500", "182810.912500", "182812.402500", "182813.892500", "182815.382500", "182816.872500", "182818.362500", "182819.852500", "182821.342500", "182822.832500", "182824.322500", "182825.812500", "182827.302500", "182828.792500", "182830.282500", "182831.772500", "182833.262500", "182834.752500", "182836.242500", "182837.732500", "182839.222500", "182840.712500", "182842.202500", "182843.692500", "182845.182500", "182846.672500", "182848.162500", "182849.652500", "182851.142500", "182852.632500", "182854.122500", "182855.612500", "182857.102500", "182858.592500", "182900.082500", "182901.572500", "182903.062500", "182904.552500", "182906.042500", "182907.532500", "182909.022500", "182910.512500", "182912.002500"],
      "ContentTime": ["181820.547000", "181820.550000", "181820.553000", "181820.555000", "181820.558000", "181820.560000", "181820.563000", "181820.565000", "181820.568000", "181820.570000", "181820.573000", "181820.575000", "181820.577000", "181820.580000", "181820.582000", "181820.585000", "181820.587000", "181820.590000", "181820.592000", "181820.595000", "181820.597000", "181820.600000", "181820.610000", "181820.612000", "181820.615000", "181820.617000", "181820.620000", "181820.622000", "181820.625000", "181840.506000", "181840.508000", "181840.511000", "181840.514000", "181840.516000", "181840.519000", "181840.521000", "181840.524000", "181840.526000", "181840.529000", "181840.531000", "181840.534000", "181840.536000", "181840.539000", "181840.541000", "181840.544000", "181840.546000", "181840.549000", "181840.551000", "181840.554000", "181900.499000", "181900.502000", "181900.504000", "181900.507000", "181900.517000", "181900.519000", "181900.522000", "181900.524000", "181900.527000", "181900.529000", "181900.532000", "181900.534000", "181900.537000", "181900.540000", "181900.542000", "181900.544000", "181900.547000", "181900.550000", "181900.552000", "181900.555000", "181920.487000", "181920.489000", "181920.492000", "181920.494000", "181920.497000", "181920.499000", "181920.502000", "181920.504000", "181920.507000", "181920.509000", "181920.512000", "181920.517000", "181920.519000", "181920.522000", "181920.524000", "181920.527000", "181920.529000", "181920.532000", "181920.534000", "181920.537000", "181920.539000", "182000.523000", "182000.526000", "182000.528000", "182000.531000", "182000.533000", "182000.536000", "182000.538000", "182000.541000", "182000.543000", "182000.546000", "182000.548000", "182000.551000", "182000.553000", "182000.556000", "182000.558000", "182000.561000", "182000.563000", "182000.566000", "182000.568000", "182000.571000", "182000.573000", "182000.576000", "182000.578000", "182000.581000", "182000.583000", "182000.586000", "182000.588000", "182000.591000", "182000.593000", "182040.519000", "182040.522000", "182040.524000", "182040.527000", "182040.529000", "182040.532000", "182040.534000", "182040.537000", "182040.539000", "182040.542000", "182040.545000", "182040.547000", "182040.550000", "182040.552000", "182040.555000", "182040.557000", "182040.560000", "182040.562000", "182040.565000", "182040.567000", "182040.570000", "182040.572000", "182040.575000", "182040.577000", "182040.580000", "182040.582000", "182040.585000", "182120.510000", "182120.513000", "182120.515000", "182120.518000", "182120.521000", "182120.523000", "182120.525000", "182120.528000", "182120.530000", "182120.533000", "182120.535000", "182120.538000", "182120.540000", "182120.543000", "182120.545000", "182120.548000", "182120.550000", "182120.553000", "182120.555000", "182120.558000", "182120.560000", "182120.563000", "182120.565000", "182120.568000", "182120.570000", "182120.573000", "182200.523000", "182200.526000", "182200.528000", "182200.531000", "182200.533000", "182200.536000", "182200.539000", "182200.541000", "182200.544000", "182200.546000", "182200.549000", "182200.551000", "182200.553000", "182200.556000", "182200.558000", "182200.561000", "182200.563000", "182200.566000", "182200.569000", "182200.571000", "182200.574000", "182200.576000", "182200.579000", "182200.581000", "182200.584000", "182200.586000", "182200.589000", "182240.505000", "182240.507000", "182240.510000", "182240.512000", "182240.515000", "182240.517000", "182240.520000", "182240.522000", "182240.524000", "182240.527000", "182240.529000", "182240.532000", "182240.534000", "182240.537000", "182240.539000", "182240.542000", "182240.544000", "182240.547000", "182240.549000", "182240.552000", "182240.554000", "182240.557000", "182240.559000", "182240.562000", "182240.564000", "182240.567000", "182240.569000", "182320.511000", "182320.514000", "182320.516000", "182320.518000", "182320.521000", "182320.524000", "182320.526000", "182320.529000", "182320.531000", "182320.534000", "182320.536000", "182320.539000", "182320.541000", "182320.544000", "182320.546000", "182320.549000", "182320.551000", "182320.553000", "182320.556000", "182320.558000", "182320.561000", "182320.563000", "182320.566000", "182320.568000", "182320.571000", "182320.574000", "182320.576000", "182340.441000", "182340.444000", "182340.446000", "182340.449000", "182340.451000", "182340.454000", "182340.456000", "182340.459000", "182340.461000", "182340.464000", "182340.466000", "182340.469000", "182340.471000", "182420.506000", "182420.509000", "182420.511000", "182420.514000", "182420.516000", "182420.519000", "182420.521000", "182420.524000", "182420.526000", "182420.529000", "182420.531000", "182420.534000", "182420.536000", "182420.539000", "182420.541000", "182420.544000", "182420.546000", "182420.549000", "182420.551000", "182420.554000", "182420.556000", "182420.559000", "182420.561000", "182420.564000", "182420.566000", "182420.574000", "182420.577000", "182500.508000", "182500.511000", "182500.513000", "182500.516000", "182500.518000", "182500.521000", "182500.523000", "182500.526000", "182500.528000", "182500.531000", "182500.533000", "182500.536000", "182500.538000", "182500.541000", "182500.543000", "182500.546000", "182500.548000", "182500.551000", "182500.553000", "182500.556000", "182500.558000", "182500.561000", "182500.563000", "182500.566000", "182500.569000", "182500.571000", "182500.574000", "182540.523000", "182540.526000", "182540.528000", "182540.531000", "182540.533000", "182540.536000", "182540.538000", "182540.541000", "182540.543000", "182540.546000", "182540.548000", "182540.551000", "182540.554000", "182540.556000", "182540.559000", "182540.561000", "182540.564000", "182540.566000", "182540.569000", "182540.571000", "182540.574000", "182540.576000", "182540.579000", "182540.581000", "182540.584000", "182540.586000", "182540.589000", "182620.513000", "182620.516000", "182620.519000", "182620.521000", "182620.524000", "182620.526000", "182620.529000", "182620.531000", "182620.534000", "182620.536000", "182620.539000", "182620.541000", "182620.544000", "182620.546000", "182620.549000", "182620.551000", "182620.554000", "182620.556000", "182620.559000", "182620.561000", "182620.564000", "182620.566000", "182620.569000", "182620.572000", "182620.574000", "182620.577000", "182620.579000", "182700.510000", "182700.513000", "182700.516000", "182700.518000", "182700.521000", "182700.523000", "182700.526000", "182700.528000", "182700.531000", "182700.533000", "182700.535000", "182700.538000", "182700.540000", "182700.543000", "182700.546000", "182700.548000", "182700.551000", "182700.553000", "182700.556000", "182700.558000", "182700.561000", "182700.563000", "182700.566000", "182700.569000", "182700.571000", "182700.574000", "182700.576000", "182740.518000", "182740.521000", "182740.523000", "182740.526000", "182740.528000", "182740.531000", "182740.533000", "182740.536000", "182740.538000", "182740.541000", "182740.543000", "182740.546000", "182740.548000", "182740.551000", "182740.553000", "182740.556000", "182740.558000", "182740.561000", "182740.563000", "182740.566000", "182740.568000", "182740.571000", "182740.573000", "182740.576000", "182740.579000", "182740.581000", "182820.515000", "182820.517000", "182820.520000", "182820.526000", "182820.529000", "182820.531000", "182820.534000", "182820.536000", "182820.539000", "182820.541000", "182820.544000", "182820.546000", "182820.549000", "182820.552000", "182820.554000", "182820.557000", "182820.559000", "182820.562000", "182820.564000", "182820.567000", "182820.569000", "182820.572000", "182820.574000", "182820.577000", "182820.579000", "182820.582000", "182820.584000", "182900.500000", "182900.503000", "182900.506000", "182900.508000", "182900.510000", "182900.513000", "182900.515000", "182900.518000", "182900.520000", "182900.523000", "182900.525000", "182900.528000", "182900.530000", "182900.533000", "182900.535000", "182900.538000", "182900.540000", "182900.543000", "182900.545000", "182900.548000", "182900.550000", "182900.553000", "182900.555000", "182900.558000", "182900.560000", "182900.563000", "182900.565000", "182914.823000", "182914.826000", "182914.829000", "182914.831000", "182914.834000", "182914.836000", "182914.839000", "182914.841000", "182914.844000", "182914.846000"],
