{
  "AcquisitionMatrixPE": 104,
  "AcquisitionNumber": 1,
  "AcquisitionTime": "18:04:58.307500",
  "BandwidthPerPixelPhaseEncode": 17.17,
  "BaseResolution": 104,
  "BodyPartExamined": "BRAIN",
  "CoilCombinationMethod": "Sum of Squares",
  "ConsistencyInfo": "N4_VE11C_LATEST_20160120",
  "ConversionSoftware": "dcm2niix",
  "ConversionSoftwareVersion": "v1.0.20211006",
  "DerivedVendorReportedEchoSpacing": 0.000560011,
  "DeviceSerialNumber": "167006",
  "DwellTime": 2.1e-06,
  "EchoTime": 0.037,
  "EchoTrainLength": 104,
  "EffectiveEchoSpacing": 0.000560011,
  "FlipAngle": 52,
  "HeudiconvVersion": "0.11.3.post9+gc939bf8",
  "ImageComments": "Unaliased MB4/PE3/LB",
  "ImageOrientationPatientDICOM": [0.999534, -0.0304006, -0.00286107, 0.0273958, 0.934213, -0.355663],
  "ImageOrientationText": "Tra>Cor(-20.8)>Sag(-0.8)",
  "ImageType": [
    "ORIGINAL",
    "PRIMARY",
    "M",
    "MB",
    "ND",
    "MOSAIC"
],
  "ImagingFrequency": 123.26,
  "InPlanePhaseEncodingDirectionDICOM": "COL",
  "InstitutionAddress": "Chemin Queen-Mary 4565,Montreal,District,CA,H3W 1W5",
  "InstitutionName": "IUGM",
  "InstitutionalDepartmentName": "Department",
  "MRAcquisitionType": "2D",
  "MagneticFieldStrength": 3,
  "Manufacturer": "Siemens",
  "ManufacturersModelName": "Prisma_fit",
  "MatrixCoilMode": "SENSE",
  "Modality": "MR",
  "MultibandAccelerationFactor": 4,
  "PartialFourier": 1,
  "PatientPosition": "HFS",
  "PercentPhaseFOV": 100,
  "PercentSampling": 100,
  "PhaseEncodingDirection": "j",
  "PhaseEncodingSteps": 104,
  "PhaseResolution": 1,
  "PixelBandwidth": 2290,
  "ProcedureStepDescription": "games^mario",
  "ProtocolName": "func_task-mario_run-04",
  "PulseSequenceDetails": "%CustomerSeq%\\cmrr_mbep2d_bold",
  "ReceiveCoilActiveElements": "HC1-7;NC1,2",
  "ReceiveCoilName": "HeadNeck_64",
  "ReconMatrixPE": 104,
  "RepetitionTime": 1.49,
  "SAR": 0.0796904,
  "ScanOptions": "FS",
  "ScanningSequence": "EP",
  "SequenceName": "epfid2d1_104",
  "SequenceVariant": "SK\\SS",
  "SeriesDescription": "func_task-mario_run-04",
  "SeriesNumber": 19,
  "ShimSetting": [597, -7261, -8808, 422, 25, -334, 2, 47],
  "SliceThickness": 2,
  "SliceTiming": [0, 0.7825, 0.0975, 0.8825, 0.195, 0.98, 0.295, 1.0775, 0.3925, 1.175, 0.49, 1.2725, 0.5875, 1.3725, 0.685, 0, 0.7825, 0.0975, 0.8825, 0.195, 0.98, 0.295, 1.0775, 0.3925, 1.175, 0.49, 1.2725, 0.5875, 1.3725, 0.685, 0, 0.7825, 0.0975, 0.8825, 0.195, 0.98, 0.295, 1.0775, 0.3925, 1.175, 0.49, 1.2725, 0.5875, 1.3725, 0.685, 0, 0.7825, 0.0975, 0.8825, 0.195, 0.98, 0.295, 1.0775, 0.3925, 1.175, 0.49, 1.2725, 0.5875, 1.3725, 0.685],
  "SoftwareVersions": "syngo MR E11",
  "SpacingBetweenSlices": 2,
  "StationName": "MRC35049",
  "TaskName": "mario",
  "TotalReadoutTime": 0.0576811,
  "TxRefAmp": 302.015,
  "WipMemBlock": "d14a2fe4-102a-42a0-892e-e75f1cf675ba||Sequence: R017 ve11c/master r/75a17815+; Jun 28 2022 16:32:11 by eja",
  "dcmmeta_affine": [
    [-1.9990674257278442, 0.054791610687971115, -0.026970412582159042, 101.65910339355469],
    [0.06080115959048271, 1.8684253692626953, -0.7108376026153564, -64.67285919189453],
    [-0.005722132511436939, 0.7113260626792908, 1.8692197799682617, -60.42997741699219],
    [0.0, 0.0, 0.0, 1.0]
],
  "dcmmeta_reorient_transform": [
    [0.0, -1.0, 0.0, 103.0],
    [1.0, 0.0, 0.0, 0.0],
    [0.0, 0.0, 1.0, 0.0],
    [0.0, 0.0, 0.0, 1.0]
],
  "dcmmeta_shape": [104, 104, 60, 435],
  "dcmmeta_slice_dim": 2,
  "dcmmeta_version": 0.6,
  "global": {
    "const": {
      "AcquisitionMatrix": [104, 0, 0, 104],
      "AngioFlag": "N",
      "BitsAllocated": 16,
      "BitsStored": 16,
      "BodyPartExamined": "BRAIN",
      "Columns": 832,
      "EchoNumbers": 1,
      "EchoTime": 37.0,
      "EchoTrainLength": 104,
      "FlipAngle": 52.0,
      "HighBit": 15,
      "ImageOrientationPatient": [0.99953370082334, -0.0304005792384, -0.0028610662978, 0.02739580500677, 0.9342126551798, -0.3556630213699],
      "ImagePositionPatient": [-854.90732152598, -785.75013534245, 273.84214126606],
      "ImageType": [
        "ORIGINAL",
        "PRIMARY",
        "M",
        "MB",
        "ND",
        "MOSAIC"
],
      "ImagedNucleus": "1H",
      "ImagingFrequency": 123.260101,
      "InPlanePhaseEncodingDirection": "COL",
      "MRAcquisitionType": "2D",
      "MagneticFieldStrength": 3.0,
      "Manufacturer": "SIEMENS",
      "ManufacturerModelName": "Prisma_fit",
      "Modality": "MR",
      "NumberOfAverages": 1.0,
      "NumberOfPhaseEncodingSteps": 104,
      "PercentPhaseFieldOfView": 100.0,
      "PercentSampling": 100.0,
      "PerformedProcedureStepStartTime": "170915.475000",
      "PhotometricInterpretation": "MONOCHROME2",
      "PixelBandwidth": 2290.0,
      "PixelRepresentation": 0,
      "PixelSpacing": [2.0, 2.0],
      "ProtocolName": "func_task-mario_run-04",
      "RepetitionTime": 1490.0,
      "Rows": 832,
      "SAR": 0.07969043030064,
      "SamplesPerPixel": 1,
      "ScanOptions": "FS",
      "ScanningSequence": "EP",
      "SequenceName": "epfid2d1_104",
      "SequenceVariant": [
        "SK",
        "SS"
],
      "SeriesDescription": "func_task-mario_run-04",
      "SeriesNumber": 19,
      "SeriesTime": "180615.663000",
      "SliceLocation": -34.863396578645,
      "SliceThickness": 2.0,
      "SmallestImagePixelValue": 0,
      "SoftwareVersions": "syngo MR E11",
      "SpacingBetweenSlices": 2.0000000323959,
      "SpecificCharacterSet": "ISO_IR 100",
      "StudyID": "1",
      "StudyTime": "170915.324000",
      "TransmitCoilName": "Body",
      "VariableFlipAngleFlag": "N",
      "WindowCenterWidthExplanation": "Algo1",
      "dBdt": 0.0},
    "slices": {}
  },
  "time": {
    "samples": {
      "AcquisitionNumber": [1, 2, 3, 4, 5, 6, 7, 8, 9, 10, 11, 12, 13, 14, 15, 16, 17, 18, 19, 20, 21, 22, 23, 24, 25, 26, 27, 28, 29, 30, 31, 32, 33, 34, 35, 36, 37, 38, 39, 40, 41, 42, 43, 44, 45, 46, 47, 48, 49, 50, 51, 52, 53, 54, 55, 56, 57, 58, 59, 60, 61, 62, 63, 64, 65, 66, 67, 68, 69, 70, 71, 72, 73, 74, 75, 76, 77, 78, 79, 80, 81, 82, 83, 84, 85, 86, 87, 88, 89, 90, 91, 92, 93, 94, 95, 96, 97, 98, 99, 100, 101, 102, 103, 104, 105, 106, 107, 108, 109, 110, 111, 112, 113, 114, 115, 116, 117, 118, 119, 120, 121, 122, 123, 124, 125, 126, 127, 128, 129, 130, 131, 132, 133, 134, 135, 136, 137, 138, 139, 140, 141, 142, 143, 144, 145, 146, 147, 148, 149, 150, 151, 152, 153, 154, 155, 156, 157, 158, 159, 160, 161, 162, 163, 164, 165, 166, 167, 168, 169, 170, 171, 172, 173, 174, 175, 176, 177, 178, 179, 180, 181, 182, 183, 184, 185, 186, 187, 188, 189, 190, 191, 192, 193, 194, 195, 196, 197, 198, 199, 200, 201, 202, 203, 204, 205, 206, 207, 208, 209, 210, 211, 212, 213, 214, 215, 216, 217, 218, 219, 220, 221, 222, 223, 224, 225, 226, 227, 228, 229, 230, 231, 232, 233, 234, 235, 236, 237, 238, 239, 240, 241, 242, 243, 244, 245, 246, 247, 248, 249, 250, 251, 252, 253, 254, 255, 256, 257, 258, 259, 260, 261, 262, 263, 264, 265, 266, 267, 268, 269, 270, 271, 272, 273, 274, 275, 276, 277, 278, 279, 280, 281, 282, 283, 284, 285, 286, 287, 288, 289, 290, 291, 292, 293, 294, 295, 296, 297, 298, 299, 300, 301, 302, 303, 304, 305, 306, 307, 308, 309, 310, 311, 312, 313, 314, 315, 316, 317, 318, 319, 320, 321, 322, 323, 324, 325, 326, 327, 328, 329, 330, 331, 332, 333, 334, 335, 336, 337, 338, 339, 340, 341, 342, 343, 344, 345, 346, 347, 348, 349, 350, 351, 352, 353, 354, 355, 356, 357, 358, 359, 360, 361, 362, 363, 364, 365, 366, 367, 368, 369, 370, 371, 372, 373, 374, 375, 376, 377, 378, 379, 380, 381, 382, 383, 384, 385, 386, 387, 388, 389, 390, 391, 392, 393, 394, 395, 396, 397, 398, 399, 400, 401, 402, 403, 404, 405, 406, 407, 408, 409, 410, 411, 412, 413, 414, 415, 416, 417, 418, 419, 420, 421, 422, 423, 424, 425, 426, 427, 428, 429, 430, 431, 432, 433, 434, 435],
      "AcquisitionTime": ["180458.307500", "180459.797500", "180501.287500", "180502.777500", "180504.267500", "180505.757500", "180507.247500", "180508.737500", "180510.227500", "180511.717500", "180513.207500", "180514.697500", "180516.187500", "180517.677500", "180519.167500", "180520.657500", "180522.147500", "180523.637500", "180525.127500", "180526.617500", "180528.107500", "180529.597500", "180531.087500", "180532.577500", "180534.067500", "180535.557500", "180537.047500", "180538.537500", "180540.027500", "180541.517500", "180543.007500", "180544.497500", "180545.987500", "180547.477500", "180548.967500", "180550.457500", "180551.947500", "180553.437500", "180554.927500", "180556.417500", "180557.907500", "180559.397500", "180600.887500", "180602.377500", "180603.867500", "180605.357500", "180606.847500", "180608.337500", "180609.827500", "180611.317500", "180612.807500", "180614.297500", "180615.787500", "180617.277500", "180618.767500", "180620.257500", "180621.747500", "180623.237500", "180624.727500", "180626.217500", "180627.707500", "180629.197500", "180630.687500", "180632.177500", "180633.667500", "180635.157500", "180636.647500", "180638.137500", "180639.627500", "180641.117500", "180642.607500", "180644.097500", "180645.587500", "180647.077500", "180648.567500", "180650.057500", "180651.547500", "180653.037500", "180654.527500", "180656.017500", "180657.507500", "180658.997500", "180700.487500", "180701.977500", "180703.467500", "180704.957500", "180706.447500", "180707.937500", "180709.427500", "180710.917500", "180712.407500", "180713.897500", "180715.387500", "180716.877500", "180718.367500", "180719.857500", "180721.347500", "180722.837500", "180724.327500", "180725.817500", "180727.307500", "180728.797500", "180730.287500", "180731.777500", "180733.267500", "180734.757500", "180736.247500", "180737.737500", "180739.227500", "180740.717500", "180742.207500", "180743.697500", "180745.187500", "180746.677500", "180748.167500", "180749.657500", "180751.147500", "180752.637500", "180754.127500", "180755.617500", "180757.107500", "180758.597500", "180800.087500", "180801.577500", "180803.067500", "180804.557500", "180806.047500", "180807.537500", "180809.027500", "180810.517500", "180812.007500", "180813.497500", "180814.987500", "180816.477500", "180817.967500", "180819.457500", "180820.947500", "180822.437500", "180823.927500", "180825.417500", "180826.907500", "180828.397500", "180829.887500", "180831.377500", "180832.867500", "180834.357500", "180835.847500", "180837.337500", "180838.827500", "180840.317500", "180841.807500", "180843.297500", "180844.787500", "180846.277500", "180847.767500", "180849.257500", "180850.747500", "180852.237500", "180853.727500", "180855.217500", "180856.707500", "180858.197500", "180859.687500", "180901.177500", "180902.667500", "180904.157500", "180905.647500", "180907.137500", "180908.627500", "180910.117500", "180911.607500", "180913.097500", "180914.587500", "180916.077500", "180917.567500", "180919.057500", "180920.547500", "180922.037500", "180923.527500", "180925.017500", "180926.507500", "180927.997500", "180929.487500", "180930.977500", "180932.467500", "180933.957500", "180935.447500", "180936.937500", "180938.427500", "180939.917500", "180941.407500", "180942.897500", "180944.387500", "180945.877500", "180947.367500", "180948.857500", "180950.347500", "180951.837500", "180953.327500", "180954.817500", "180956.307500", "180957.797500", "180959.287500", "181000.777500", "181002.267500", "181003.757500", "181005.247500", "181006.737500", "181008.227500", "181009.717500", "181011.207500", "181012.697500", "181014.187500", "181015.677500", "181017.167500", "181018.657500", "181020.147500", "181021.637500", "181023.127500", "181024.617500", "181026.107500", "181027.597500", "181029.087500", "181030.577500", "181032.067500", "181033.557500", "181035.047500", "181036.537500", "181038.027500", "181039.517500", "181041.007500", "181042.497500", "181043.987500", "181045.477500", "181046.967500", "181048.457500", "181049.947500", "181051.437500", "181052.927500", "181054.417500", "181055.907500", "181057.397500", "181058.887500", "181100.377500", "181101.867500", "181103.357500", "181104.847500", "181106.337500", "181107.827500", "181109.317500", "181110.807500", "181112.297500", "181113.787500", "181115.277500", "181116.767500", "181118.257500", "181119.747500", "181121.237500", "181122.727500", "181124.217500", "181125.707500", "181127.197500", "181128.687500", "181130.177500", "181131.667500", "181133.157500", "181134.647500", "181136.137500", "181137.627500", "181139.117500", "181140.607500", "181142.097500", "181143.587500", "181145.077500", "181146.567500", "181148.057500", "181149.547500", "181151.037500", "181152.527500", "181154.017500", "181155.507500", "181156.997500", "181158.487500", "181159.977500", "181201.467500", "181202.957500", "181204.447500", "181205.937500", "181207.427500", "181208.917500", "181210.407500", "181211.897500", "181213.387500", "181214.877500", "181216.367500", "181217.857500", "181219.347500", "181220.837500", "181222.327500", "181223.817500", "181225.307500", "181226.797500", "181228.287500", "181229.777500", "181231.267500", "181232.757500", "181234.247500", "181235.737500", "181237.227500", "181238.717500", "181240.207500", "181241.697500", "181243.187500", "181244.677500", "181246.167500", "181247.657500", "181249.147500", "181250.637500", "181252.127500", "181253.617500", "181255.107500", "181256.597500", "181258.087500", "181259.577500", "181301.067500", "181302.557500", "181304.047500", "181305.537500", "181307.027500", "181308.517500", "181310.007500", "181311.497500", "181312.987500", "181314.477500", "181315.967500", "181317.457500", "181318.947500", "181320.437500", "181321.927500", "181323.417500", "181324.907500", "181326.397500", "181327.887500", "181329.377500", "181330.867500", "181332.357500", "181333.847500", "181335.337500", "181336.827500", "181338.317500", "181339.807500", "181341.297500", "181342.787500", "181344.277500", "181345.767500", "181347.257500", "181348.747500", "181350.237500", "181351.727500", "181353.217500", "181354.707500", "181356.197500", "181357.687500", "181359.177500", "181400.667500", "181402.157500", "181403.647500", "181405.137500", "181406.627500", "181408.117500", "181409.607500", "181411.097500", "181412.587500", "181414.077500", "181415.567500", "181417.057500", "181418.547500", "181420.037500", "181421.527500", "181423.017500", "181424.507500", "181425.997500", "181427.487500", "181428.977500", "181430.467500", "181431.957500", "181433.447500", "181434.937500", "181436.427500", "181437.917500", "181439.407500", "181440.897500", "181442.387500", "181443.877500", "181445.367500", "181446.857500", "181448.347500", "181449.837500", "181451.327500", "181452.817500", "181454.307500", "181455.797500", "181457.287500", "181458.777500", "181500.267500", "181501.757500", "181503.247500", "181504.737500", "181506.227500", "181507.717500", "181509.207500", "181510.697500", "181512.187500", "181513.677500", "181515.167500", "181516.657500", "181518.147500", "181519.637500", "181521.127500", "181522.617500", "181524.107500", "181525.597500", "181527.087500", "181528.577500", "181530.067500", "181531.557500", "181533.047500", "181534.537500", "181536.027500", "181537.517500", "181539.007500", "181540.497500", "181541.987500", "181543.477500", "181544.967500"],
      "ContentTime": ["180615.666000", "180615.670000", "180615.674000", "180615.677000", "180615.681000", "180615.691000", "180615.695000", "180615.698000", "180615.701000", "180615.705000", "180615.708000", "180615.711000", "180615.715000", "180615.718000", "180615.721000", "180615.725000", "180615.728000", "180615.731000", "180615.735000", "180615.738000", "180615.741000", "180615.745000", "180615.748000", "180615.751000", "180615.755000", "180615.758000", "180615.761000", "180615.765000", "180635.617000", "180635.621000", "180635.624000", "180635.628000", "180635.631000", "180635.635000", "180635.638000", "180635.641000", "180635.645000", "180635.648000", "180635.659000", "180635.663000", "180635.666000", "180635.670000", "180635.673000", "180635.676000", "180635.679000", "180635.683000", "180635.686000", "180635.689000", "180635.693000", "180655.617000", "180655.621000", "180655.624000", "180655.628000", "180655.631000", "180655.634000", "180655.638000", "180655.641000", "180655.644000", "180655.655000", "180655.658000", "180655.661000", "180655.665000", "180655.668000", "180655.671000", "180655.675000", "180655.678000", "180655.681000", "180655.685000", "180655.688000", "180715.616000", "180715.620000", "180715.623000", "180715.627000", "180715.630000", "180715.633000", "180715.637000", "180715.640000", "180715.643000", "180715.647000", "180715.650000", "180715.653000", "180715.657000", "180715.670000", "180715.673000", "180715.677000", "180715.680000", "180715.684000", "180715.688000", "180715.691000", "180755.617000", "180755.621000", "180755.633000", "180755.637000", "180755.640000", "180755.644000", "180755.647000", "180755.650000", "180755.654000", "180755.657000", "180755.660000", "180755.664000", "180755.667000", "180755.671000", "180755.674000", "180755.677000", "180755.681000", "180755.684000", "180755.699000", "180755.702000", "180755.705000", "180755.709000", "180755.712000", "180755.715000", "180755.719000", "180755.722000", "180755.726000", "180755.729000", "180755.732000", "180835.617000", "180835.621000", "180835.624000", "180835.628000", "180835.631000", "180835.634000", "180835.638000", "180835.641000", "180835.644000", "180835.648000", "180835.651000", "180835.654000", "180835.658000", "180835.661000", "180835.664000", "180835.668000", "180835.671000", "180835.674000", "180835.678000", "180835.681000", "180835.684000", "180835.688000", "180835.691000", "180835.694000", "180835.697000", "180835.701000", "180835.704000", "180915.617000", "180915.621000", "180915.624000", "180915.628000", "180915.631000", "180915.634000", "180915.638000", "180915.641000", "180915.644000", "180915.648000", "180915.651000", "180915.654000", "180915.658000", "180915.661000", "180915.664000", "180915.668000", "180915.671000", "180915.674000", "180915.678000", "180915.681000", "180915.684000", "180915.687000", "180915.691000", "180915.694000", "180915.697000", "180915.701000", "180915.704000", "180955.617000", "180955.621000", "180955.624000", "180955.628000", "180955.631000", "180955.634000", "180955.638000", "180955.641000", "180955.645000", "180955.648000", "180955.651000", "180955.655000", "180955.658000", "180955.661000", "180955.665000", "180955.670000", "180955.674000", "180955.678000", "180955.681000", "180955.685000", "180955.688000", "180955.691000", "180955.695000", "180955.698000", "180955.702000", "180955.705000", "181035.617000", "181035.633000", "181035.637000", "181035.640000", "181035.643000", "181035.647000", "181035.650000", "181035.653000", "181035.657000", "181035.660000", "181035.663000", "181035.666000", "181035.670000", "181035.673000", "181035.676000", "181035.680000", "181035.683000", "181035.686000", "181035.690000", "181035.693000", "181035.696000", "181035.700000", "181035.703000", "181035.706000", "181035.710000", "181035.713000", "181035.716000", "181115.617000", "181115.621000", "181115.624000", "181115.628000", "181115.631000", "181115.634000", "181115.638000", "181115.641000", "181115.644000", "181115.648000", "181115.651000", "181115.654000", "181115.658000", "181115.661000", "181115.664000", "181115.668000", "181115.671000", "181115.674000", "181115.678000", "181115.681000", "181115.684000", "181115.687000", "181115.691000", "181115.694000", "181115.698000", "181115.701000", "181115.704000", "181155.616000", "181155.620000", "181155.623000", "181155.627000", "181155.630000", "181155.633000", "181155.637000", "181155.640000", "181155.643000", "181155.647000", "181155.650000", "181155.653000", "181155.657000", "181155.660000", "181155.663000", "181155.667000", "181155.670000", "181155.673000", "181155.677000", "181155.680000", "181155.683000", "181155.687000", "181155.690000", "181155.693000", "181155.697000", "181155.700000", "181155.703000", "181235.617000", "181235.621000", "181235.624000", "181235.628000", "181235.631000", "181235.635000", "181235.638000", "181235.641000", "181235.645000", "181235.648000", "181235.651000", "181235.655000", "181235.658000", "181235.662000", "181235.665000", "181235.668000", "181235.672000", "181235.675000", "181235.679000", "181235.682000", "181235.685000", "181235.689000", "181235.692000", "181235.715000", "181235.718000", "181235.721000", "181235.725000", "181315.617000", "181315.621000", "181315.624000", "181315.628000", "181315.631000", "181315.634000", "181315.638000", "181315.641000", "181315.645000", "181315.648000", "181315.651000", "181315.655000", "181315.658000", "181315.661000", "181315.665000", "181315.668000", "181315.672000", "181315.675000", "181315.678000", "181315.682000", "181315.685000", "181315.689000", "181315.692000", "181315.695000", "181315.699000", "181315.702000", "181315.705000", "181335.617000", "181335.621000", "181335.625000", "181335.628000", "181335.632000", "181335.635000", "181335.638000", "181335.642000", "181335.645000", "181335.648000", "181335.652000", "181335.655000", "181335.658000", "181415.616000", "181415.620000", "181415.623000", "181415.627000", "181415.630000", "181415.633000", "181415.637000", "181415.640000", "181415.644000", "181415.647000", "181415.650000", "181415.654000", "181415.657000", "181415.660000", "181415.664000", "181415.667000", "181415.670000", "181415.674000", "181415.677000", "181415.680000", "181415.684000", "181415.687000", "181415.692000", "181415.695000", "181415.699000", "181415.702000", "181415.705000", "181455.617000", "181455.621000", "181455.624000", "181455.627000", "181455.631000", "181455.634000", "181455.638000", "181455.641000", "181455.644000", "181455.648000", "181455.651000", "181455.654000", "181455.658000", "181455.661000", "181455.664000", "181455.687000", "181455.690000", "181455.694000", "181455.697000", "181455.700000", "181455.704000", "181455.707000", "181455.711000", "181455.714000", "181455.717000", "181455.721000", "181455.724000", "181535.617000", "181535.621000", "181535.624000", "181535.628000", "181535.631000", "181535.634000", "181535.638000", "181535.641000", "181535.644000", "181535.648000", "181535.651000", "181535.654000", "181535.658000", "181535.661000", "181535.664000", "181535.668000", "181535.671000", "181535.674000", "181535.678000", "181535.681000", "181535.684000", "181535.688000", "181535.691000", "181535.694000", "181535.698000", "181535.701000", "181535.704000", "181548.619000", "181548.623000", "181548.626000", "181548.629000", "181548.633000", "181548.636000", "181548.640000", "181548.643000"],
