{
  "AcquisitionMatrixPE": 104,
  "AcquisitionNumber": 1,
  "AcquisitionTime": "16:05:57.007500",
  "BandwidthPerPixelPhaseEncode": 17.17,
  "BaseResolution": 104,
  "BodyPartExamined": "BRAIN",
  "CoilCombinationMethod": "Sum of Squares",
  "ConsistencyInfo": "N4_VE11C_LATEST_20160120",
  "ConversionSoftware": "dcm2niix",
  "ConversionSoftwareVersion": "v1.0.20211006",
  "DerivedVendorReportedEchoSpacing": 0.000560011,
  "DeviceSerialNumber": "167006",
  "DwellTime": 2.1e-06,
  "EchoTime": 0.037,
  "EchoTrainLength": 104,
  "EffectiveEchoSpacing": 0.000560011,
  "FlipAngle": 52,
  "HeudiconvVersion": "0.10.0",
  "ImageComments": "Unaliased MB4/PE3/LB",
  "ImageOrientationPatientDICOM": [0.999455, 0.0140885, 0.0298608, -0.00627982, 0.968998, -0.246989],
  "ImageOrientationText": "Tra>Cor(-14.3)>Sag(1.9)",
  "ImageType": [
    "ORIGINAL",
    "PRIMARY",
    "M",
    "MB",
    "ND",
    "MOSAIC"
],
  "ImagingFrequency": 123.259,
  "InPlanePhaseEncodingDirectionDICOM": "COL",
  "InstitutionAddress": "Chemin Queen-Mary 4565,Montreal,District,CA,H3W 1W5",
  "InstitutionName": "IUGM",
  "InstitutionalDepartmentName": "Department",
  "MRAcquisitionType": "2D",
  "MagneticFieldStrength": 3,
  "Manufacturer": "Siemens",
  "ManufacturersModelName": "Prisma_fit",
  "MatrixCoilMode": "SENSE",
  "Modality": "MR",
  "MultibandAccelerationFactor": 4,
  "PartialFourier": 1,
  "PatientPosition": "HFS",
  "PercentPhaseFOV": 100,
  "PercentSampling": 100,
  "PhaseEncodingDirection": "j",
  "PhaseEncodingSteps": 104,
  "PhaseResolution": 1,
  "PixelBandwidth": 2290,
  "ProcedureStepDescription": "games^mario",
  "ProtocolName": "func_task-mario_run-01",
  "PulseSequenceDetails": "%CustomerSeq%\\cmrr_mbep2d_bold",
  "ReceiveCoilActiveElements": "HC1-7;NC1,2",
  "ReceiveCoilName": "HeadNeck_64",
  "ReconMatrixPE": 104,
  "RepetitionTime": 1.49,
  "SAR": 0.0493861,
  "ScanOptions": "FS",
  "ScanningSequence": "EP",
  "SequenceName": "epfid2d1_104",
  "SequenceVariant": "SK\\SS",
  "SeriesDescription": "func_task-mario_run-01",
  "SeriesNumber": 10,
  "ShimSetting": [636, -7226, -8761, 711, 48, -32, 102, -21],
  "SliceThickness": 2,
  "SliceTiming": [0, 0.785, 0.1, 0.8825, 0.1975, 0.98, 0.295, 1.08, 0.3925, 1.1775, 0.49, 1.275, 0.59, 1.3725, 0.6875, 0, 0.785, 0.1, 0.8825, 0.1975, 0.98, 0.295, 1.08, 0.3925, 1.1775, 0.49, 1.275, 0.59, 1.3725, 0.6875, 0, 0.785, 0.1, 0.8825, 0.1975, 0.98, 0.295, 1.08, 0.3925, 1.1775, 0.49, 1.275, 0.59, 1.3725, 0.6875, 0, 0.785, 0.1, 0.8825, 0.1975, 0.98, 0.295, 1.08, 0.3925, 1.1775, 0.49, 1.275, 0.59, 1.3725, 0.6875],
  "SoftwareVersions": "syngo MR E11",
  "SpacingBetweenSlices": 2,
  "StationName": "MRC35049",
  "TaskName": "mario",
  "TotalReadoutTime": 0.0576811,
  "TxRefAmp": 231.086,
  "WipMemBlock": "06aede7f-9fa0-4f3e-8d54-0ad46b34a783||Sequence: R016 ve11c/master r/e634e98; Dec 19 2017 11:00:25 by eja",
  "dcmmeta_affine": [
    [-1.998909592628479, -0.012559632770717144, 0.06482949107885361, 108.38021087646484],
    [-0.02817692793905735, 1.9379956722259521, -0.4933343529701233, -73.24298858642578],
    [0.05972158908843994, 0.49397873878479004, 1.9371159076690674, -55.229209899902344],
    [0.0, 0.0, 0.0, 1.0]
],
  "dcmmeta_reorient_transform": [
    [0.0, -1.0, 0.0, 103.0],
    [1.0, 0.0, 0.0, 0.0],
    [0.0, 0.0, 1.0, 0.0],
    [0.0, 0.0, 0.0, 1.0]
],
  "dcmmeta_shape": [104, 104, 60, 462],
  "dcmmeta_slice_dim": 2,
  "dcmmeta_version": 0.6,
  "global": {
    "const": {
      "AcquisitionMatrix": [104, 0, 0, 104],
      "AngioFlag": "N",
      "BitsAllocated": 16,
      "BitsStored": 16,
      "BodyPartExamined": "BRAIN",
      "Columns": 832,
      "EchoNumbers": 1,
      "EchoTime": 37.0,
      "EchoTrainLength": 104,
      "FlipAngle": 52.0,
      "HighBit": 15,
      "ImageOrientationPatient": [0.99945477544179, 0.01408846382206, 0.02986079425839, -0.006279816421, 0.96899784248172, -0.2469893624663],
      "ImagePositionPatient": [-830.11794117998, -842.0573978329, 153.72019787492],
      "ImageType": [
        "ORIGINAL",
        "PRIMARY",
        "M",
        "MB",
        "ND",
        "MOSAIC"
],
      "ImagedNucleus": "1H",
      "ImagingFrequency": 123.258871,
      "InPlanePhaseEncodingDirection": "COL",
      "MRAcquisitionType": "2D",
      "MagneticFieldStrength": 3.0,
      "Manufacturer": "SIEMENS",
      "ManufacturerModelName": "Prisma_fit",
      "Modality": "MR",
      "NumberOfAverages": 1.0,
      "NumberOfPhaseEncodingSteps": 104,
      "PercentPhaseFieldOfView": 100.0,
      "PercentSampling": 100.0,
      "PerformedProcedureStepStartTime": "160209.214000",
      "PhotometricInterpretation": "MONOCHROME2",
      "PixelBandwidth": 2290.0,
      "PixelRepresentation": 0,
      "PixelSpacing": [2.0, 2.0],
      "ProtocolName": "func_task-mario_run-01",
      "RepetitionTime": 1490.0,
      "Rows": 832,
      "SAR": 0.04938609586305,
      "SamplesPerPixel": 1,
      "ScanOptions": "FS",
      "ScanningSequence": "EP",
      "SequenceName": "epfid2d1_104",
      "SequenceVariant": [
        "SK",
        "SS"
],
      "SeriesDescription": "func_task-mario_run-01",
      "SeriesNumber": 10,
      "SeriesTime": "160658.421000",
      "SliceLocation": -31.912932978595,
      "SliceThickness": 2.0,
      "SmallestImagePixelValue": 0,
      "SoftwareVersions": "syngo MR E11",
      "SpacingBetweenSlices": 1.9999999584799,
      "SpecificCharacterSet": "ISO_IR 100",
      "StudyID": "1",
      "StudyTime": "160209.157000",
      "TransmitCoilName": "Body",
      "VariableFlipAngleFlag": "N",
      "WindowCenterWidthExplanation": "Algo1",
      "dBdt": 0.0},
    "slices": {}
  },
  "time": {
    "samples": {
      "AcquisitionNumber": [1, 2, 3, 4, 5, 6, 7, 8, 9, 10, 11, 12, 13, 14, 15, 16, 17, 18, 19, 20, 21, 22, 23, 24, 25, 26, 27, 28, 29, 30, 31, 32, 33, 34, 35, 36, 37, 38, 39, 40, 41, 42, 43, 44, 45, 46, 47, 48, 49, 50, 51, 52, 53, 54, 55, 56, 57, 58, 59, 60, 61, 62, 63, 64, 65, 66, 67, 68, 69, 70, 71, 72, 73, 74, 75, 76, 77, 78, 79, 80, 81, 82, 83, 84, 85, 86, 87, 88, 89, 90, 91, 92, 93, 94, 95, 96, 97, 98, 99, 100, 101, 102, 103, 104, 105, 106, 107, 108, 109, 110, 111, 112, 113, 114, 115, 116, 117, 118, 119, 120, 121, 122, 123, 124, 125, 126, 127, 128, 129, 130, 131, 132, 133, 134, 135, 136, 137, 138, 139, 140, 141, 142, 143, 144, 145, 146, 147, 148, 149, 150, 151, 152, 153, 154, 155, 156, 157, 158, 159, 160, 161, 162, 163, 164, 165, 166, 167, 168, 169, 170, 171, 172, 173, 174, 175, 176, 177, 178, 179, 180, 181, 182, 183, 184, 185, 186, 187, 188, 189, 190, 191, 192, 193, 194, 195, 196, 197, 198, 199, 200, 201, 202, 203, 204, 205, 206, 207, 208, 209, 210, 211, 212, 213, 214, 215, 216, 217, 218, 219, 220, 221, 222, 223, 224, 225, 226, 227, 228, 229, 230, 231, 232, 233, 234, 235, 236, 237, 238, 239, 240, 241, 242, 243, 244, 245, 246, 247, 248, 249, 250, 251, 252, 253, 254, 255, 256, 257, 258, 259, 260, 261, 262, 263, 264, 265, 266, 267, 268, 269, 270, 271, 272, 273, 274, 275, 276, 277, 278, 279, 280, 281, 282, 283, 284, 285, 286, 287, 288, 289, 290, 291, 292, 293, 294, 295, 296, 297, 298, 299, 300, 301, 302, 303, 304, 305, 306, 307, 308, 309, 310, 311, 312, 313, 314, 315, 316, 317, 318, 319, 320, 321, 322, 323, 324, 325, 326, 327, 328, 329, 330, 331, 332, 333, 334, 335, 336, 337, 338, 339, 340, 341, 342, 343, 344, 345, 346, 347, 348, 349, 350, 351, 352, 353, 354, 355, 356, 357, 358, 359, 360, 361, 362, 363, 364, 365, 366, 367, 368, 369, 370, 371, 372, 373, 374, 375, 376, 377, 378, 379, 380, 381, 382, 383, 384, 385, 386, 387, 388, 389, 390, 391, 392, 393, 394, 395, 396, 397, 398, 399, 400, 401, 402, 403, 404, 405, 406, 407, 408, 409, 410, 411, 412, 413, 414, 415, 416, 417, 418, 419, 420, 421, 422, 423, 424, 425, 426, 427, 428, 429, 430, 431, 432, 433, 434, 435, 436, 437, 438, 439, 440, 441, 442, 443, 444, 445, 446, 447, 448, 449, 450, 451, 452, 453, 454, 455, 456, 457, 458, 459, 460, 461, 462],
      "AcquisitionTime": ["160557.007500", "160558.497500", "160559.987500", "160601.477500", "160602.967500", "160604.457500", "160605.947500", "160607.437500", "160608.927500", "160610.417500", "160611.907500", "160613.397500", "160614.887500", "160616.377500", "160617.867500", "160619.357500", "160620.847500", "160622.337500", "160623.827500", "160625.317500", "160626.807500", "160628.297500", "160629.787500", "160631.277500", "160632.767500", "160634.257500", "160635.747500", "160637.237500", "160638.727500", "160640.217500", "160641.707500", "160643.197500", "160644.687500", "160646.177500", "160647.667500", "160649.157500", "160650.647500", "160652.137500", "160653.627500", "160655.117500", "160656.607500", "160658.097500", "160659.587500", "160701.077500", "160702.567500", "160704.057500", "160705.547500", "160707.037500", "160708.527500", "160710.017500", "160711.507500", "160712.997500", "160714.487500", "160715.977500", "160717.467500", "160718.957500", "160720.447500", "160721.937500", "160723.427500", "160724.917500", "160726.407500", "160727.897500", "160729.387500", "160730.877500", "160732.367500", "160733.857500", "160735.347500", "160736.837500", "160738.327500", "160739.817500", "160741.307500", "160742.797500", "160744.287500", "160745.777500", "160747.267500", "160748.757500", "160750.247500", "160751.737500", "160753.227500", "160754.717500", "160756.207500", "160757.697500", "160759.187500", "160800.677500", "160802.167500", "160803.657500", "160805.147500", "160806.637500", "160808.127500", "160809.617500", "160811.107500", "160812.597500", "160814.087500", "160815.577500", "160817.067500", "160818.557500", "160820.047500", "160821.537500", "160823.027500", "160824.517500", "160826.007500", "160827.497500", "160828.987500", "160830.477500", "160831.967500", "160833.457500", "160834.947500", "160836.437500", "160837.927500", "160839.417500", "160840.907500", "160842.397500", "160843.887500", "160845.377500", "160846.867500", "160848.357500", "160849.847500", "160851.337500", "160852.827500", "160854.317500", "160855.807500", "160857.297500", "160858.787500", "160900.277500", "160901.767500", "160903.257500", "160904.747500", "160906.237500", "160907.727500", "160909.217500", "160910.707500", "160912.197500", "160913.687500", "160915.177500", "160916.667500", "160918.157500", "160919.647500", "160921.137500", "160922.627500", "160924.117500", "160925.607500", "160927.097500", "160928.587500", "160930.077500", "160931.567500", "160933.057500", "160934.547500", "160936.037500", "160937.527500", "160939.017500", "160940.507500", "160941.997500", "160943.487500", "160944.977500", "160946.467500", "160947.957500", "160949.447500", "160950.937500", "160952.427500", "160953.917500", "160955.407500", "160956.897500", "160958.387500", "160959.877500", "161001.367500", "161002.857500", "161004.347500", "161005.837500", "161007.327500", "161008.817500", "161010.307500", "161011.797500", "161013.287500", "161014.777500", "161016.267500", "161017.757500", "161019.247500", "161020.737500", "161022.227500", "161023.717500", "161025.207500", "161026.697500", "161028.187500", "161029.677500", "161031.167500", "161032.657500", "161034.147500", "161035.637500", "161037.127500", "161038.617500", "161040.107500", "161041.597500", "161043.087500", "161044.577500", "161046.067500", "161047.557500", "161049.047500", "161050.537500", "161052.027500", "161053.517500", "161055.007500", "161056.497500", "161057.987500", "161059.477500", "161100.967500", "161102.457500", "161103.947500", "161105.437500", "161106.927500", "161108.417500", "161109.907500", "161111.397500", "161112.887500", "161114.377500", "161115.867500", "161117.357500", "161118.847500", "161120.337500", "161121.827500", "161123.317500", "161124.807500", "161126.297500", "161127.787500", "161129.277500", "161130.767500", "161132.257500", "161133.747500", "161135.237500", "161136.727500", "161138.217500", "161139.707500", "161141.197500", "161142.687500", "161144.177500", "161145.667500", "161147.157500", "161148.647500", "161150.137500", "161151.627500", "161153.117500", "161154.607500", "161156.097500", "161157.587500", "161159.077500", "161200.567500", "161202.057500", "161203.547500", "161205.037500", "161206.527500", "161208.017500", "161209.507500", "161210.997500", "161212.487500", "161213.977500", "161215.467500", "161216.957500", "161218.447500", "161219.937500", "161221.427500", "161222.917500", "161224.407500", "161225.897500", "161227.387500", "161228.877500", "161230.367500", "161231.857500", "161233.347500", "161234.837500", "161236.327500", "161237.817500", "161239.307500", "161240.797500", "161242.287500", "161243.777500", "161245.267500", "161246.757500", "161248.247500", "161249.737500", "161251.227500", "161252.717500", "161254.207500", "161255.697500", "161257.187500", "161258.677500", "161300.167500", "161301.657500", "161303.147500", "161304.637500", "161306.127500", "161307.617500", "161309.107500", "161310.597500", "161312.087500", "161313.577500", "161315.067500", "161316.557500", "161318.047500", "161319.537500", "161321.027500", "161322.517500", "161324.007500", "161325.497500", "161326.987500", "161328.477500", "161329.967500", "161331.457500", "161332.947500", "161334.437500", "161335.927500", "161337.417500", "161338.907500", "161340.397500", "161341.887500", "161343.377500", "161344.867500", "161346.357500", "161347.847500", "161349.337500", "161350.827500", "161352.317500", "161353.807500", "161355.297500", "161356.787500", "161358.277500", "161359.767500", "161401.257500", "161402.747500", "161404.237500", "161405.727500", "161407.217500", "161408.707500", "161410.197500", "161411.687500", "161413.177500", "161414.667500", "161416.157500", "161417.647500", "161419.137500", "161420.627500", "161422.117500", "161423.607500", "161425.097500", "161426.587500", "161428.077500", "161429.567500", "161431.057500", "161432.547500", "161434.037500", "161435.527500", "161437.017500", "161438.507500", "161439.997500", "161441.487500", "161442.977500", "161444.467500", "161445.957500", "161447.447500", "161448.937500", "161450.427500", "161451.917500", "161453.407500", "161454.897500", "161456.387500", "161457.877500", "161459.367500", "161500.857500", "161502.347500", "161503.837500", "161505.327500", "161506.817500", "161508.307500", "161509.797500", "161511.287500", "161512.777500", "161514.267500", "161515.757500", "161517.247500", "161518.737500", "161520.227500", "161521.717500", "161523.207500", "161524.697500", "161526.187500", "161527.677500", "161529.167500", "161530.657500", "161532.147500", "161533.637500", "161535.127500", "161536.617500", "161538.107500", "161539.597500", "161541.087500", "161542.577500", "161544.067500", "161545.557500", "161547.047500", "161548.537500", "161550.027500", "161551.517500", "161553.007500", "161554.497500", "161555.987500", "161557.477500", "161558.967500", "161600.457500", "161601.947500", "161603.437500", "161604.927500", "161606.417500", "161607.907500", "161609.397500", "161610.887500", "161612.377500", "161613.867500", "161615.357500", "161616.847500", "161618.337500", "161619.827500", "161621.317500", "161622.807500", "161624.297500", "161625.787500", "161627.277500", "161628.767500", "161630.257500", "161631.747500", "161633.237500", "161634.727500", "161636.217500", "161637.707500", "161639.197500", "161640.687500", "161642.177500", "161643.667500", "161645.157500", "161646.647500", "161648.137500", "161649.627500", "161651.117500", "161652.607500", "161654.097500", "161655.587500", "161657.077500", "161658.567500", "161700.057500", "161701.547500", "161703.037500", "161704.527500", "161706.017500", "161707.507500", "161708.997500", "161710.487500", "161711.977500", "161713.467500", "161714.957500", "161716.447500", "161717.937500", "161719.427500", "161720.917500", "161722.407500", "161723.897500"],
      "ContentTime": ["160658.424000", "160658.428000", "160658.432000", "160658.435000", "160658.438000", "160658.446000", "160658.449000", "160718.380000", "160718.384000", "160718.387000", "160718.391000", "160718.394000", "160718.397000", "160718.401000", "160718.405000", "160718.408000", "160718.412000", "160718.415000", "160718.419000", "160718.422000", "160718.426000", "160718.429000", "160718.432000", "160718.436000", "160718.439000", "160718.443000", "160718.446000", "160718.449000", "160738.380000", "160738.384000", "160738.387000", "160738.391000", "160738.394000", "160738.398000", "160738.402000", "160738.405000", "160738.409000", "160738.412000", "160738.415000", "160738.426000", "160738.430000", "160738.433000", "160738.437000", "160738.440000", "160738.443000", "160738.447000", "160738.450000", "160738.465000", "160758.379000", "160758.389000", "160758.392000", "160758.396000", "160758.399000", "160758.403000", "160758.406000", "160758.409000", "160758.413000", "160758.416000", "160758.420000", "160758.423000", "160758.426000", "160758.430000", "160758.433000", "160758.440000", "160758.443000", "160758.447000", "160758.450000", "160758.453000", "160818.379000", "160818.383000", "160818.386000", "160818.390000", "160818.393000", "160818.396000", "160818.400000", "160818.403000", "160818.407000", "160818.410000", "160818.413000", "160818.417000", "160818.420000", "160818.424000", "160818.427000", "160818.431000", "160818.434000", "160818.438000", "160818.441000", "160818.445000", "160838.380000", "160838.384000", "160838.387000", "160838.391000", "160838.394000", "160838.398000", "160838.401000", "160838.404000", "160838.408000", "160838.411000", "160838.415000", "160838.418000", "160838.421000", "160838.425000", "160838.428000", "160838.431000", "160838.435000", "160838.438000", "160838.442000", "160838.445000", "160918.380000", "160918.384000", "160918.387000", "160918.391000", "160918.394000", "160918.398000", "160918.401000", "160918.404000", "160918.408000", "160918.411000", "160918.414000", "160918.418000", "160918.421000", "160918.425000", "160918.428000", "160918.432000", "160918.435000", "160918.438000", "160918.442000", "160918.445000", "160918.449000", "160918.452000", "160918.455000", "160918.459000", "160918.463000", "160918.467000", "160958.380000", "160958.384000", "160958.387000", "160958.391000", "160958.394000", "160958.408000", "160958.412000", "160958.415000", "160958.418000", "160958.422000", "160958.425000", "160958.429000", "160958.432000", "160958.435000", "160958.439000", "160958.442000", "160958.446000", "160958.449000", "160958.452000", "160958.456000", "160958.459000", "160958.463000", "160958.466000", "160958.469000", "160958.473000", "160958.476000", "160958.480000", "161038.379000", "161038.383000", "161038.386000", "161038.390000", "161038.393000", "161038.397000", "161038.400000", "161038.404000", "161038.407000", "161038.410000", "161038.414000", "161038.417000", "161038.421000", "161038.424000", "161038.427000", "161038.431000", "161038.434000", "161038.438000", "161038.441000", "161038.444000", "161038.448000", "161038.451000", "161038.455000", "161038.458000", "161038.461000", "161038.465000", "161038.468000", "161118.379000", "161118.383000", "161118.386000", "161118.390000", "161118.393000", "161118.397000", "161118.400000", "161118.411000", "161118.421000", "161118.425000", "161118.428000", "161118.432000", "161118.435000", "161118.439000", "161118.442000", "161118.446000", "161118.449000", "161118.453000", "161118.456000", "161118.460000", "161118.463000", "161118.467000", "161118.470000", "161118.474000", "161118.477000", "161118.480000", "161118.484000", "161158.380000", "161158.384000", "161158.388000", "161158.391000", "161158.402000", "161158.405000", "161158.408000", "161158.412000", "161158.415000", "161158.419000", "161158.422000", "161158.425000", "161158.429000", "161158.432000", "161158.436000", "161158.439000", "161158.443000", "161158.446000", "161158.449000", "161158.461000", "161158.464000", "161158.468000", "161158.471000", "161158.475000", "161158.478000", "161158.481000", "161158.485000", "161238.379000", "161238.383000", "161238.386000", "161238.390000", "161238.394000", "161238.397000", "161238.401000", "161238.405000", "161238.408000", "161238.411000", "161238.415000", "161238.419000", "161238.422000", "161238.426000", "161238.429000", "161238.433000", "161238.436000", "161238.439000", "161238.443000", "161238.446000", "161238.450000", "161238.453000", "161238.456000", "161238.460000", "161238.463000", "161238.467000", "161238.470000", "161318.379000", "161318.383000", "161318.387000", "161318.390000", "161318.394000", "161318.397000", "161318.401000", "161318.404000", "161318.408000", "161318.412000", "161318.415000", "161318.418000", "161318.447000", "161318.451000", "161318.454000", "161318.463000", "161318.467000", "161318.471000", "161318.474000", "161318.478000", "161318.482000", "161318.487000", "161318.492000", "161318.495000", "161318.499000", "161318.503000", "161358.380000", "161358.384000", "161358.388000", "161358.391000", "161358.395000", "161358.398000", "161358.402000", "161358.405000", "161358.409000", "161358.412000", "161358.416000", "161358.420000", "161358.423000", "161358.427000", "161358.430000", "161358.434000", "161358.437000", "161358.441000", "161358.444000", "161358.448000", "161358.451000", "161358.455000", "161358.459000", "161358.462000", "161358.465000", "161358.476000", "161358.480000", "161438.380000", "161438.384000", "161438.388000", "161438.391000", "161438.395000", "161438.398000", "161438.402000", "161438.405000", "161438.409000", "161438.412000", "161438.416000", "161438.419000", "161438.423000", "161438.426000", "161438.430000", "161438.433000", "161438.437000", "161438.440000", "161438.443000", "161438.447000", "161438.451000", "161438.454000", "161438.457000", "161438.461000", "161438.464000", "161438.468000", "161438.471000", "161518.379000", "161518.383000", "161518.387000", "161518.390000", "161518.394000", "161518.397000", "161518.401000", "161518.404000", "161518.408000", "161518.411000", "161518.415000", "161518.418000", "161518.422000", "161518.425000", "161518.429000", "161518.432000", "161518.435000", "161518.439000", "161518.442000", "161518.446000", "161518.449000", "161518.453000", "161518.456000", "161518.459000", "161518.463000", "161518.466000", "161518.470000", "161558.380000", "161558.384000", "161558.388000", "161558.391000", "161558.395000", "161558.398000", "161558.402000", "161558.405000", "161558.410000", "161558.413000", "161558.417000", "161558.420000", "161558.424000", "161558.427000", "161558.430000", "161558.434000", "161558.437000", "161558.441000", "161558.444000", "161558.448000", "161558.451000", "161558.454000", "161558.458000", "161558.461000", "161558.465000", "161558.468000", "161558.471000", "161638.381000", "161638.384000", "161638.388000", "161638.391000", "161638.395000", "161638.398000", "161638.402000", "161638.405000", "161638.408000", "161638.412000", "161638.415000", "161638.440000", "161638.443000", "161638.447000", "161638.450000", "161638.456000", "161638.459000", "161638.463000", "161638.466000", "161638.470000", "161638.473000", "161638.477000", "161638.480000", "161638.484000", "161638.487000", "161638.490000", "161638.494000", "161718.379000", "161718.384000", "161718.388000", "161718.392000", "161718.395000", "161718.399000", "161718.402000", "161718.406000", "161718.409000", "161718.413000", "161718.416000", "161718.420000", "161718.423000", "161718.427000", "161718.430000", "161718.434000", "161718.437000", "161718.441000", "161718.444000", "161718.448000", "161718.451000", "161718.454000", "161718.458000", "161718.467000", "161718.471000", "161718.474000", "161718.477000", "161725.911000", "161725.914000", "161725.918000", "161725.921000", "161725.925000"],
