{
  "AcquisitionMatrixPE": 104,
  "AcquisitionNumber": 1,
  "AcquisitionTime": "16:21:33.542500",
  "BandwidthPerPixelPhaseEncode": 17.17,
  "BaseResolution": 104,
  "BodyPartExamined": "BRAIN",
  "CoilCombinationMethod": "Sum of Squares",
  "ConsistencyInfo": "N4_VE11C_LATEST_20160120",
  "ConversionSoftware": "dcm2niix",
  "ConversionSoftwareVersion": "v1.0.20211006",
  "DerivedVendorReportedEchoSpacing": 0.000560011,
  "DeviceSerialNumber": "167006",
  "DwellTime": 2.1e-06,
  "EchoTime": 0.037,
  "EchoTime1": 0.037,
  "EchoTime2": 0.001,
  "EchoTrainLength": 104,
  "EffectiveEchoSpacing": 0.000560011,
  "FlipAngle": 52,
  "HeudiconvVersion": "0.10.0",
  "ImageComments": "Unaliased MB4/PE3/LB",
  "ImageOrientationPatientDICOM": [0.999455, 0.0140885, 0.0298608, -0.00627982, 0.968998, -0.246989],
  "ImageOrientationText": "Tra>Cor(-14.3)>Sag(1.9)",
  "ImageType": [
    "ORIGINAL",
    "PRIMARY",
    "P",
    "MB",
    "ND",
    "MOSAIC",
    "PHASE"
],
  "ImagingFrequency": 123.259,
  "InPlanePhaseEncodingDirectionDICOM": "COL",
  "InstitutionAddress": "Chemin Queen-Mary 4565,Montreal,District,CA,H3W 1W5",
  "InstitutionName": "IUGM",
  "InstitutionalDepartmentName": "Department",
  "MRAcquisitionType": "2D",
  "MagneticFieldStrength": 3,
  "Manufacturer": "Siemens",
  "ManufacturersModelName": "Prisma_fit",
  "MatrixCoilMode": "SENSE",
  "Modality": "MR",
  "MultibandAccelerationFactor": 4,
  "PartialFourier": 1,
  "PatientPosition": "HFS",
  "PercentPhaseFOV": 100,
  "PercentSampling": 100,
  "PhaseEncodingDirection": "j",
  "PhaseEncodingSteps": 104,
  "PhaseResolution": 1,
  "PixelBandwidth": 2290,
  "ProcedureStepDescription": "games^mario",
  "ProtocolName": "func_task-mario_run-02",
  "PulseSequenceDetails": "%CustomerSeq%\\cmrr_mbep2d_bold",
  "ReceiveCoilActiveElements": "HC1-7;NC1,2",
  "ReceiveCoilName": "HeadNeck_64",
  "ReconMatrixPE": 104,
  "RepetitionTime": 1.49,
  "SAR": 0.0493861,
  "ScanOptions": "FS",
  "ScanningSequence": "EP",
  "SequenceName": "epfid2d1_104",
  "SequenceVariant": "SK\\SS",
  "SeriesDescription": "func_task-mario_run-02",
  "SeriesNumber": 14,
  "ShimSetting": [636, -7226, -8761, 711, 48, -32, 102, -21],
  "SliceThickness": 2,
  "SliceTiming": [0, 0.7825, 0.0975, 0.88, 0.195, 0.98, 0.2925, 1.0775, 0.39, 1.175, 0.49, 1.2725, 0.5875, 1.37, 0.685, 0, 0.7825, 0.0975, 0.88, 0.195, 0.98, 0.2925, 1.0775, 0.39, 1.175, 0.49, 1.2725, 0.5875, 1.37, 0.685, 0, 0.7825, 0.0975, 0.88, 0.195, 0.98, 0.2925, 1.0775, 0.39, 1.175, 0.49, 1.2725, 0.5875, 1.37, 0.685, 0, 0.7825, 0.0975, 0.88, 0.195, 0.98, 0.2925, 1.0775, 0.39, 1.175, 0.49, 1.2725, 0.5875, 1.37, 0.685],
  "SoftwareVersions": "syngo MR E11",
  "SpacingBetweenSlices": 2,
  "StationName": "MRC35049",
  "TaskName": "mario",
  "TotalReadoutTime": 0.0576811,
  "TxRefAmp": 231.086,
  "WipMemBlock": "21fe8178-9063-4fdc-8a63-04097d02a530||Sequence: R016 ve11c/master r/e634e98; Dec 19 2017 11:00:25 by eja",
  "dcmmeta_affine": [
    [-1.998909592628479, -0.012559632770717144, 0.06482949107885361, 108.38021087646484],
    [-0.02817692793905735, 1.9379956722259521, -0.4933343529701233, -73.24298858642578],
    [0.05972158908843994, 0.49397873878479004, 1.9371159076690674, -55.229209899902344],
    [0.0, 0.0, 0.0, 1.0]
],
  "dcmmeta_reorient_transform": [
    [0.0, -1.0, 0.0, 103.0],
    [1.0, 0.0, 0.0, 0.0],
    [0.0, 0.0, 1.0, 0.0],
    [0.0, 0.0, 0.0, 1.0]
],
  "dcmmeta_shape": [104, 104, 60, 463],
  "dcmmeta_slice_dim": 2,
  "dcmmeta_version": 0.6,
  "global": {
    "const": {
      "AcquisitionMatrix": [104, 0, 0, 104],
      "AngioFlag": "N",
      "BitsAllocated": 16,
      "BitsStored": 16,
      "BodyPartExamined": "BRAIN",
      "Columns": 832,
      "EchoNumbers": 1,
      "EchoTime": 37.0,
      "EchoTrainLength": 104,
      "FlipAngle": 52.0,
      "HighBit": 15,
      "ImageOrientationPatient": [0.99945477544179, 0.01408846382206, 0.02986079425839, -0.006279816421, 0.96899784248172, -0.2469893624663],
      "ImagePositionPatient": [-830.11794117998, -842.0573978329, 153.72019787492],
      "ImageType": [
        "ORIGINAL",
        "PRIMARY",
        "P",
        "MB",
        "ND",
        "MOSAIC"
],
      "ImagedNucleus": "1H",
      "ImagingFrequency": 123.258879,
      "InPlanePhaseEncodingDirection": "COL",
      "LargestImagePixelValue": 4095,
      "MRAcquisitionType": "2D",
      "MagneticFieldStrength": 3.0,
      "Manufacturer": "SIEMENS",
      "ManufacturerModelName": "Prisma_fit",
      "Modality": "MR",
      "NumberOfAverages": 1.0,
      "NumberOfPhaseEncodingSteps": 104,
      "PercentPhaseFieldOfView": 100.0,
      "PercentSampling": 100.0,
      "PerformedProcedureStepStartTime": "160209.214000",
      "PhotometricInterpretation": "MONOCHROME2",
      "PixelBandwidth": 2290.0,
      "PixelRepresentation": 0,
      "PixelSpacing": [2.0, 2.0],
      "ProtocolName": "func_task-mario_run-02",
      "RepetitionTime": 1490.0,
      "RescaleIntercept": -4096.0,
      "RescaleSlope": 2.0,
      "RescaleType": "US",
      "Rows": 832,
      "SAR": 0.04938609586305,
      "SamplesPerPixel": 1,
      "ScanOptions": "FS",
      "ScanningSequence": "EP",
      "SequenceName": "epfid2d1_104",
      "SequenceVariant": [
        "SK",
        "SS"
],
      "SeriesDescription": "func_task-mario_run-02",
      "SeriesNumber": 14,
      "SeriesTime": "162300.264000",
      "SliceLocation": -31.912932978595,
      "SliceThickness": 2.0,
      "SmallestImagePixelValue": 0,
      "SoftwareVersions": "syngo MR E11",
      "SpacingBetweenSlices": 1.9999999584799,
      "SpecificCharacterSet": "ISO_IR 100",
      "StudyID": "1",
      "StudyTime": "160209.157000",
      "TransmitCoilName": "Body",
      "VariableFlipAngleFlag": "N",
      "WindowCenterWidthExplanation": "Algo1",
      "dBdt": 0.0},
    "slices": {}
  },
  "time": {
    "samples": {
      "AcquisitionNumber": [1, 2, 3, 4, 5, 6, 7, 8, 9, 10, 11, 12, 13, 14, 15, 16, 17, 18, 19, 20, 21, 22, 23, 24, 25, 26, 27, 28, 29, 30, 31, 32, 33, 34, 35, 36, 37, 38, 39, 40, 41, 42, 43, 44, 45, 46, 47, 48, 49, 50, 51, 52, 53, 54, 55, 56, 57, 58, 59, 60, 61, 62, 63, 64, 65, 66, 67, 68, 69, 70, 71, 72, 73, 74, 75, 76, 77, 78, 79, 80, 81, 82, 83, 84, 85, 86, 87, 88, 89, 90, 91, 92, 93, 94, 95, 96, 97, 98, 99, 100, 101, 102, 103, 104, 105, 106, 107, 108, 109, 110, 111, 112, 113, 114, 115, 116, 117, 118, 119, 120, 121, 122, 123, 124, 125, 126, 127, 128, 129, 130, 131, 132, 133, 134, 135, 136, 137, 138, 139, 140, 141, 142, 143, 144, 145, 146, 147, 148, 149, 150, 151, 152, 153, 154, 155, 156, 157, 158, 159, 160, 161, 162, 163, 164, 165, 166, 167, 168, 169, 170, 171, 172, 173, 174, 175, 176, 177, 178, 179, 180, 181, 182, 183, 184, 185, 186, 187, 188, 189, 190, 191, 192, 193, 194, 195, 196, 197, 198, 199, 200, 201, 202, 203, 204, 205, 206, 207, 208, 209, 210, 211, 212, 213, 214, 215, 216, 217, 218, 219, 220, 221, 222, 223, 224, 225, 226, 227, 228, 229, 230, 231, 232, 233, 234, 235, 236, 237, 238, 239, 240, 241, 242, 243, 244, 245, 246, 247, 248, 249, 250, 251, 252, 253, 254, 255, 256, 257, 258, 259, 260, 261, 262, 263, 264, 265, 266, 267, 268, 269, 270, 271, 272, 273, 274, 275, 276, 277, 278, 279, 280, 281, 282, 283, 284, 285, 286, 287, 288, 289, 290, 291, 292, 293, 294, 295, 296, 297, 298, 299, 300, 301, 302, 303, 304, 305, 306, 307, 308, 309, 310, 311, 312, 313, 314, 315, 316, 317, 318, 319, 320, 321, 322, 323, 324, 325, 326, 327, 328, 329, 330, 331, 332, 333, 334, 335, 336, 337, 338, 339, 340, 341, 342, 343, 344, 345, 346, 347, 348, 349, 350, 351, 352, 353, 354, 355, 356, 357, 358, 359, 360, 361, 362, 363, 364, 365, 366, 367, 368, 369, 370, 371, 372, 373, 374, 375, 376, 377, 378, 379, 380, 381, 382, 383, 384, 385, 386, 387, 388, 389, 390, 391, 392, 393, 394, 395, 396, 397, 398, 399, 400, 401, 402, 403, 404, 405, 406, 407, 408, 409, 410, 411, 412, 413, 414, 415, 416, 417, 418, 419, 420, 421, 422, 423, 424, 425, 426, 427, 428, 429, 430, 431, 432, 433, 434, 435, 436, 437, 438, 439, 440, 441, 442, 443, 444, 445, 446, 447, 448, 449, 450, 451, 452, 453, 454, 455, 456, 457, 458, 459, 460, 461, 462, 463],
      "AcquisitionTime": ["162133.542500", "162135.032500", "162136.522500", "162138.012500", "162139.502500", "162140.992500", "162142.482500", "162143.972500", "162145.462500", "162146.952500", "162148.442500", "162149.932500", "162151.422500", "162152.912500", "162154.402500", "162155.892500", "162157.382500", "162158.872500", "162200.362500", "162201.852500", "162203.342500", "162204.832500", "162206.322500", "162207.812500", "162209.302500", "162210.792500", "162212.282500", "162213.772500", "162215.262500", "162216.752500", "162218.242500", "162219.732500", "162221.222500", "162222.712500", "162224.202500", "162225.692500", "162227.182500", "162228.672500", "162230.162500", "162231.652500", "162233.142500", "162234.632500", "162236.122500", "162237.612500", "162239.102500", "162240.592500", "162242.082500", "162243.572500", "162245.062500", "162246.552500", "162248.042500", "162249.532500", "162251.022500", "162252.512500", "162254.002500", "162255.492500", "162256.982500", "162258.472500", "162259.962500", "162301.452500", "162302.942500", "162304.432500", "162305.922500", "162307.412500", "162308.902500", "162310.392500", "162311.882500", "162313.372500", "162314.862500", "162316.352500", "162317.842500", "162319.332500", "162320.822500", "162322.312500", "162323.802500", "162325.292500", "162326.782500", "162328.272500", "162329.762500", "162331.252500", "162332.742500", "162334.232500", "162335.722500", "162337.212500", "162338.702500", "162340.192500", "162341.682500", "162343.172500", "162344.662500", "162346.152500", "162347.642500", "162349.132500", "162350.622500", "162352.112500", "162353.602500", "162355.092500", "162356.582500", "162358.072500", "162359.562500", "162401.052500", "162402.542500", "162404.032500", "162405.522500", "162407.012500", "162408.502500", "162409.992500", "162411.482500", "162412.972500", "162414.462500", "162415.952500", "162417.442500", "162418.932500", "162420.422500", "162421.912500", "162423.402500", "162424.892500", "162426.382500", "162427.872500", "162429.362500", "162430.852500", "162432.342500", "162433.832500", "162435.322500", "162436.812500", "162438.302500", "162439.792500", "162441.282500", "162442.772500", "162444.262500", "162445.752500", "162447.242500", "162448.732500", "162450.222500", "162451.712500", "162453.202500", "162454.692500", "162456.182500", "162457.672500", "162459.162500", "162500.652500", "162502.142500", "162503.632500", "162505.122500", "162506.612500", "162508.102500", "162509.592500", "162511.082500", "162512.572500", "162514.062500", "162515.552500", "162517.042500", "162518.532500", "162520.022500", "162521.512500", "162523.002500", "162524.492500", "162525.982500", "162527.472500", "162528.962500", "162530.452500", "162531.942500", "162533.432500", "162534.922500", "162536.412500", "162537.902500", "162539.392500", "162540.882500", "162542.372500", "162543.862500", "162545.352500", "162546.842500", "162548.332500", "162549.822500", "162551.312500", "162552.802500", "162554.292500", "162555.782500", "162557.272500", "162558.762500", "162600.252500", "162601.742500", "162603.232500", "162604.722500", "162606.212500", "162607.702500", "162609.192500", "162610.682500", "162612.172500", "162613.662500", "162615.152500", "162616.642500", "162618.132500", "162619.622500", "162621.112500", "162622.602500", "162624.092500", "162625.582500", "162627.072500", "162628.562500", "162630.052500", "162631.542500", "162633.032500", "162634.522500", "162636.012500", "162637.502500", "162638.992500", "162640.482500", "162641.972500", "162643.462500", "162644.952500", "162646.442500", "162647.932500", "162649.422500", "162650.912500", "162652.402500", "162653.892500", "162655.382500", "162656.872500", "162658.362500", "162659.852500", "162701.342500", "162702.832500", "162704.322500", "162705.812500", "162707.302500", "162708.792500", "162710.282500", "162711.772500", "162713.262500", "162714.752500", "162716.242500", "162717.732500", "162719.222500", "162720.712500", "162722.202500", "162723.692500", "162725.182500", "162726.672500", "162728.162500", "162729.652500", "162731.142500", "162732.632500", "162734.122500", "162735.612500", "162737.102500", "162738.592500", "162740.082500", "162741.572500", "162743.062500", "162744.552500", "162746.042500", "162747.532500", "162749.022500", "162750.512500", "162752.002500", "162753.492500", "162754.982500", "162756.472500", "162757.962500", "162759.452500", "162800.942500", "162802.432500", "162803.922500", "162805.412500", "162806.902500", "162808.392500", "162809.882500", "162811.372500", "162812.862500", "162814.352500", "162815.842500", "162817.332500", "162818.822500", "162820.312500", "162821.802500", "162823.292500", "162824.782500", "162826.272500", "162827.762500", "162829.252500", "162830.742500", "162832.232500", "162833.722500", "162835.212500", "162836.702500", "162838.192500", "162839.682500", "162841.172500", "162842.662500", "162844.152500", "162845.642500", "162847.132500", "162848.622500", "162850.112500", "162851.602500", "162853.092500", "162854.582500", "162856.072500", "162857.562500", "162859.052500", "162900.542500", "162902.032500", "162903.522500", "162905.012500", "162906.502500", "162907.992500", "162909.482500", "162910.972500", "162912.462500", "162913.952500", "162915.442500", "162916.932500", "162918.422500", "162919.912500", "162921.402500", "162922.892500", "162924.382500", "162925.872500", "162927.362500", "162928.852500", "162930.342500", "162931.832500", "162933.322500", "162934.812500", "162936.302500", "162937.792500", "162939.282500", "162940.772500", "162942.262500", "162943.752500", "162945.242500", "162946.732500", "162948.222500", "162949.712500", "162951.202500", "162952.692500", "162954.182500", "162955.672500", "162957.162500", "162958.652500", "163000.142500", "163001.632500", "163003.122500", "163004.612500", "163006.102500", "163007.592500", "163009.082500", "163010.572500", "163012.062500", "163013.552500", "163015.042500", "163016.532500", "163018.022500", "163019.512500", "163021.002500", "163022.492500", "163023.982500", "163025.472500", "163026.962500", "163028.452500", "163029.942500", "163031.432500", "163032.922500", "163034.412500", "163035.902500", "163037.392500", "163038.882500", "163040.372500", "163041.862500", "163043.352500", "163044.842500", "163046.332500", "163047.822500", "163049.312500", "163050.802500", "163052.292500", "163053.782500", "163055.272500", "163056.762500", "163058.252500", "163059.742500", "163101.232500", "163102.722500", "163104.212500", "163105.702500", "163107.192500", "163108.682500", "163110.172500", "163111.662500", "163113.152500", "163114.642500", "163116.132500", "163117.622500", "163119.112500", "163120.602500", "163122.092500", "163123.582500", "163125.072500", "163126.562500", "163128.052500", "163129.542500", "163131.032500", "163132.522500", "163134.012500", "163135.502500", "163136.992500", "163138.482500", "163139.972500", "163141.462500", "163142.952500", "163144.442500", "163145.932500", "163147.422500", "163148.912500", "163150.402500", "163151.892500", "163153.382500", "163154.872500", "163156.362500", "163157.852500", "163159.342500", "163200.832500", "163202.322500", "163203.812500", "163205.302500", "163206.792500", "163208.282500", "163209.772500", "163211.262500", "163212.752500", "163214.242500", "163215.732500", "163217.222500", "163218.712500", "163220.202500", "163221.692500", "163223.182500", "163224.672500", "163226.162500", "163227.652500", "163229.142500", "163230.632500", "163232.122500", "163233.612500", "163235.102500", "163236.592500", "163238.082500", "163239.572500", "163241.062500", "163242.552500", "163244.042500", "163245.532500", "163247.022500", "163248.512500", "163250.002500", "163251.492500", "163252.982500", "163254.472500", "163255.962500", "163257.452500", "163258.942500", "163300.432500", "163301.922500"],
      "ContentTime": ["162300.266000", "162300.269000", "162300.272000", "162300.274000", "162300.277000", "162300.279000", "162300.282000", "162300.285000", "162300.287000", "162300.290000", "162300.292000", "162300.295000", "162300.297000", "162300.300000", "162300.302000", "162300.305000", "162300.307000", "162300.310000", "162300.312000", "162300.315000", "162300.324000", "162300.327000", "162300.329000", "162300.332000", "162300.334000", "162300.337000", "162300.339000", "162300.342000", "162300.344000", "162320.228000", "162320.231000", "162320.234000", "162320.236000", "162320.239000", "162320.242000", "162320.244000", "162320.247000", "162320.250000", "162320.253000", "162320.256000", "162320.259000", "162320.262000", "162320.265000", "162320.268000", "162320.271000", "162320.273000", "162320.276000", "162320.278000", "162320.281000", "162340.205000", "162340.207000", "162340.210000", "162340.213000", "162340.215000", "162340.218000", "162340.220000", "162340.223000", "162340.226000", "162340.228000", "162340.231000", "162340.233000", "162340.236000", "162340.238000", "162340.241000", "162340.243000", "162340.246000", "162340.248000", "162340.251000", "162340.253000", "162340.256000", "162400.192000", "162400.195000", "162400.198000", "162400.200000", "162400.203000", "162400.214000", "162400.216000", "162400.219000", "162400.221000", "162400.224000", "162400.227000", "162400.229000", "162400.238000", "162400.241000", "162400.243000", "162400.246000", "162400.248000", "162400.251000", "162400.254000", "162400.256000", "162420.197000", "162420.200000", "162420.202000", "162420.205000", "162420.208000", "162420.210000", "162420.219000", "162420.222000", "162420.224000", "162420.234000", "162420.237000", "162420.245000", "162420.248000", "162420.250000", "162420.253000", "162420.255000", "162420.258000", "162420.261000", "162420.263000", "162420.266000", "162500.227000", "162500.230000", "162500.233000", "162500.235000", "162500.238000", "162500.240000", "162500.243000", "162500.245000", "162500.248000", "162500.251000", "162500.253000", "162500.256000", "162500.258000", "162500.261000", "162500.263000", "162500.266000", "162500.268000", "162500.271000", "162500.273000", "162500.276000", "162500.279000", "162500.281000", "162500.284000", "162500.286000", "162500.289000", "162500.291000", "162500.294000", "162500.296000", "162540.652000", "162540.664000", "162540.667000", "162540.669000", "162540.672000", "162540.674000", "162540.677000", "162540.680000", "162540.682000", "162540.685000", "162540.688000", "162540.690000", "162540.702000", "162540.704000", "162540.707000", "162540.710000", "162540.712000", "162540.715000", "162540.717000", "162540.720000", "162540.723000", "162540.725000", "162540.728000", "162540.730000", "162540.733000", "162540.735000", "162620.238000", "162620.241000", "162620.243000", "162620.246000", "162620.248000", "162620.251000", "162620.253000", "162620.256000", "162620.259000", "162620.261000", "162620.264000", "162620.267000", "162620.269000", "162620.272000", "162620.275000", "162620.277000", "162620.280000", "162620.282000", "162620.285000", "162620.287000", "162620.290000", "162620.293000", "162620.295000", "162620.298000", "162620.300000", "162620.303000", "162620.305000", "162640.156000", "162640.159000", "162640.161000", "162640.164000", "162640.166000", "162640.169000", "162640.171000", "162640.174000", "162640.177000", "162640.179000", "162640.182000", "162640.184000", "162640.187000", "162640.190000", "162720.228000", "162720.230000", "162720.233000", "162720.236000", "162720.238000", "162720.241000", "162720.243000", "162720.246000", "162720.249000", "162720.251000", "162720.254000", "162720.256000", "162720.259000", "162720.262000", "162720.264000", "162720.267000", "162720.269000", "162720.272000", "162720.275000", "162720.277000", "162720.280000", "162720.282000", "162720.285000", "162720.287000", "162720.290000", "162720.292000", "162720.295000", "162800.275000", "162800.278000", "162800.280000", "162800.293000", "162800.296000", "162800.298000", "162800.301000", "162800.303000", "162800.306000", "162800.309000", "162800.311000", "162800.314000", "162800.316000", "162800.319000", "162800.321000", "162800.324000", "162800.327000", "162800.329000", "162800.332000", "162800.335000", "162800.337000", "162800.340000", "162800.342000", "162800.345000", "162800.348000", "162800.350000", "162840.232000", "162840.235000", "162840.237000", "162840.240000", "162840.242000", "162840.245000", "162840.248000", "162840.250000", "162840.253000", "162840.256000", "162840.259000", "162840.262000", "162840.264000", "162840.267000", "162840.270000", "162840.272000", "162840.275000", "162840.277000", "162840.280000", "162840.283000", "162840.285000", "162840.288000", "162840.291000", "162840.293000", "162840.296000", "162840.298000", "162840.301000", "162920.234000", "162920.237000", "162920.239000", "162920.242000", "162920.244000", "162920.247000", "162920.250000", "162920.252000", "162920.255000", "162920.257000", "162920.260000", "162920.263000", "162920.265000", "162920.268000", "162920.270000", "162920.273000", "162920.276000", "162920.278000", "162920.281000", "162920.283000", "162920.286000", "162920.289000", "162920.291000", "162920.294000", "162920.296000", "162920.299000", "162920.301000", "163000.226000", "163000.238000", "163000.241000", "163000.243000", "163000.246000", "163000.248000", "163000.251000", "163000.254000", "163000.256000", "163000.259000", "163000.261000", "163000.264000", "163000.266000", "163000.269000", "163000.272000", "163000.275000", "163000.277000", "163000.280000", "163000.283000", "163000.285000", "163000.288000", "163000.290000", "163000.293000", "163000.296000", "163000.298000", "163000.301000", "163000.304000", "163040.228000", "163040.231000", "163040.233000", "163040.236000", "163040.239000", "163040.241000", "163040.244000", "163040.246000", "163040.249000", "163040.251000", "163040.254000", "163040.257000", "163040.259000", "163040.262000", "163040.264000", "163040.267000", "163040.269000", "163040.272000", "163040.275000", "163040.277000", "163040.280000", "163040.282000", "163040.285000", "163040.287000", "163040.290000", "163040.293000", "163040.295000", "163120.236000", "163120.239000", "163120.242000", "163120.244000", "163120.247000", "163120.249000", "163120.252000", "163120.254000", "163120.257000", "163120.259000", "163120.262000", "163120.264000", "163120.267000", "163120.270000", "163120.272000", "163120.275000", "163120.277000", "163120.280000", "163120.282000", "163120.285000", "163120.287000", "163120.290000", "163120.293000", "163120.295000", "163120.298000", "163120.300000", "163120.303000", "163200.257000", "163200.260000", "163200.262000", "163200.265000", "163200.267000", "163200.270000", "163200.273000", "163200.275000", "163200.278000", "163200.280000", "163200.283000", "163200.286000", "163200.288000", "163200.291000", "163200.294000", "163200.296000", "163200.299000", "163200.301000", "163200.304000", "163200.307000", "163200.310000", "163200.312000", "163200.315000", "163200.317000", "163200.320000", "163200.323000", "163200.325000", "163240.225000", "163240.228000", "163240.230000", "163240.233000", "163240.236000", "163240.238000", "163240.241000", "163240.243000", "163240.246000", "163240.248000", "163240.251000", "163240.253000", "163240.256000", "163240.258000", "163240.262000", "163240.265000", "163240.267000", "163240.270000", "163240.273000", "163240.276000", "163240.279000", "163240.282000", "163240.285000", "163240.287000", "163240.290000", "163240.293000", "163305.639000", "163305.642000", "163305.645000", "163305.647000", "163305.650000", "163305.652000", "163305.655000", "163305.658000", "163305.660000", "163305.663000", "163305.665000", "163305.668000", "163305.670000", "163305.673000", "163305.676000", "163305.678000", "163305.681000"],
