{
  "AcquisitionMatrixPE": 104,
  "AcquisitionNumber": 1,
  "AcquisitionTime": "16:05:57.007500",
  "BandwidthPerPixelPhaseEncode": 17.17,
  "BaseResolution": 104,
  "BodyPartExamined": "BRAIN",
  "CoilCombinationMethod": "Sum of Squares",
  "ConsistencyInfo": "N4_VE11C_LATEST_20160120",
  "ConversionSoftware": "dcm2niix",
  "ConversionSoftwareVersion": "v1.0.20211006",
  "DerivedVendorReportedEchoSpacing": 0.000560011,
  "DeviceSerialNumber": "167006",
  "DwellTime": 2.1e-06,
  "EchoTime": 0.037,
  "EchoTime1": 0.037,
  "EchoTime2": 0.001,
  "EchoTrainLength": 104,
  "EffectiveEchoSpacing": 0.000560011,
  "FlipAngle": 52,
  "HeudiconvVersion": "0.10.0",
  "ImageComments": "Unaliased MB4/PE3/LB",
  "ImageOrientationPatientDICOM": [0.999455, 0.0140885, 0.0298608, -0.00627982, 0.968998, -0.246989],
  "ImageOrientationText": "Tra>Cor(-14.3)>Sag(1.9)",
  "ImageType": [
    "ORIGINAL",
    "PRIMARY",
    "P",
    "MB",
    "ND",
    "MOSAIC",
    "PHASE"
],
  "ImagingFrequency": 123.259,
  "InPlanePhaseEncodingDirectionDICOM": "COL",
  "InstitutionAddress": "Chemin Queen-Mary 4565,Montreal,District,CA,H3W 1W5",
  "InstitutionName": "IUGM",
  "InstitutionalDepartmentName": "Department",
  "MRAcquisitionType": "2D",
  "MagneticFieldStrength": 3,
  "Manufacturer": "Siemens",
  "ManufacturersModelName": "Prisma_fit",
  "MatrixCoilMode": "SENSE",
  "Modality": "MR",
  "MultibandAccelerationFactor": 4,
  "PartialFourier": 1,
  "PatientPosition": "HFS",
  "PercentPhaseFOV": 100,
  "PercentSampling": 100,
  "PhaseEncodingDirection": "j",
  "PhaseEncodingSteps": 104,
  "PhaseResolution": 1,
  "PixelBandwidth": 2290,
  "ProcedureStepDescription": "games^mario",
  "ProtocolName": "func_task-mario_run-01",
  "PulseSequenceDetails": "%CustomerSeq%\\cmrr_mbep2d_bold",
  "ReceiveCoilActiveElements": "HC1-7;NC1,2",
  "ReceiveCoilName": "HeadNeck_64",
  "ReconMatrixPE": 104,
  "RepetitionTime": 1.49,
  "SAR": 0.0493861,
  "ScanOptions": "FS",
  "ScanningSequence": "EP",
  "SequenceName": "epfid2d1_104",
  "SequenceVariant": "SK\\SS",
  "SeriesDescription": "func_task-mario_run-01",
  "SeriesNumber": 11,
  "ShimSetting": [636, -7226, -8761, 711, 48, -32, 102, -21],
  "SliceThickness": 2,
  "SliceTiming": [0, 0.785, 0.1, 0.8825, 0.1975, 0.98, 0.295, 1.08, 0.3925, 1.1775, 0.49, 1.275, 0.59, 1.3725, 0.6875, 0, 0.785, 0.1, 0.8825, 0.1975, 0.98, 0.295, 1.08, 0.3925, 1.1775, 0.49, 1.275, 0.59, 1.3725, 0.6875, 0, 0.785, 0.1, 0.8825, 0.1975, 0.98, 0.295, 1.08, 0.3925, 1.1775, 0.49, 1.275, 0.59, 1.3725, 0.6875, 0, 0.785, 0.1, 0.8825, 0.1975, 0.98, 0.295, 1.08, 0.3925, 1.1775, 0.49, 1.275, 0.59, 1.3725, 0.6875],
  "SoftwareVersions": "syngo MR E11",
  "SpacingBetweenSlices": 2,
  "StationName": "MRC35049",
  "TaskName": "mario",
  "TotalReadoutTime": 0.0576811,
  "TxRefAmp": 231.086,
  "WipMemBlock": "06aede7f-9fa0-4f3e-8d54-0ad46b34a783||Sequence: R016 ve11c/master r/e634e98; Dec 19 2017 11:00:25 by eja",
  "dcmmeta_affine": [
    [-1.998909592628479, -0.012559632770717144, 0.06482949107885361, 108.38021087646484],
    [-0.02817692793905735, 1.9379956722259521, -0.4933343529701233, -73.24298858642578],
    [0.05972158908843994, 0.49397873878479004, 1.9371159076690674, -55.229209899902344],
    [0.0, 0.0, 0.0, 1.0]
],
  "dcmmeta_reorient_transform": [
    [0.0, -1.0, 0.0, 103.0],
    [1.0, 0.0, 0.0, 0.0],
    [0.0, 0.0, 1.0, 0.0],
    [0.0, 0.0, 0.0, 1.0]
],
  "dcmmeta_shape": [104, 104, 60, 462],
  "dcmmeta_slice_dim": 2,
  "dcmmeta_version": 0.6,
  "global": {
    "const": {
      "AcquisitionMatrix": [104, 0, 0, 104],
      "AngioFlag": "N",
      "BitsAllocated": 16,
      "BitsStored": 16,
      "BodyPartExamined": "BRAIN",
      "Columns": 832,
      "EchoNumbers": 1,
      "EchoTime": 37.0,
      "EchoTrainLength": 104,
      "FlipAngle": 52.0,
      "HighBit": 15,
      "ImageOrientationPatient": [0.99945477544179, 0.01408846382206, 0.02986079425839, -0.006279816421, 0.96899784248172, -0.2469893624663],
      "ImagePositionPatient": [-830.11794117998, -842.0573978329, 153.72019787492],
      "ImageType": [
        "ORIGINAL",
        "PRIMARY",
        "P",
        "MB",
        "ND",
        "MOSAIC"
],
      "ImagedNucleus": "1H",
      "ImagingFrequency": 123.258871,
      "InPlanePhaseEncodingDirection": "COL",
      "LargestImagePixelValue": 4095,
      "MRAcquisitionType": "2D",
      "MagneticFieldStrength": 3.0,
      "Manufacturer": "SIEMENS",
      "ManufacturerModelName": "Prisma_fit",
      "Modality": "MR",
      "NumberOfAverages": 1.0,
      "NumberOfPhaseEncodingSteps": 104,
      "PercentPhaseFieldOfView": 100.0,
      "PercentSampling": 100.0,
      "PerformedProcedureStepStartTime": "160209.214000",
      "PhotometricInterpretation": "MONOCHROME2",
      "PixelBandwidth": 2290.0,
      "PixelRepresentation": 0,
      "PixelSpacing": [2.0, 2.0],
      "ProtocolName": "func_task-mario_run-01",
      "RepetitionTime": 1490.0,
      "RescaleIntercept": -4096.0,
      "RescaleSlope": 2.0,
      "RescaleType": "US",
      "Rows": 832,
      "SAR": 0.04938609586305,
      "SamplesPerPixel": 1,
      "ScanOptions": "FS",
      "ScanningSequence": "EP",
      "SequenceName": "epfid2d1_104",
      "SequenceVariant": [
        "SK",
        "SS"
],
      "SeriesDescription": "func_task-mario_run-01",
      "SeriesNumber": 11,
      "SeriesTime": "160658.495000",
      "SliceLocation": -31.912932978595,
      "SliceThickness": 2.0,
      "SmallestImagePixelValue": 0,
      "SoftwareVersions": "syngo MR E11",
      "SpacingBetweenSlices": 1.9999999584799,
      "SpecificCharacterSet": "ISO_IR 100",
      "StudyID": "1",
      "StudyTime": "160209.157000",
      "TransmitCoilName": "Body",
      "VariableFlipAngleFlag": "N",
      "WindowCenterWidthExplanation": "Algo1",
      "dBdt": 0.0},
    "slices": {}
  },
  "time": {
    "samples": {
      "AcquisitionNumber": [1, 2, 3, 4, 5, 6, 7, 8, 9, 10, 11, 12, 13, 14, 15, 16, 17, 18, 19, 20, 21, 22, 23, 24, 25, 26, 27, 28, 29, 30, 31, 32, 33, 34, 35, 36, 37, 38, 39, 40, 41, 42, 43, 44, 45, 46, 47, 48, 49, 50, 51, 52, 53, 54, 55, 56, 57, 58, 59, 60, 61, 62, 63, 64, 65, 66, 67, 68, 69, 70, 71, 72, 73, 74, 75, 76, 77, 78, 79, 80, 81, 82, 83, 84, 85, 86, 87, 88, 89, 90, 91, 92, 93, 94, 95, 96, 97, 98, 99, 100, 101, 102, 103, 104, 105, 106, 107, 108, 109, 110, 111, 112, 113, 114, 115, 116, 117, 118, 119, 120, 121, 122, 123, 124, 125, 126, 127, 128, 129, 130, 131, 132, 133, 134, 135, 136, 137, 138, 139, 140, 141, 142, 143, 144, 145, 146, 147, 148, 149, 150, 151, 152, 153, 154, 155, 156, 157, 158, 159, 160, 161, 162, 163, 164, 165, 166, 167, 168, 169, 170, 171, 172, 173, 174, 175, 176, 177, 178, 179, 180, 181, 182, 183, 184, 185, 186, 187, 188, 189, 190, 191, 192, 193, 194, 195, 196, 197, 198, 199, 200, 201, 202, 203, 204, 205, 206, 207, 208, 209, 210, 211, 212, 213, 214, 215, 216, 217, 218, 219, 220, 221, 222, 223, 224, 225, 226, 227, 228, 229, 230, 231, 232, 233, 234, 235, 236, 237, 238, 239, 240, 241, 242, 243, 244, 245, 246, 247, 248, 249, 250, 251, 252, 253, 254, 255, 256, 257, 258, 259, 260, 261, 262, 263, 264, 265, 266, 267, 268, 269, 270, 271, 272, 273, 274, 275, 276, 277, 278, 279, 280, 281, 282, 283, 284, 285, 286, 287, 288, 289, 290, 291, 292, 293, 294, 295, 296, 297, 298, 299, 300, 301, 302, 303, 304, 305, 306, 307, 308, 309, 310, 311, 312, 313, 314, 315, 316, 317, 318, 319, 320, 321, 322, 323, 324, 325, 326, 327, 328, 329, 330, 331, 332, 333, 334, 335, 336, 337, 338, 339, 340, 341, 342, 343, 344, 345, 346, 347, 348, 349, 350, 351, 352, 353, 354, 355, 356, 357, 358, 359, 360, 361, 362, 363, 364, 365, 366, 367, 368, 369, 370, 371, 372, 373, 374, 375, 376, 377, 378, 379, 380, 381, 382, 383, 384, 385, 386, 387, 388, 389, 390, 391, 392, 393, 394, 395, 396, 397, 398, 399, 400, 401, 402, 403, 404, 405, 406, 407, 408, 409, 410, 411, 412, 413, 414, 415, 416, 417, 418, 419, 420, 421, 422, 423, 424, 425, 426, 427, 428, 429, 430, 431, 432, 433, 434, 435, 436, 437, 438, 439, 440, 441, 442, 443, 444, 445, 446, 447, 448, 449, 450, 451, 452, 453, 454, 455, 456, 457, 458, 459, 460, 461, 462],
      "AcquisitionTime": ["160557.007500", "160558.497500", "160559.987500", "160601.477500", "160602.967500", "160604.457500", "160605.947500", "160607.437500", "160608.927500", "160610.417500", "160611.907500", "160613.397500", "160614.887500", "160616.377500", "160617.867500", "160619.357500", "160620.847500", "160622.337500", "160623.827500", "160625.317500", "160626.807500", "160628.297500", "160629.787500", "160631.277500", "160632.767500", "160634.257500", "160635.747500", "160637.237500", "160638.727500", "160640.217500", "160641.707500", "160643.197500", "160644.687500", "160646.177500", "160647.667500", "160649.157500", "160650.647500", "160652.137500", "160653.627500", "160655.117500", "160656.607500", "160658.097500", "160659.587500", "160701.077500", "160702.567500", "160704.057500", "160705.547500", "160707.037500", "160708.527500", "160710.017500", "160711.507500", "160712.997500", "160714.487500", "160715.977500", "160717.467500", "160718.957500", "160720.447500", "160721.937500", "160723.427500", "160724.917500", "160726.407500", "160727.897500", "160729.387500", "160730.877500", "160732.367500", "160733.857500", "160735.347500", "160736.837500", "160738.327500", "160739.817500", "160741.307500", "160742.797500", "160744.287500", "160745.777500", "160747.267500", "160748.757500", "160750.247500", "160751.737500", "160753.227500", "160754.717500", "160756.207500", "160757.697500", "160759.187500", "160800.677500", "160802.167500", "160803.657500", "160805.147500", "160806.637500", "160808.127500", "160809.617500", "160811.107500", "160812.597500", "160814.087500", "160815.577500", "160817.067500", "160818.557500", "160820.047500", "160821.537500", "160823.027500", "160824.517500", "160826.007500", "160827.497500", "160828.987500", "160830.477500", "160831.967500", "160833.457500", "160834.947500", "160836.437500", "160837.927500", "160839.417500", "160840.907500", "160842.397500", "160843.887500", "160845.377500", "160846.867500", "160848.357500", "160849.847500", "160851.337500", "160852.827500", "160854.317500", "160855.807500", "160857.297500", "160858.787500", "160900.277500", "160901.767500", "160903.257500", "160904.747500", "160906.237500", "160907.727500", "160909.217500", "160910.707500", "160912.197500", "160913.687500", "160915.177500", "160916.667500", "160918.157500", "160919.647500", "160921.137500", "160922.627500", "160924.117500", "160925.607500", "160927.097500", "160928.587500", "160930.077500", "160931.567500", "160933.057500", "160934.547500", "160936.037500", "160937.527500", "160939.017500", "160940.507500", "160941.997500", "160943.487500", "160944.977500", "160946.467500", "160947.957500", "160949.447500", "160950.937500", "160952.427500", "160953.917500", "160955.407500", "160956.897500", "160958.387500", "160959.877500", "161001.367500", "161002.857500", "161004.347500", "161005.837500", "161007.327500", "161008.817500", "161010.307500", "161011.797500", "161013.287500", "161014.777500", "161016.267500", "161017.757500", "161019.247500", "161020.737500", "161022.227500", "161023.717500", "161025.207500", "161026.697500", "161028.187500", "161029.677500", "161031.167500", "161032.657500", "161034.147500", "161035.637500", "161037.127500", "161038.617500", "161040.107500", "161041.597500", "161043.087500", "161044.577500", "161046.067500", "161047.557500", "161049.047500", "161050.537500", "161052.027500", "161053.517500", "161055.007500", "161056.497500", "161057.987500", "161059.477500", "161100.967500", "161102.457500", "161103.947500", "161105.437500", "161106.927500", "161108.417500", "161109.907500", "161111.397500", "161112.887500", "161114.377500", "161115.867500", "161117.357500", "161118.847500", "161120.337500", "161121.827500", "161123.317500", "161124.807500", "161126.297500", "161127.787500", "161129.277500", "161130.767500", "161132.257500", "161133.747500", "161135.237500", "161136.727500", "161138.217500", "161139.707500", "161141.197500", "161142.687500", "161144.177500", "161145.667500", "161147.157500", "161148.647500", "161150.137500", "161151.627500", "161153.117500", "161154.607500", "161156.097500", "161157.587500", "161159.077500", "161200.567500", "161202.057500", "161203.547500", "161205.037500", "161206.527500", "161208.017500", "161209.507500", "161210.997500", "161212.487500", "161213.977500", "161215.467500", "161216.957500", "161218.447500", "161219.937500", "161221.427500", "161222.917500", "161224.407500", "161225.897500", "161227.387500", "161228.877500", "161230.367500", "161231.857500", "161233.347500", "161234.837500", "161236.327500", "161237.817500", "161239.307500", "161240.797500", "161242.287500", "161243.777500", "161245.267500", "161246.757500", "161248.247500", "161249.737500", "161251.227500", "161252.717500", "161254.207500", "161255.697500", "161257.187500", "161258.677500", "161300.167500", "161301.657500", "161303.147500", "161304.637500", "161306.127500", "161307.617500", "161309.107500", "161310.597500", "161312.087500", "161313.577500", "161315.067500", "161316.557500", "161318.047500", "161319.537500", "161321.027500", "161322.517500", "161324.007500", "161325.497500", "161326.987500", "161328.477500", "161329.967500", "161331.457500", "161332.947500", "161334.437500", "161335.927500", "161337.417500", "161338.907500", "161340.397500", "161341.887500", "161343.377500", "161344.867500", "161346.357500", "161347.847500", "161349.337500", "161350.827500", "161352.317500", "161353.807500", "161355.297500", "161356.787500", "161358.277500", "161359.767500", "161401.257500", "161402.747500", "161404.237500", "161405.727500", "161407.217500", "161408.707500", "161410.197500", "161411.687500", "161413.177500", "161414.667500", "161416.157500", "161417.647500", "161419.137500", "161420.627500", "161422.117500", "161423.607500", "161425.097500", "161426.587500", "161428.077500", "161429.567500", "161431.057500", "161432.547500", "161434.037500", "161435.527500", "161437.017500", "161438.507500", "161439.997500", "161441.487500", "161442.977500", "161444.467500", "161445.957500", "161447.447500", "161448.937500", "161450.427500", "161451.917500", "161453.407500", "161454.897500", "161456.387500", "161457.877500", "161459.367500", "161500.857500", "161502.347500", "161503.837500", "161505.327500", "161506.817500", "161508.307500", "161509.797500", "161511.287500", "161512.777500", "161514.267500", "161515.757500", "161517.247500", "161518.737500", "161520.227500", "161521.717500", "161523.207500", "161524.697500", "161526.187500", "161527.677500", "161529.167500", "161530.657500", "161532.147500", "161533.637500", "161535.127500", "161536.617500", "161538.107500", "161539.597500", "161541.087500", "161542.577500", "161544.067500", "161545.557500", "161547.047500", "161548.537500", "161550.027500", "161551.517500", "161553.007500", "161554.497500", "161555.987500", "161557.477500", "161558.967500", "161600.457500", "161601.947500", "161603.437500", "161604.927500", "161606.417500", "161607.907500", "161609.397500", "161610.887500", "161612.377500", "161613.867500", "161615.357500", "161616.847500", "161618.337500", "161619.827500", "161621.317500", "161622.807500", "161624.297500", "161625.787500", "161627.277500", "161628.767500", "161630.257500", "161631.747500", "161633.237500", "161634.727500", "161636.217500", "161637.707500", "161639.197500", "161640.687500", "161642.177500", "161643.667500", "161645.157500", "161646.647500", "161648.137500", "161649.627500", "161651.117500", "161652.607500", "161654.097500", "161655.587500", "161657.077500", "161658.567500", "161700.057500", "161701.547500", "161703.037500", "161704.527500", "161706.017500", "161707.507500", "161708.997500", "161710.487500", "161711.977500", "161713.467500", "161714.957500", "161716.447500", "161717.937500", "161719.427500", "161720.917500", "161722.407500", "161723.897500"],
      "ContentTime": ["160658.497000", "160658.500000", "160658.503000", "160658.510000", "160658.513000", "160658.516000", "160658.518000", "160718.501000", "160718.504000", "160718.506000", "160718.509000", "160718.511000", "160718.514000", "160718.516000", "160718.519000", "160718.521000", "160718.524000", "160718.526000", "160718.529000", "160718.531000", "160718.534000", "160718.537000", "160718.539000", "160718.542000", "160718.552000", "160718.554000", "160718.557000", "160718.559000", "160738.517000", "160738.520000", "160738.522000", "160738.525000", "160738.527000", "160738.530000", "160738.532000", "160738.535000", "160738.537000", "160738.540000", "160738.542000", "160738.545000", "160738.547000", "160738.550000", "160738.552000", "160738.555000", "160738.557000", "160738.560000", "160738.562000", "160738.565000", "160758.499000", "160758.502000", "160758.505000", "160758.507000", "160758.510000", "160758.512000", "160758.515000", "160758.517000", "160758.520000", "160758.523000", "160758.525000", "160758.528000", "160758.530000", "160758.533000", "160758.535000", "160758.538000", "160758.540000", "160758.543000", "160758.545000", "160758.548000", "160818.497000", "160818.506000", "160818.508000", "160818.511000", "160818.514000", "160818.516000", "160818.519000", "160818.521000", "160818.524000", "160818.526000", "160818.529000", "160818.531000", "160818.534000", "160818.536000", "160818.539000", "160818.543000", "160818.547000", "160818.550000", "160818.552000", "160818.555000", "160838.490000", "160838.493000", "160838.496000", "160838.498000", "160838.501000", "160838.503000", "160838.506000", "160838.508000", "160838.511000", "160838.513000", "160838.516000", "160838.518000", "160838.525000", "160838.528000", "160838.530000", "160838.533000", "160838.535000", "160838.538000", "160838.540000", "160918.528000", "160918.531000", "160918.534000", "160918.536000", "160918.539000", "160918.541000", "160918.544000", "160918.546000", "160918.549000", "160918.551000", "160918.554000", "160918.556000", "160918.559000", "160918.562000", "160918.564000", "160918.567000", "160918.569000", "160918.572000", "160918.574000", "160918.577000", "160918.580000", "160918.582000", "160918.585000", "160918.587000", "160918.590000", "160918.593000", "160918.597000", "160958.541000", "160958.544000", "160958.547000", "160958.549000", "160958.552000", "160958.555000", "160958.557000", "160958.560000", "160958.563000", "160958.566000", "160958.568000", "160958.571000", "160958.574000", "160958.576000", "160958.589000", "160958.591000", "160958.594000", "160958.597000", "160958.599000", "160958.602000", "160958.604000", "160958.607000", "160958.609000", "160958.612000", "160958.615000", "160958.617000", "160958.620000", "161038.515000", "161038.518000", "161038.520000", "161038.523000", "161038.525000", "161038.528000", "161038.531000", "161038.533000", "161038.536000", "161038.539000", "161038.541000", "161038.544000", "161038.546000", "161038.549000", "161038.551000", "161038.554000", "161038.556000", "161038.559000", "161038.562000", "161038.564000", "161038.567000", "161038.569000", "161038.572000", "161038.574000", "161038.577000", "161038.579000", "161038.582000", "161119.083000", "161119.086000", "161119.088000", "161119.091000", "161119.093000", "161119.096000", "161119.099000", "161119.101000", "161119.104000", "161119.106000", "161119.109000", "161119.111000", "161119.114000", "161119.117000", "161119.119000", "161119.122000", "161119.124000", "161119.127000", "161119.129000", "161119.132000", "161119.134000", "161119.137000", "161119.139000", "161119.142000", "161119.144000", "161119.147000", "161119.151000", "161158.526000", "161158.529000", "161158.531000", "161158.534000", "161158.536000", "161158.539000", "161158.541000", "161158.544000", "161158.547000", "161158.549000", "161158.552000", "161158.554000", "161158.557000", "161158.559000", "161158.583000", "161158.585000", "161158.588000", "161158.590000", "161158.593000", "161158.595000", "161158.598000", "161158.601000", "161158.603000", "161158.606000", "161158.608000", "161158.611000", "161158.614000", "161238.539000", "161238.542000", "161238.545000", "161238.547000", "161238.550000", "161238.552000", "161238.555000", "161238.558000", "161238.560000", "161238.563000", "161238.565000", "161238.568000", "161238.571000", "161238.573000", "161238.576000", "161238.579000", "161238.581000", "161238.584000", "161238.586000", "161238.589000", "161238.592000", "161238.594000", "161238.597000", "161238.599000", "161238.602000", "161238.605000", "161238.607000", "161318.588000", "161318.591000", "161318.593000", "161318.596000", "161318.599000", "161318.601000", "161318.604000", "161318.607000", "161318.609000", "161318.612000", "161318.614000", "161318.617000", "161318.620000", "161318.622000", "161318.625000", "161318.627000", "161318.630000", "161318.632000", "161318.635000", "161318.638000", "161318.640000", "161318.643000", "161318.646000", "161318.648000", "161318.651000", "161318.653000", "161358.545000", "161358.548000", "161358.551000", "161358.553000", "161358.556000", "161358.564000", "161358.567000", "161358.570000", "161358.573000", "161358.577000", "161358.579000", "161358.582000", "161358.585000", "161358.587000", "161358.590000", "161358.593000", "161358.595000", "161358.598000", "161358.600000", "161358.603000", "161358.606000", "161358.608000", "161358.611000", "161358.613000", "161358.616000", "161358.618000", "161358.621000", "161438.513000", "161438.516000", "161438.519000", "161438.521000", "161438.524000", "161438.527000", "161438.529000", "161438.532000", "161438.534000", "161438.537000", "161438.540000", "161438.542000", "161438.545000", "161438.547000", "161438.550000", "161438.553000", "161438.555000", "161438.558000", "161438.560000", "161438.563000", "161438.566000", "161438.568000", "161438.571000", "161438.574000", "161438.576000", "161438.579000", "161438.581000", "161518.527000", "161518.530000", "161518.532000", "161518.535000", "161518.537000", "161518.540000", "161518.543000", "161518.545000", "161518.548000", "161518.550000", "161518.558000", "161518.561000", "161518.563000", "161518.566000", "161518.568000", "161518.571000", "161518.573000", "161518.576000", "161518.579000", "161518.581000", "161518.584000", "161518.586000", "161518.589000", "161518.592000", "161518.594000", "161518.597000", "161518.599000", "161558.542000", "161558.544000", "161558.547000", "161558.550000", "161558.552000", "161558.555000", "161558.557000", "161558.560000", "161558.562000", "161558.565000", "161558.568000", "161558.570000", "161558.573000", "161558.575000", "161558.578000", "161558.580000", "161558.583000", "161558.585000", "161558.588000", "161558.591000", "161558.593000", "161558.596000", "161558.599000", "161558.601000", "161558.604000", "161558.606000", "161558.609000", "161638.561000", "161638.564000", "161638.567000", "161638.569000", "161638.572000", "161638.574000", "161638.577000", "161638.580000", "161638.582000", "161638.585000", "161638.587000", "161638.590000", "161638.592000", "161638.595000", "161638.598000", "161638.600000", "161638.603000", "161638.605000", "161638.608000", "161638.610000", "161638.613000", "161638.615000", "161638.618000", "161638.621000", "161638.623000", "161638.626000", "161638.628000", "161718.524000", "161718.527000", "161718.529000", "161718.532000", "161718.534000", "161718.537000", "161718.539000", "161718.542000", "161718.545000", "161718.547000", "161718.550000", "161718.552000", "161718.555000", "161718.557000", "161718.560000", "161718.562000", "161718.565000", "161718.568000", "161718.570000", "161718.573000", "161718.575000", "161718.578000", "161718.580000", "161718.583000", "161718.585000", "161718.588000", "161725.973000", "161725.976000", "161725.979000", "161725.981000", "161725.984000", "161725.987000"],
