{
  "AcquisitionMatrixPE": 104,
  "AcquisitionNumber": 1,
  "AcquisitionTime": "13:59:32.902500",
  "BandwidthPerPixelPhaseEncode": 17.17,
  "BaseResolution": 104,
  "BodyPartExamined": "BRAIN",
  "CoilString": "HC1-7;NC1_2",
  "ConsistencyInfo": "N4_VE11C_LATEST_20160120",
  "ConversionSoftware": "dcm2niix",
  "ConversionSoftwareVersion": "v1.0.20190902",
  "DerivedVendorReportedEchoSpacing": 0.000560011,
  "DeviceSerialNumber": "167006",
  "DwellTime": 2.1e-06,
  "EchoTime": 0.037,
  "EchoTrainLength": 104,
  "EffectiveEchoSpacing": 0.000560011,
  "FlipAngle": 52,
  "HeudiconvVersion": "0.10.0",
  "ImageComments": "Unaliased_MB4_PE3_LB",
  "ImageOrientationPatientDICOM": [0.999929, 0.00337935, -0.011452, -0.00890075, 0.850278, -0.526258],
  "ImageType": [
    "ORIGINAL",
    "PRIMARY",
    "P",
    "MB",
    "ND",
    "MOSAIC"
],
  "ImagingFrequency": 123.259,
  "InPlanePhaseEncodingDirectionDICOM": "COL",
  "InstitutionAddress": "Chemin_Queen-Mary_4565_Montreal_District_CA_H3W_1W5",
  "InstitutionName": "IUGM",
  "InstitutionalDepartmentName": "Department",
  "MRAcquisitionType": "2D",
  "MagneticFieldStrength": 3,
  "Manufacturer": "Siemens",
  "ManufacturersModelName": "Prisma_fit",
  "Modality": "MR",
  "MultibandAccelerationFactor": 4,
  "PartialFourier": 1,
  "PatientPosition": "HFS",
  "PercentPhaseFOV": 100,
  "PhaseEncodingDirection": "j",
  "PhaseEncodingSteps": 104,
  "PhaseResolution": 1,
  "PixelBandwidth": 2290,
  "ProcedureStepDescription": "games_mario",
  "ProtocolName": "func_task-mario_run-01",
  "PulseSequenceDetails": "%CustomerSeq%_cmrr_mbep2d_bold",
  "ReceiveCoilActiveElements": "HC1-7;NC1,2",
  "ReceiveCoilName": "HeadNeck_64",
  "ReconMatrixPE": 104,
  "RepetitionTime": 1.49,
  "SAR": 0.0539446,
  "ScanOptions": "FS",
  "ScanningSequence": "EP",
  "SequenceName": "epfid2d1_104",
  "SequenceVariant": "SK_SS",
  "SeriesDescription": "func_task-mario_run-01",
  "SeriesNumber": 11,
  "ShimSetting": [613, -7179, -8849, 242, 8, -190, -45, -52],
  "SliceThickness": 2,
  "SliceTiming": [0, 0.785, 0.1, 0.8825, 0.1975, 0.98, 0.295, 1.08, 0.3925, 1.1775, 0.49, 1.275, 0.59, 1.3725, 0.6875, 0, 0.785, 0.1, 0.8825, 0.1975, 0.98, 0.295, 1.08, 0.3925, 1.1775, 0.49, 1.275, 0.59, 1.3725, 0.6875, 0, 0.785, 0.1, 0.8825, 0.1975, 0.98, 0.295, 1.08, 0.3925, 1.1775, 0.49, 1.275, 0.59, 1.3725, 0.6875, 0, 0.785, 0.1, 0.8825, 0.1975, 0.98, 0.295, 1.08, 0.3925, 1.1775, 0.49, 1.275, 0.59, 1.3725, 0.6875],
  "SoftwareVersions": "syngo_MR_E11",
  "SpacingBetweenSlices": 2,
  "StationName": "MRC35049",
  "TaskName": "mario",
  "TotalReadoutTime": 0.0576811,
  "TxRefAmp": 283.159,
  "WipMemBlock": "80a56b5c-748b-4679-b031-ba11d918c35c||Sequence: R016 ve11c/master r/e634e98; Dec 19 2017 11:00:25 by eja",
  "dcmmeta_affine": [
    [-1.9998574256896973, -0.017801502719521523, -0.01591799594461918, 107.4312744140625],
    [-0.0067587061785161495, 1.7005562782287598, -1.0526455640792847, -49.10608673095703],
    [-0.022904060781002045, 1.0525168180465698, 1.7004952430725098, -77.16305541992188],
    [0.0, 0.0, 0.0, 1.0]
],
  "dcmmeta_reorient_transform": [
    [0.0, -1.0, 0.0, 103.0],
    [1.0, 0.0, 0.0, 0.0],
    [0.0, 0.0, 1.0, 0.0],
    [0.0, 0.0, 0.0, 1.0]
],
  "dcmmeta_shape": [104, 104, 60, 442],
  "dcmmeta_slice_dim": 2,
  "dcmmeta_version": 0.6,
  "global": {
    "const": {
      "AcquisitionMatrix": [104, 0, 0, 104],
      "AngioFlag": "N",
      "BitsAllocated": 16,
      "BitsStored": 16,
      "BodyPartExamined": "BRAIN",
      "Columns": 832,
      "EchoNumbers": 1,
      "EchoTime": 37.0,
      "EchoTrainLength": 104,
      "FlipAngle": 52.0,
      "HighBit": 15,
      "ImageOrientationPatient": [0.99992871294942, 0.0033793530969, -0.0114520300366, -0.0089007513545, 0.85027812432724, -0.5262583851264],
      "ImagePositionPatient": [-827.06607726415, -747.51384946395, 422.69935283022],
      "ImageType": [
        "ORIGINAL",
        "PRIMARY",
        "P",
        "MB",
        "ND",
        "MOSAIC"
],
      "ImagedNucleus": "1H",
      "ImagingFrequency": 123.258884,
      "InPlanePhaseEncodingDirection": "COL",
      "LargestImagePixelValue": 4095,
      "MRAcquisitionType": "2D",
      "MagneticFieldStrength": 3.0,
      "Manufacturer": "SIEMENS",
      "ManufacturerModelName": "Prisma_fit",
      "Modality": "MR",
      "NumberOfAverages": 1.0,
      "NumberOfPhaseEncodingSteps": 104,
      "PercentPhaseFieldOfView": 100.0,
      "PercentSampling": 100.0,
      "PerformedProcedureStepStartTime": "133231.469000",
      "PhotometricInterpretation": "MONOCHROME2",
      "PixelBandwidth": 2290.0,
      "PixelRepresentation": 0,
      "PixelSpacing": [2.0, 2.0],
      "ProtocolName": "func_task-mario_run-01",
      "RepetitionTime": 1490.0,
      "RescaleIntercept": -4096.0,
      "RescaleSlope": 2.0,
      "RescaleType": "US",
      "Rows": 832,
      "SAR": 0.05394460692656,
      "SamplesPerPixel": 1,
      "ScanOptions": "FS",
      "ScanningSequence": "EP",
      "SequenceName": "epfid2d1_104",
      "SequenceVariant": [
        "SK",
        "SS"
],
      "SeriesDescription": "func_task-mario_run-01",
      "SeriesNumber": 11,
      "SeriesTime": "140032.675000",
      "SliceLocation": -40.617094609517,
      "SliceThickness": 2.0,
      "SmallestImagePixelValue": 0,
      "SoftwareVersions": "syngo MR E11",
      "SpacingBetweenSlices": 2.0000000063995,
      "SpecificCharacterSet": "ISO_IR 100",
      "StudyID": "1",
      "StudyTime": "133231.330000",
      "TransmitCoilName": "Body",
      "VariableFlipAngleFlag": "N",
      "WindowCenterWidthExplanation": "Algo1",
      "dBdt": 0.0},
    "slices": {}
  },
  "time": {
    "samples": {
      "AcquisitionNumber": [1, 2, 3, 4, 5, 6, 7, 8, 9, 10, 11, 12, 13, 14, 15, 16, 17, 18, 19, 20, 21, 22, 23, 24, 25, 26, 27, 28, 29, 30, 31, 32, 33, 34, 35, 36, 37, 38, 39, 40, 41, 42, 43, 44, 45, 46, 47, 48, 49, 50, 51, 52, 53, 54, 55, 56, 57, 58, 59, 60, 61, 62, 63, 64, 65, 66, 67, 68, 69, 70, 71, 72, 73, 74, 75, 76, 77, 78, 79, 80, 81, 82, 83, 84, 85, 86, 87, 88, 89, 90, 91, 92, 93, 94, 95, 96, 97, 98, 99, 100, 101, 102, 103, 104, 105, 106, 107, 108, 109, 110, 111, 112, 113, 114, 115, 116, 117, 118, 119, 120, 121, 122, 123, 124, 125, 126, 127, 128, 129, 130, 131, 132, 133, 134, 135, 136, 137, 138, 139, 140, 141, 142, 143, 144, 145, 146, 147, 148, 149, 150, 151, 152, 153, 154, 155, 156, 157, 158, 159, 160, 161, 162, 163, 164, 165, 166, 167, 168, 169, 170, 171, 172, 173, 174, 175, 176, 177, 178, 179, 180, 181, 182, 183, 184, 185, 186, 187, 188, 189, 190, 191, 192, 193, 194, 195, 196, 197, 198, 199, 200, 201, 202, 203, 204, 205, 206, 207, 208, 209, 210, 211, 212, 213, 214, 215, 216, 217, 218, 219, 220, 221, 222, 223, 224, 225, 226, 227, 228, 229, 230, 231, 232, 233, 234, 235, 236, 237, 238, 239, 240, 241, 242, 243, 244, 245, 246, 247, 248, 249, 250, 251, 252, 253, 254, 255, 256, 257, 258, 259, 260, 261, 262, 263, 264, 265, 266, 267, 268, 269, 270, 271, 272, 273, 274, 275, 276, 277, 278, 279, 280, 281, 282, 283, 284, 285, 286, 287, 288, 289, 290, 291, 292, 293, 294, 295, 296, 297, 298, 299, 300, 301, 302, 303, 304, 305, 306, 307, 308, 309, 310, 311, 312, 313, 314, 315, 316, 317, 318, 319, 320, 321, 322, 323, 324, 325, 326, 327, 328, 329, 330, 331, 332, 333, 334, 335, 336, 337, 338, 339, 340, 341, 342, 343, 344, 345, 346, 347, 348, 349, 350, 351, 352, 353, 354, 355, 356, 357, 358, 359, 360, 361, 362, 363, 364, 365, 366, 367, 368, 369, 370, 371, 372, 373, 374, 375, 376, 377, 378, 379, 380, 381, 382, 383, 384, 385, 386, 387, 388, 389, 390, 391, 392, 393, 394, 395, 396, 397, 398, 399, 400, 401, 402, 403, 404, 405, 406, 407, 408, 409, 410, 411, 412, 413, 414, 415, 416, 417, 418, 419, 420, 421, 422, 423, 424, 425, 426, 427, 428, 429, 430, 431, 432, 433, 434, 435, 436, 437, 438, 439, 440, 441, 442],
      "AcquisitionTime": ["135932.902500", "135934.392500", "135935.882500", "135937.372500", "135938.862500", "135940.352500", "135941.842500", "135943.332500", "135944.822500", "135946.312500", "135947.802500", "135949.292500", "135950.782500", "135952.272500", "135953.762500", "135955.252500", "135956.742500", "135958.232500", "135959.722500", "140001.212500", "140002.702500", "140004.192500", "140005.682500", "140007.172500", "140008.662500", "140010.152500", "140011.642500", "140013.132500", "140014.622500", "140016.112500", "140017.602500", "140019.092500", "140020.582500", "140022.072500", "140023.562500", "140025.052500", "140026.542500", "140028.032500", "140029.522500", "140031.012500", "140032.502500", "140033.992500", "140035.482500", "140036.972500", "140038.462500", "140039.952500", "140041.442500", "140042.932500", "140044.422500", "140045.912500", "140047.402500", "140048.892500", "140050.382500", "140051.872500", "140053.362500", "140054.852500", "140056.342500", "140057.832500", "140059.322500", "140100.812500", "140102.302500", "140103.792500", "140105.282500", "140106.772500", "140108.262500", "140109.752500", "140111.242500", "140112.732500", "140114.222500", "140115.712500", "140117.202500", "140118.692500", "140120.182500", "140121.672500", "140123.162500", "140124.652500", "140126.142500", "140127.632500", "140129.122500", "140130.612500", "140132.102500", "140133.592500", "140135.082500", "140136.572500", "140138.062500", "140139.552500", "140141.042500", "140142.532500", "140144.022500", "140145.512500", "140147.002500", "140148.492500", "140149.982500", "140151.472500", "140152.962500", "140154.452500", "140155.942500", "140157.432500", "140158.922500", "140200.412500", "140201.902500", "140203.392500", "140204.882500", "140206.372500", "140207.862500", "140209.352500", "140210.842500", "140212.332500", "140213.822500", "140215.312500", "140216.802500", "140218.292500", "140219.782500", "140221.272500", "140222.762500", "140224.252500", "140225.742500", "140227.232500", "140228.722500", "140230.212500", "140231.702500", "140233.192500", "140234.682500", "140236.172500", "140237.662500", "140239.152500", "140240.642500", "140242.132500", "140243.622500", "140245.112500", "140246.602500", "140248.092500", "140249.582500", "140251.072500", "140252.562500", "140254.052500", "140255.542500", "140257.032500", "140258.522500", "140300.012500", "140301.502500", "140302.992500", "140304.482500", "140305.972500", "140307.462500", "140308.952500", "140310.442500", "140311.932500", "140313.422500", "140314.912500", "140316.402500", "140317.892500", "140319.382500", "140320.872500", "140322.362500", "140323.852500", "140325.342500", "140326.832500", "140328.322500", "140329.812500", "140331.302500", "140332.792500", "140334.282500", "140335.772500", "140337.262500", "140338.752500", "140340.242500", "140341.732500", "140343.222500", "140344.712500", "140346.202500", "140347.692500", "140349.182500", "140350.672500", "140352.162500", "140353.652500", "140355.142500", "140356.632500", "140358.122500", "140359.612500", "140401.102500", "140402.592500", "140404.082500", "140405.572500", "140407.062500", "140408.552500", "140410.042500", "140411.532500", "140413.022500", "140414.512500", "140416.002500", "140417.492500", "140418.982500", "140420.472500", "140421.962500", "140423.452500", "140424.942500", "140426.432500", "140427.922500", "140429.412500", "140430.902500", "140432.392500", "140433.882500", "140435.372500", "140436.862500", "140438.352500", "140439.842500", "140441.332500", "140442.822500", "140444.312500", "140445.802500", "140447.292500", "140448.782500", "140450.272500", "140451.762500", "140453.252500", "140454.742500", "140456.232500", "140457.722500", "140459.212500", "140500.702500", "140502.192500", "140503.682500", "140505.172500", "140506.662500", "140508.152500", "140509.642500", "140511.132500", "140512.622500", "140514.112500", "140515.602500", "140517.092500", "140518.582500", "140520.072500", "140521.562500", "140523.052500", "140524.542500", "140526.032500", "140527.522500", "140529.012500", "140530.502500", "140531.992500", "140533.482500", "140534.972500", "140536.462500", "140537.952500", "140539.442500", "140540.932500", "140542.422500", "140543.912500", "140545.402500", "140546.892500", "140548.382500", "140549.872500", "140551.362500", "140552.852500", "140554.342500", "140555.832500", "140557.322500", "140558.812500", "140600.302500", "140601.792500", "140603.282500", "140604.772500", "140606.262500", "140607.752500", "140609.242500", "140610.732500", "140612.222500", "140613.712500", "140615.202500", "140616.692500", "140618.182500", "140619.672500", "140621.162500", "140622.652500", "140624.142500", "140625.632500", "140627.122500", "140628.612500", "140630.102500", "140631.592500", "140633.082500", "140634.572500", "140636.062500", "140637.552500", "140639.042500", "140640.532500", "140642.022500", "140643.512500", "140645.002500", "140646.492500", "140647.982500", "140649.472500", "140650.962500", "140652.452500", "140653.942500", "140655.432500", "140656.922500", "140658.412500", "140659.902500", "140701.392500", "140702.882500", "140704.372500", "140705.862500", "140707.352500", "140708.842500", "140710.332500", "140711.822500", "140713.312500", "140714.802500", "140716.292500", "140717.782500", "140719.272500", "140720.762500", "140722.252500", "140723.742500", "140725.232500", "140726.722500", "140728.212500", "140729.702500", "140731.192500", "140732.682500", "140734.172500", "140735.662500", "140737.152500", "140738.642500", "140740.132500", "140741.622500", "140743.112500", "140744.602500", "140746.092500", "140747.582500", "140749.072500", "140750.562500", "140752.052500", "140753.542500", "140755.032500", "140756.522500", "140758.012500", "140759.502500", "140800.992500", "140802.482500", "140803.972500", "140805.462500", "140806.952500", "140808.442500", "140809.932500", "140811.422500", "140812.912500", "140814.402500", "140815.892500", "140817.382500", "140818.872500", "140820.362500", "140821.852500", "140823.342500", "140824.832500", "140826.322500", "140827.812500", "140829.302500", "140830.792500", "140832.282500", "140833.772500", "140835.262500", "140836.752500", "140838.242500", "140839.732500", "140841.222500", "140842.712500", "140844.202500", "140845.692500", "140847.182500", "140848.672500", "140850.162500", "140851.652500", "140853.142500", "140854.632500", "140856.122500", "140857.612500", "140859.102500", "140900.592500", "140902.082500", "140903.572500", "140905.062500", "140906.552500", "140908.042500", "140909.532500", "140911.022500", "140912.512500", "140914.002500", "140915.492500", "140916.982500", "140918.472500", "140919.962500", "140921.452500", "140922.942500", "140924.432500", "140925.922500", "140927.412500", "140928.902500", "140930.392500", "140931.882500", "140933.372500", "140934.862500", "140936.352500", "140937.842500", "140939.332500", "140940.822500", "140942.312500", "140943.802500", "140945.292500", "140946.782500", "140948.272500", "140949.762500", "140951.252500", "140952.742500", "140954.232500", "140955.722500", "140957.212500", "140958.702500", "141000.192500", "141001.682500", "141003.172500", "141004.662500", "141006.152500", "141007.642500", "141009.132500", "141010.622500", "141012.112500", "141013.602500", "141015.092500", "141016.582500", "141018.072500", "141019.562500", "141021.052500", "141022.542500", "141024.032500", "141025.522500", "141027.012500", "141028.502500", "141029.992500"],
      "ContentTime": ["140032.677000", "140032.683000", "140032.686000", "140032.688000", "140032.691000", "140032.693000", "140052.675000", "140052.678000", "140052.681000", "140052.683000", "140052.686000", "140052.688000", "140052.691000", "140052.693000", "140052.696000", "140052.699000", "140052.712000", "140052.714000", "140052.717000", "140052.719000", "140052.722000", "140052.724000", "140052.727000", "140052.729000", "140052.732000", "140052.735000", "140132.782000", "140132.785000", "140132.787000", "140132.790000", "140132.793000", "140132.795000", "140132.798000", "140132.800000", "140132.803000", "140132.805000", "140132.808000", "140132.811000", "140132.813000", "140132.816000", "140132.818000", "140132.829000", "140132.832000", "140132.835000", "140132.837000", "140132.840000", "140132.842000", "140132.845000", "140132.848000", "140132.850000", "140132.853000", "140132.855000", "140132.858000", "140132.860000", "140132.863000", "140132.866000", "140132.868000", "140132.871000", "140132.873000", "140132.876000", "140132.879000", "140132.881000", "140132.884000", "140132.886000", "140132.889000", "140132.891000", "140152.712000", "140152.714000", "140152.717000", "140152.720000", "140152.722000", "140152.725000", "140152.727000", "140152.730000", "140152.733000", "140152.735000", "140152.738000", "140152.741000", "140152.743000", "140152.746000", "140152.748000", "140152.751000", "140152.753000", "140152.756000", "140152.759000", "140152.761000", "140212.682000", "140212.685000", "140212.688000", "140212.690000", "140212.693000", "140212.695000", "140212.698000", "140212.701000", "140212.703000", "140212.706000", "140212.708000", "140212.711000", "140212.714000", "140212.716000", "140212.719000", "140212.721000", "140212.724000", "140212.726000", "140212.729000", "140212.732000", "140252.714000", "140252.717000", "140252.719000", "140252.722000", "140252.733000", "140252.736000", "140252.738000", "140252.741000", "140252.744000", "140252.746000", "140252.749000", "140252.751000", "140252.754000", "140252.756000", "140252.759000", "140252.762000", "140252.764000", "140252.767000", "140252.805000", "140252.808000", "140252.810000", "140252.813000", "140252.815000", "140252.818000", "140252.820000", "140252.823000", "140252.826000", "140332.721000", "140332.724000", "140332.726000", "140332.729000", "140332.732000", "140332.734000", "140332.737000", "140332.739000", "140332.742000", "140332.745000", "140332.747000", "140332.750000", "140332.752000", "140332.755000", "140332.758000", "140332.760000", "140332.763000", "140332.765000", "140332.768000", "140332.771000", "140332.773000", "140332.776000", "140332.779000", "140332.781000", "140332.784000", "140332.787000", "140332.789000", "140412.694000", "140412.697000", "140412.700000", "140412.702000", "140412.705000", "140412.708000", "140412.710000", "140412.713000", "140412.715000", "140412.718000", "140412.721000", "140412.723000", "140412.726000", "140412.728000", "140412.731000", "140412.734000", "140412.736000", "140412.739000", "140412.741000", "140412.744000", "140412.747000", "140412.749000", "140412.752000", "140412.754000", "140412.757000", "140412.760000", "140412.762000", "140453.382000", "140453.385000", "140453.387000", "140453.390000", "140453.393000", "140453.395000", "140453.398000", "140453.400000", "140453.403000", "140453.405000", "140453.408000", "140453.411000", "140453.413000", "140453.416000", "140453.419000", "140453.421000", "140453.424000", "140453.426000", "140453.429000", "140453.431000", "140453.434000", "140453.437000", "140453.439000", "140453.442000", "140453.445000", "140453.447000", "140453.450000", "140532.728000", "140532.731000", "140532.733000", "140532.736000", "140532.738000", "140532.741000", "140532.744000", "140532.746000", "140532.749000", "140532.751000", "140532.754000", "140532.757000", "140532.759000", "140532.762000", "140532.765000", "140532.767000", "140532.815000", "140532.817000", "140532.820000", "140532.822000", "140532.825000", "140532.827000", "140532.830000", "140532.833000", "140532.835000", "140532.838000", "140612.701000", "140612.704000", "140612.707000", "140612.709000", "140612.712000", "140612.715000", "140612.717000", "140612.720000", "140612.722000", "140612.725000", "140612.728000", "140612.730000", "140612.733000", "140612.736000", "140612.738000", "140612.741000", "140612.744000", "140612.746000", "140612.749000", "140612.751000", "140612.754000", "140612.757000", "140612.759000", "140612.762000", "140612.764000", "140612.767000", "140612.854000", "140652.698000", "140652.701000", "140652.703000", "140652.706000", "140652.708000", "140652.711000", "140652.713000", "140652.716000", "140652.719000", "140652.721000", "140652.724000", "140652.727000", "140652.729000", "140652.732000", "140652.734000", "140652.737000", "140652.739000", "140652.742000", "140652.745000", "140652.747000", "140652.750000", "140652.752000", "140652.755000", "140652.758000", "140652.760000", "140652.763000", "140652.765000", "140732.711000", "140732.714000", "140732.724000", "140732.727000", "140732.730000", "140732.732000", "140732.735000", "140732.737000", "140732.740000", "140732.743000", "140732.745000", "140732.748000", "140732.750000", "140732.753000", "140732.755000", "140732.758000", "140732.761000", "140732.763000", "140732.766000", "140732.769000", "140732.771000", "140732.774000", "140732.776000", "140732.779000", "140732.782000", "140732.784000", "140732.787000", "140812.708000", "140812.710000", "140812.713000", "140812.716000", "140812.718000", "140812.721000", "140812.724000", "140812.726000", "140812.729000", "140812.731000", "140812.734000", "140812.737000", "140812.739000", "140812.742000", "140812.744000", "140812.747000", "140812.749000", "140812.752000", "140812.755000", "140812.757000", "140812.760000", "140812.762000", "140812.765000", "140812.768000", "140812.770000", "140812.773000", "140812.775000", "140852.704000", "140852.707000", "140852.710000", "140852.712000", "140852.715000", "140852.717000", "140852.720000", "140852.723000", "140852.725000", "140852.728000", "140852.730000", "140852.733000", "140852.736000", "140852.738000", "140852.741000", "140852.743000", "140852.746000", "140852.749000", "140852.751000", "140852.754000", "140852.757000", "140852.759000", "140852.762000", "140852.764000", "140852.767000", "140852.770000", "140852.773000", "140932.702000", "140932.705000", "140932.707000", "140932.710000", "140932.713000", "140932.715000", "140932.718000", "140932.720000", "140932.723000", "140932.726000", "140932.728000", "140932.731000", "140932.733000", "140932.736000", "140932.739000", "140932.741000", "140932.744000", "140932.746000", "140932.749000", "140932.751000", "140932.754000", "140932.757000", "140932.759000", "140932.762000", "140932.765000", "140932.767000", "140932.821000", "140952.672000", "140952.675000", "140952.677000", "140952.680000", "140952.683000", "140952.685000", "140952.688000", "140952.690000", "140952.693000", "140952.695000", "140952.698000", "140952.701000", "140952.703000", "141032.738000", "141032.740000", "141032.743000", "141032.746000", "141032.748000", "141032.751000", "141032.753000", "141032.756000", "141032.759000", "141032.761000", "141032.764000", "141032.766000", "141032.892000", "141032.895000", "141032.898000", "141032.900000", "141032.903000", "141032.905000", "141032.908000", "141032.911000", "141032.913000", "141032.916000", "141032.918000", "141032.921000", "141032.924000", "141032.926000", "141032.929000"],
