{
  "AcquisitionMatrixPE": 104,
  "AcquisitionNumber": 1,
  "AcquisitionTime": "13:59:32.902500",
  "BandwidthPerPixelPhaseEncode": 17.17,
  "BaseResolution": 104,
  "BodyPartExamined": "BRAIN",
  "CoilString": "HC1-7;NC1_2",
  "ConsistencyInfo": "N4_VE11C_LATEST_20160120",
  "ConversionSoftware": "dcm2niix",
  "ConversionSoftwareVersion": "v1.0.20190902",
  "DerivedVendorReportedEchoSpacing": 0.000560011,
  "DeviceSerialNumber": "167006",
  "DwellTime": 2.1e-06,
  "EchoTime": 0.037,
  "EchoTrainLength": 104,
  "EffectiveEchoSpacing": 0.000560011,
  "FlipAngle": 52,
  "HeudiconvVersion": "0.10.0",
  "ImageComments": "Unaliased_MB4_PE3_LB",
  "ImageOrientationPatientDICOM": [0.999929, 0.00337935, -0.011452, -0.00890075, 0.850278, -0.526258],
  "ImageType": [
    "ORIGINAL",
    "PRIMARY",
    "M",
    "MB",
    "ND",
    "MOSAIC"
],
  "ImagingFrequency": 123.259,
  "InPlanePhaseEncodingDirectionDICOM": "COL",
  "InstitutionAddress": "Chemin_Queen-Mary_4565_Montreal_District_CA_H3W_1W5",
  "InstitutionName": "IUGM",
  "InstitutionalDepartmentName": "Department",
  "MRAcquisitionType": "2D",
  "MagneticFieldStrength": 3,
  "Manufacturer": "Siemens",
  "ManufacturersModelName": "Prisma_fit",
  "Modality": "MR",
  "MultibandAccelerationFactor": 4,
  "PartialFourier": 1,
  "PatientPosition": "HFS",
  "PercentPhaseFOV": 100,
  "PhaseEncodingDirection": "j",
  "PhaseEncodingSteps": 104,
  "PhaseResolution": 1,
  "PixelBandwidth": 2290,
  "ProcedureStepDescription": "games_mario",
  "ProtocolName": "func_task-mario_run-01",
  "PulseSequenceDetails": "%CustomerSeq%_cmrr_mbep2d_bold",
  "ReceiveCoilActiveElements": "HC1-7;NC1,2",
  "ReceiveCoilName": "HeadNeck_64",
  "ReconMatrixPE": 104,
  "RepetitionTime": 1.49,
  "SAR": 0.0539446,
  "ScanOptions": "FS",
  "ScanningSequence": "EP",
  "SequenceName": "epfid2d1_104",
  "SequenceVariant": "SK_SS",
  "SeriesDescription": "func_task-mario_run-01",
  "SeriesNumber": 10,
  "ShimSetting": [613, -7179, -8849, 242, 8, -190, -45, -52],
  "SliceThickness": 2,
  "SliceTiming": [0, 0.785, 0.1, 0.8825, 0.1975, 0.98, 0.295, 1.08, 0.3925, 1.1775, 0.49, 1.275, 0.59, 1.3725, 0.6875, 0, 0.785, 0.1, 0.8825, 0.1975, 0.98, 0.295, 1.08, 0.3925, 1.1775, 0.49, 1.275, 0.59, 1.3725, 0.6875, 0, 0.785, 0.1, 0.8825, 0.1975, 0.98, 0.295, 1.08, 0.3925, 1.1775, 0.49, 1.275, 0.59, 1.3725, 0.6875, 0, 0.785, 0.1, 0.8825, 0.1975, 0.98, 0.295, 1.08, 0.3925, 1.1775, 0.49, 1.275, 0.59, 1.3725, 0.6875],
  "SoftwareVersions": "syngo_MR_E11",
  "SpacingBetweenSlices": 2,
  "StationName": "MRC35049",
  "TaskName": "mario",
  "TotalReadoutTime": 0.0576811,
  "TxRefAmp": 283.159,
  "WipMemBlock": "80a56b5c-748b-4679-b031-ba11d918c35c||Sequence: R016 ve11c/master r/e634e98; Dec 19 2017 11:00:25 by eja",
  "dcmmeta_affine": [
    [-1.9998574256896973, -0.017801502719521523, -0.01591799594461918, 107.4312744140625],
    [-0.0067587061785161495, 1.7005562782287598, -1.0526455640792847, -49.10608673095703],
    [-0.022904060781002045, 1.0525168180465698, 1.7004952430725098, -77.16305541992188],
    [0.0, 0.0, 0.0, 1.0]
],
  "dcmmeta_reorient_transform": [
    [0.0, -1.0, 0.0, 103.0],
    [1.0, 0.0, 0.0, 0.0],
    [0.0, 0.0, 1.0, 0.0],
    [0.0, 0.0, 0.0, 1.0]
],
  "dcmmeta_shape": [104, 104, 60, 442],
  "dcmmeta_slice_dim": 2,
  "dcmmeta_version": 0.6,
  "global": {
    "const": {
      "AcquisitionMatrix": [104, 0, 0, 104],
      "AngioFlag": "N",
      "BitsAllocated": 16,
      "BitsStored": 16,
      "BodyPartExamined": "BRAIN",
      "Columns": 832,
      "EchoNumbers": 1,
      "EchoTime": 37.0,
      "EchoTrainLength": 104,
      "FlipAngle": 52.0,
      "HighBit": 15,
      "ImageOrientationPatient": [0.99992871294942, 0.0033793530969, -0.0114520300366, -0.0089007513545, 0.85027812432724, -0.5262583851264],
      "ImagePositionPatient": [-827.06607726415, -747.51384946395, 422.69935283022],
      "ImageType": [
        "ORIGINAL",
        "PRIMARY",
        "M",
        "MB",
        "ND",
        "MOSAIC"
],
      "ImagedNucleus": "1H",
      "ImagingFrequency": 123.258884,
      "InPlanePhaseEncodingDirection": "COL",
      "MRAcquisitionType": "2D",
      "MagneticFieldStrength": 3.0,
      "Manufacturer": "SIEMENS",
      "ManufacturerModelName": "Prisma_fit",
      "Modality": "MR",
      "NumberOfAverages": 1.0,
      "NumberOfPhaseEncodingSteps": 104,
      "PercentPhaseFieldOfView": 100.0,
      "PercentSampling": 100.0,
      "PerformedProcedureStepStartTime": "133231.469000",
      "PhotometricInterpretation": "MONOCHROME2",
      "PixelBandwidth": 2290.0,
      "PixelRepresentation": 0,
      "PixelSpacing": [2.0, 2.0],
      "ProtocolName": "func_task-mario_run-01",
      "RepetitionTime": 1490.0,
      "Rows": 832,
      "SAR": 0.05394460692656,
      "SamplesPerPixel": 1,
      "ScanOptions": "FS",
      "ScanningSequence": "EP",
      "SequenceName": "epfid2d1_104",
      "SequenceVariant": [
        "SK",
        "SS"
],
      "SeriesDescription": "func_task-mario_run-01",
      "SeriesNumber": 10,
      "SeriesTime": "140032.613000",
      "SliceLocation": -40.617094609517,
      "SliceThickness": 2.0,
      "SmallestImagePixelValue": 0,
      "SoftwareVersions": "syngo MR E11",
      "SpacingBetweenSlices": 2.0000000063995,
      "SpecificCharacterSet": "ISO_IR 100",
      "StudyID": "1",
      "StudyTime": "133231.330000",
      "TransmitCoilName": "Body",
      "VariableFlipAngleFlag": "N",
      "WindowCenterWidthExplanation": "Algo1",
      "dBdt": 0.0},
    "slices": {}
  },
  "time": {
    "samples": {
      "AcquisitionNumber": [1, 2, 3, 4, 5, 6, 7, 8, 9, 10, 11, 12, 13, 14, 15, 16, 17, 18, 19, 20, 21, 22, 23, 24, 25, 26, 27, 28, 29, 30, 31, 32, 33, 34, 35, 36, 37, 38, 39, 40, 41, 42, 43, 44, 45, 46, 47, 48, 49, 50, 51, 52, 53, 54, 55, 56, 57, 58, 59, 60, 61, 62, 63, 64, 65, 66, 67, 68, 69, 70, 71, 72, 73, 74, 75, 76, 77, 78, 79, 80, 81, 82, 83, 84, 85, 86, 87, 88, 89, 90, 91, 92, 93, 94, 95, 96, 97, 98, 99, 100, 101, 102, 103, 104, 105, 106, 107, 108, 109, 110, 111, 112, 113, 114, 115, 116, 117, 118, 119, 120, 121, 122, 123, 124, 125, 126, 127, 128, 129, 130, 131, 132, 133, 134, 135, 136, 137, 138, 139, 140, 141, 142, 143, 144, 145, 146, 147, 148, 149, 150, 151, 152, 153, 154, 155, 156, 157, 158, 159, 160, 161, 162, 163, 164, 165, 166, 167, 168, 169, 170, 171, 172, 173, 174, 175, 176, 177, 178, 179, 180, 181, 182, 183, 184, 185, 186, 187, 188, 189, 190, 191, 192, 193, 194, 195, 196, 197, 198, 199, 200, 201, 202, 203, 204, 205, 206, 207, 208, 209, 210, 211, 212, 213, 214, 215, 216, 217, 218, 219, 220, 221, 222, 223, 224, 225, 226, 227, 228, 229, 230, 231, 232, 233, 234, 235, 236, 237, 238, 239, 240, 241, 242, 243, 244, 245, 246, 247, 248, 249, 250, 251, 252, 253, 254, 255, 256, 257, 258, 259, 260, 261, 262, 263, 264, 265, 266, 267, 268, 269, 270, 271, 272, 273, 274, 275, 276, 277, 278, 279, 280, 281, 282, 283, 284, 285, 286, 287, 288, 289, 290, 291, 292, 293, 294, 295, 296, 297, 298, 299, 300, 301, 302, 303, 304, 305, 306, 307, 308, 309, 310, 311, 312, 313, 314, 315, 316, 317, 318, 319, 320, 321, 322, 323, 324, 325, 326, 327, 328, 329, 330, 331, 332, 333, 334, 335, 336, 337, 338, 339, 340, 341, 342, 343, 344, 345, 346, 347, 348, 349, 350, 351, 352, 353, 354, 355, 356, 357, 358, 359, 360, 361, 362, 363, 364, 365, 366, 367, 368, 369, 370, 371, 372, 373, 374, 375, 376, 377, 378, 379, 380, 381, 382, 383, 384, 385, 386, 387, 388, 389, 390, 391, 392, 393, 394, 395, 396, 397, 398, 399, 400, 401, 402, 403, 404, 405, 406, 407, 408, 409, 410, 411, 412, 413, 414, 415, 416, 417, 418, 419, 420, 421, 422, 423, 424, 425, 426, 427, 428, 429, 430, 431, 432, 433, 434, 435, 436, 437, 438, 439, 440, 441, 442],
      "AcquisitionTime": ["135932.902500", "135934.392500", "135935.882500", "135937.372500", "135938.862500", "135940.352500", "135941.842500", "135943.332500", "135944.822500", "135946.312500", "135947.802500", "135949.292500", "135950.782500", "135952.272500", "135953.762500", "135955.252500", "135956.742500", "135958.232500", "135959.722500", "140001.212500", "140002.702500", "140004.192500", "140005.682500", "140007.172500", "140008.662500", "140010.152500", "140011.642500", "140013.132500", "140014.622500", "140016.112500", "140017.602500", "140019.092500", "140020.582500", "140022.072500", "140023.562500", "140025.052500", "140026.542500", "140028.032500", "140029.522500", "140031.012500", "140032.502500", "140033.992500", "140035.482500", "140036.972500", "140038.462500", "140039.952500", "140041.442500", "140042.932500", "140044.422500", "140045.912500", "140047.402500", "140048.892500", "140050.382500", "140051.872500", "140053.362500", "140054.852500", "140056.342500", "140057.832500", "140059.322500", "140100.812500", "140102.302500", "140103.792500", "140105.282500", "140106.772500", "140108.262500", "140109.752500", "140111.242500", "140112.732500", "140114.222500", "140115.712500", "140117.202500", "140118.692500", "140120.182500", "140121.672500", "140123.162500", "140124.652500", "140126.142500", "140127.632500", "140129.122500", "140130.612500", "140132.102500", "140133.592500", "140135.082500", "140136.572500", "140138.062500", "140139.552500", "140141.042500", "140142.532500", "140144.022500", "140145.512500", "140147.002500", "140148.492500", "140149.982500", "140151.472500", "140152.962500", "140154.452500", "140155.942500", "140157.432500", "140158.922500", "140200.412500", "140201.902500", "140203.392500", "140204.882500", "140206.372500", "140207.862500", "140209.352500", "140210.842500", "140212.332500", "140213.822500", "140215.312500", "140216.802500", "140218.292500", "140219.782500", "140221.272500", "140222.762500", "140224.252500", "140225.742500", "140227.232500", "140228.722500", "140230.212500", "140231.702500", "140233.192500", "140234.682500", "140236.172500", "140237.662500", "140239.152500", "140240.642500", "140242.132500", "140243.622500", "140245.112500", "140246.602500", "140248.092500", "140249.582500", "140251.072500", "140252.562500", "140254.052500", "140255.542500", "140257.032500", "140258.522500", "140300.012500", "140301.502500", "140302.992500", "140304.482500", "140305.972500", "140307.462500", "140308.952500", "140310.442500", "140311.932500", "140313.422500", "140314.912500", "140316.402500", "140317.892500", "140319.382500", "140320.872500", "140322.362500", "140323.852500", "140325.342500", "140326.832500", "140328.322500", "140329.812500", "140331.302500", "140332.792500", "140334.282500", "140335.772500", "140337.262500", "140338.752500", "140340.242500", "140341.732500", "140343.222500", "140344.712500", "140346.202500", "140347.692500", "140349.182500", "140350.672500", "140352.162500", "140353.652500", "140355.142500", "140356.632500", "140358.122500", "140359.612500", "140401.102500", "140402.592500", "140404.082500", "140405.572500", "140407.062500", "140408.552500", "140410.042500", "140411.532500", "140413.022500", "140414.512500", "140416.002500", "140417.492500", "140418.982500", "140420.472500", "140421.962500", "140423.452500", "140424.942500", "140426.432500", "140427.922500", "140429.412500", "140430.902500", "140432.392500", "140433.882500", "140435.372500", "140436.862500", "140438.352500", "140439.842500", "140441.332500", "140442.822500", "140444.312500", "140445.802500", "140447.292500", "140448.782500", "140450.272500", "140451.762500", "140453.252500", "140454.742500", "140456.232500", "140457.722500", "140459.212500", "140500.702500", "140502.192500", "140503.682500", "140505.172500", "140506.662500", "140508.152500", "140509.642500", "140511.132500", "140512.622500", "140514.112500", "140515.602500", "140517.092500", "140518.582500", "140520.072500", "140521.562500", "140523.052500", "140524.542500", "140526.032500", "140527.522500", "140529.012500", "140530.502500", "140531.992500", "140533.482500", "140534.972500", "140536.462500", "140537.952500", "140539.442500", "140540.932500", "140542.422500", "140543.912500", "140545.402500", "140546.892500", "140548.382500", "140549.872500", "140551.362500", "140552.852500", "140554.342500", "140555.832500", "140557.322500", "140558.812500", "140600.302500", "140601.792500", "140603.282500", "140604.772500", "140606.262500", "140607.752500", "140609.242500", "140610.732500", "140612.222500", "140613.712500", "140615.202500", "140616.692500", "140618.182500", "140619.672500", "140621.162500", "140622.652500", "140624.142500", "140625.632500", "140627.122500", "140628.612500", "140630.102500", "140631.592500", "140633.082500", "140634.572500", "140636.062500", "140637.552500", "140639.042500", "140640.532500", "140642.022500", "140643.512500", "140645.002500", "140646.492500", "140647.982500", "140649.472500", "140650.962500", "140652.452500", "140653.942500", "140655.432500", "140656.922500", "140658.412500", "140659.902500", "140701.392500", "140702.882500", "140704.372500", "140705.862500", "140707.352500", "140708.842500", "140710.332500", "140711.822500", "140713.312500", "140714.802500", "140716.292500", "140717.782500", "140719.272500", "140720.762500", "140722.252500", "140723.742500", "140725.232500", "140726.722500", "140728.212500", "140729.702500", "140731.192500", "140732.682500", "140734.172500", "140735.662500", "140737.152500", "140738.642500", "140740.132500", "140741.622500", "140743.112500", "140744.602500", "140746.092500", "140747.582500", "140749.072500", "140750.562500", "140752.052500", "140753.542500", "140755.032500", "140756.522500", "140758.012500", "140759.502500", "140800.992500", "140802.482500", "140803.972500", "140805.462500", "140806.952500", "140808.442500", "140809.932500", "140811.422500", "140812.912500", "140814.402500", "140815.892500", "140817.382500", "140818.872500", "140820.362500", "140821.852500", "140823.342500", "140824.832500", "140826.322500", "140827.812500", "140829.302500", "140830.792500", "140832.282500", "140833.772500", "140835.262500", "140836.752500", "140838.242500", "140839.732500", "140841.222500", "140842.712500", "140844.202500", "140845.692500", "140847.182500", "140848.672500", "140850.162500", "140851.652500", "140853.142500", "140854.632500", "140856.122500", "140857.612500", "140859.102500", "140900.592500", "140902.082500", "140903.572500", "140905.062500", "140906.552500", "140908.042500", "140909.532500", "140911.022500", "140912.512500", "140914.002500", "140915.492500", "140916.982500", "140918.472500", "140919.962500", "140921.452500", "140922.942500", "140924.432500", "140925.922500", "140927.412500", "140928.902500", "140930.392500", "140931.882500", "140933.372500", "140934.862500", "140936.352500", "140937.842500", "140939.332500", "140940.822500", "140942.312500", "140943.802500", "140945.292500", "140946.782500", "140948.272500", "140949.762500", "140951.252500", "140952.742500", "140954.232500", "140955.722500", "140957.212500", "140958.702500", "141000.192500", "141001.682500", "141003.172500", "141004.662500", "141006.152500", "141007.642500", "141009.132500", "141010.622500", "141012.112500", "141013.602500", "141015.092500", "141016.582500", "141018.072500", "141019.562500", "141021.052500", "141022.542500", "141024.032500", "141025.522500", "141027.012500", "141028.502500", "141029.992500"],
      "ContentTime": ["140032.616000", "140032.620000", "140032.623000", "140032.627000", "140032.630000", "140032.633000", "140052.562000", "140052.571000", "140052.574000", "140052.578000", "140052.581000", "140052.584000", "140052.588000", "140052.591000", "140052.595000", "140052.598000", "140052.602000", "140052.605000", "140052.609000", "140052.612000", "140052.615000", "140052.619000", "140052.622000", "140052.626000", "140052.629000", "140052.632000", "140132.562000", "140132.566000", "140132.569000", "140132.573000", "140132.576000", "140132.580000", "140132.583000", "140132.587000", "140132.590000", "140132.594000", "140132.597000", "140132.606000", "140132.610000", "140132.613000", "140132.617000", "140132.620000", "140132.624000", "140132.627000", "140132.631000", "140132.634000", "140132.637000", "140132.641000", "140132.644000", "140132.648000", "140132.651000", "140132.654000", "140132.658000", "140132.661000", "140132.665000", "140132.668000", "140132.672000", "140132.675000", "140132.678000", "140132.682000", "140132.685000", "140132.689000", "140132.692000", "140132.695000", "140132.699000", "140132.702000", "140152.562000", "140152.566000", "140152.569000", "140152.573000", "140152.576000", "140152.580000", "140152.583000", "140152.587000", "140152.590000", "140152.594000", "140152.597000", "140152.600000", "140152.604000", "140152.607000", "140152.611000", "140152.614000", "140152.632000", "140152.635000", "140152.639000", "140152.642000", "140212.562000", "140212.566000", "140212.569000", "140212.573000", "140212.576000", "140212.580000", "140212.583000", "140212.587000", "140212.590000", "140212.594000", "140212.597000", "140212.600000", "140212.604000", "140212.607000", "140212.611000", "140212.614000", "140212.617000", "140212.621000", "140212.624000", "140212.628000", "140252.563000", "140252.567000", "140252.570000", "140252.574000", "140252.577000", "140252.581000", "140252.585000", "140252.588000", "140252.592000", "140252.595000", "140252.599000", "140252.602000", "140252.606000", "140252.609000", "140252.612000", "140252.616000", "140252.619000", "140252.623000", "140252.626000", "140252.630000", "140252.633000", "140252.636000", "140252.640000", "140252.643000", "140252.647000", "140252.650000", "140252.666000", "140332.562000", "140332.566000", "140332.570000", "140332.573000", "140332.577000", "140332.580000", "140332.583000", "140332.587000", "140332.590000", "140332.594000", "140332.597000", "140332.601000", "140332.604000", "140332.608000", "140332.611000", "140332.614000", "140332.618000", "140332.621000", "140332.625000", "140332.628000", "140332.632000", "140332.635000", "140332.638000", "140332.642000", "140332.645000", "140332.649000", "140332.652000", "140412.562000", "140412.566000", "140412.570000", "140412.573000", "140412.577000", "140412.580000", "140412.583000", "140412.587000", "140412.590000", "140412.594000", "140412.597000", "140412.601000", "140412.604000", "140412.608000", "140412.611000", "140412.614000", "140412.618000", "140412.621000", "140412.625000", "140412.628000", "140412.632000", "140412.635000", "140412.639000", "140412.642000", "140412.646000", "140412.649000", "140412.653000", "140452.563000", "140452.567000", "140452.571000", "140452.574000", "140452.578000", "140452.581000", "140452.585000", "140452.588000", "140452.592000", "140452.595000", "140452.598000", "140452.602000", "140452.605000", "140452.617000", "140452.620000", "140452.624000", "140452.627000", "140452.631000", "140452.634000", "140452.637000", "140452.641000", "140452.644000", "140452.648000", "140452.651000", "140452.655000", "140452.658000", "140452.661000", "140532.563000", "140532.567000", "140532.571000", "140532.575000", "140532.580000", "140532.585000", "140532.590000", "140532.594000", "140532.598000", "140532.601000", "140532.605000", "140532.608000", "140532.612000", "140532.615000", "140532.629000", "140532.633000", "140532.636000", "140532.639000", "140532.643000", "140532.646000", "140532.650000", "140532.653000", "140532.657000", "140532.660000", "140532.664000", "140532.667000", "140612.562000", "140612.566000", "140612.570000", "140612.573000", "140612.576000", "140612.580000", "140612.583000", "140612.587000", "140612.590000", "140612.594000", "140612.597000", "140612.601000", "140612.604000", "140612.607000", "140612.611000", "140612.615000", "140612.618000", "140612.622000", "140612.625000", "140612.629000", "140612.632000", "140612.636000", "140612.639000", "140612.643000", "140612.646000", "140612.650000", "140612.653000", "140652.562000", "140652.567000", "140652.570000", "140652.574000", "140652.577000", "140652.581000", "140652.584000", "140652.588000", "140652.591000", "140652.595000", "140652.598000", "140652.602000", "140652.605000", "140652.609000", "140652.612000", "140652.616000", "140652.619000", "140652.622000", "140652.626000", "140652.629000", "140652.633000", "140652.636000", "140652.640000", "140652.643000", "140652.647000", "140652.650000", "140652.653000", "140732.563000", "140732.567000", "140732.571000", "140732.574000", "140732.578000", "140732.581000", "140732.585000", "140732.588000", "140732.592000", "140732.595000", "140732.598000", "140732.602000", "140732.605000", "140732.609000", "140732.612000", "140732.616000", "140732.619000", "140732.622000", "140732.626000", "140732.629000", "140732.633000", "140732.636000", "140732.640000", "140732.643000", "140732.647000", "140732.650000", "140732.653000", "140812.562000", "140812.566000", "140812.570000", "140812.573000", "140812.577000", "140812.580000", "140812.584000", "140812.587000", "140812.591000", "140812.594000", "140812.597000", "140812.601000", "140812.604000", "140812.608000", "140812.611000", "140812.615000", "140812.618000", "140812.622000", "140812.625000", "140812.629000", "140812.632000", "140812.635000", "140812.639000", "140812.642000", "140812.646000", "140812.649000", "140812.653000", "140852.562000", "140852.566000", "140852.570000", "140852.573000", "140852.577000", "140852.580000", "140852.584000", "140852.587000", "140852.590000", "140852.594000", "140852.597000", "140852.601000", "140852.604000", "140852.608000", "140852.611000", "140852.615000", "140852.618000", "140852.622000", "140852.625000", "140852.628000", "140852.632000", "140852.635000", "140852.639000", "140852.642000", "140852.645000", "140852.649000", "140852.652000", "140932.563000", "140932.567000", "140932.571000", "140932.574000", "140932.578000", "140932.581000", "140932.585000", "140932.588000", "140932.591000", "140932.595000", "140932.598000", "140932.602000", "140932.605000", "140932.609000", "140932.612000", "140932.616000", "140932.619000", "140932.622000", "140932.626000", "140932.629000", "140932.633000", "140932.636000", "140932.640000", "140932.643000", "140932.647000", "140932.650000", "140932.654000", "140952.576000", "140952.579000", "140952.583000", "140952.586000", "140952.590000", "140952.593000", "140952.596000", "140952.600000", "140952.603000", "140952.607000", "140952.610000", "140952.614000", "140952.617000", "141032.562000", "141032.566000", "141032.570000", "141032.573000", "141032.577000", "141032.580000", "141032.583000", "141032.587000", "141032.590000", "141032.594000", "141032.597000", "141032.601000", "141032.604000", "141032.608000", "141032.611000", "141032.615000", "141032.618000", "141032.622000", "141032.625000", "141032.628000", "141032.632000", "141032.635000", "141032.639000", "141032.642000", "141032.646000", "141032.649000", "141032.653000"],
