{
  "AcquisitionMatrixPE": 104,
  "AcquisitionNumber": 1,
  "AcquisitionTime": "18:05:14.380000",
  "BandwidthPerPixelPhaseEncode": 17.17,
  "BaseResolution": 104,
  "BodyPartExamined": "BRAIN",
  "CoilString": "HC1-7;NC1_2",
  "ConsistencyInfo": "N4_VE11C_LATEST_20160120",
  "ConversionSoftware": "dcm2niix",
  "ConversionSoftwareVersion": "v1.0.20190902",
  "DerivedVendorReportedEchoSpacing": 0.000560011,
  "DeviceSerialNumber": "167006",
  "DwellTime": 2.1e-06,
  "EchoTime": 0.037,
  "EchoTrainLength": 104,
  "EffectiveEchoSpacing": 0.000560011,
  "FlipAngle": 52,
  "HeudiconvVersion": "0.10.0",
  "ImageComments": "Unaliased_MB4_PE3_LB",
  "ImageOrientationPatientDICOM": [0.99966, 0.00357147, 0.0258145, 0.00366396, 0.961464, -0.274905],
  "ImageType": [
    "ORIGINAL",
    "PRIMARY",
    "M",
    "MB",
    "ND",
    "MOSAIC"
],
  "ImagingFrequency": 123.259,
  "InPlanePhaseEncodingDirectionDICOM": "COL",
  "InstitutionAddress": "Chemin_Queen-Mary_4565_Montreal_District_CA_H3W_1W5",
  "InstitutionName": "IUGM",
  "InstitutionalDepartmentName": "Department",
  "MRAcquisitionType": "2D",
  "MagneticFieldStrength": 3,
  "Manufacturer": "Siemens",
  "ManufacturersModelName": "Prisma_fit",
  "Modality": "MR",
  "MultibandAccelerationFactor": 4,
  "PartialFourier": 1,
  "PatientPosition": "HFS",
  "PercentPhaseFOV": 100,
  "PhaseEncodingDirection": "j",
  "PhaseEncodingSteps": 104,
  "PhaseResolution": 1,
  "PixelBandwidth": 2290,
  "ProcedureStepDescription": "games_mario",
  "ProtocolName": "func_task-mario_run-01",
  "PulseSequenceDetails": "%CustomerSeq%_cmrr_mbep2d_bold",
  "ReceiveCoilActiveElements": "HC1-7;NC1,2",
  "ReceiveCoilName": "HeadNeck_64",
  "ReconMatrixPE": 104,
  "RepetitionTime": 1.49,
  "SAR": 0.0557818,
  "ScanOptions": "FS",
  "ScanningSequence": "EP",
  "SequenceName": "epfid2d1_104",
  "SequenceVariant": "SK_SS",
  "SeriesDescription": "func_task-mario_run-01",
  "SeriesNumber": 10,
  "ShimSetting": [642, -7206, -8738, 704, 65, 25, 37, -27],
  "SliceThickness": 2,
  "SliceTiming": [0, 0.785, 0.1, 0.8825, 0.1975, 0.98, 0.295, 1.08, 0.3925, 1.1775, 0.49, 1.275, 0.59, 1.3725, 0.6875, 0, 0.785, 0.1, 0.8825, 0.1975, 0.98, 0.295, 1.08, 0.3925, 1.1775, 0.49, 1.275, 0.59, 1.3725, 0.6875, 0, 0.785, 0.1, 0.8825, 0.1975, 0.98, 0.295, 1.08, 0.3925, 1.1775, 0.49, 1.275, 0.59, 1.3725, 0.6875, 0, 0.785, 0.1, 0.8825, 0.1975, 0.98, 0.295, 1.08, 0.3925, 1.1775, 0.49, 1.275, 0.59, 1.3725, 0.6875],
  "SoftwareVersions": "syngo_MR_E11",
  "SpacingBetweenSlices": 2,
  "StationName": "MRC35049",
  "TaskName": "mario",
  "TotalReadoutTime": 0.0576811,
  "TxRefAmp": 258.619,
  "WipMemBlock": "50412388-1e4d-4439-9c19-045e1d55b4e5||Sequence: R016 ve11c/master r/e634e98; Dec 19 2017 11:00:25 by eja",
  "dcmmeta_affine": [
    [-1.9993207454681396, 0.007327910512685776, 0.05160311236977577, 107.30253601074219],
    [-0.007142940070480108, 1.9229285717010498, -0.5498132705688477, -73.03016662597656],
    [0.05162904039025307, 0.5498108863830566, 1.9222493171691895, -54.32143783569336],
    [0.0, 0.0, 0.0, 1.0]
],
  "dcmmeta_reorient_transform": [
    [0.0, -1.0, 0.0, 103.0],
    [1.0, 0.0, 0.0, 0.0],
    [0.0, 0.0, 1.0, 0.0],
    [0.0, 0.0, 0.0, 1.0]
],
  "dcmmeta_shape": [104, 104, 60, 455],
  "dcmmeta_slice_dim": 2,
  "dcmmeta_version": 0.6,
  "global": {
    "const": {
      "AcquisitionMatrix": [104, 0, 0, 104],
      "AngioFlag": "N",
      "BitsAllocated": 16,
      "BitsStored": 16,
      "BodyPartExamined": "BRAIN",
      "Columns": 832,
      "EchoNumbers": 1,
      "EchoTime": 37.0,
      "EchoTrainLength": 104,
      "FlipAngle": 52.0,
      "HighBit": 15,
      "ImageOrientationPatient": [0.99966036990289, 0.00357146999775, 0.02581452009366, 0.0036639552466, 0.96146428977517, -0.2749054290462],
      "ImagePositionPatient": [-838.47741593985, -827.57751298007, 183.64726364416],
      "ImageType": [
        "ORIGINAL",
        "PRIMARY",
        "M",
        "MB",
        "ND",
        "MOSAIC"
],
      "ImagedNucleus": "1H",
      "ImagingFrequency": 123.258889,
      "InPlanePhaseEncodingDirection": "COL",
      "MRAcquisitionType": "2D",
      "MagneticFieldStrength": 3.0,
      "Manufacturer": "SIEMENS",
      "ManufacturerModelName": "Prisma_fit",
      "Modality": "MR",
      "NumberOfAverages": 1.0,
      "NumberOfPhaseEncodingSteps": 104,
      "PercentPhaseFieldOfView": 100.0,
      "PercentSampling": 100.0,
      "PerformedProcedureStepStartTime": "173513.079000",
      "PhotometricInterpretation": "MONOCHROME2",
      "PixelBandwidth": 2290.0,
      "PixelRepresentation": 0,
      "PixelSpacing": [2.0, 2.0],
      "ProtocolName": "func_task-mario_run-01",
      "RepetitionTime": 1490.0,
      "Rows": 832,
      "SAR": 0.05578175033909,
      "SamplesPerPixel": 1,
      "ScanOptions": "FS",
      "ScanningSequence": "EP",
      "SequenceName": "epfid2d1_104",
      "SequenceVariant": [
        "SK",
        "SS"
],
      "SeriesDescription": "func_task-mario_run-01",
      "SeriesNumber": 10,
      "SeriesTime": "180609.386000",
      "SliceLocation": -29.364622571635,
      "SliceThickness": 2.0,
      "SmallestImagePixelValue": 0,
      "SoftwareVersions": "syngo MR E11",
      "SpacingBetweenSlices": 2.0000000089362,
      "SpecificCharacterSet": "ISO_IR 100",
      "StudyID": "1",
      "StudyTime": "173513.026000",
      "TransmitCoilName": "Body",
      "VariableFlipAngleFlag": "N",
      "WindowCenterWidthExplanation": "Algo1",
      "dBdt": 0.0},
    "slices": {}
  },
  "time": {
    "samples": {
      "AcquisitionNumber": [1, 2, 3, 4, 5, 6, 7, 8, 9, 10, 11, 12, 13, 14, 15, 16, 17, 18, 19, 20, 21, 22, 23, 24, 25, 26, 27, 28, 29, 30, 31, 32, 33, 34, 35, 36, 37, 38, 39, 40, 41, 42, 43, 44, 45, 46, 47, 48, 49, 50, 51, 52, 53, 54, 55, 56, 57, 58, 59, 60, 61, 62, 63, 64, 65, 66, 67, 68, 69, 70, 71, 72, 73, 74, 75, 76, 77, 78, 79, 80, 81, 82, 83, 84, 85, 86, 87, 88, 89, 90, 91, 92, 93, 94, 95, 96, 97, 98, 99, 100, 101, 102, 103, 104, 105, 106, 107, 108, 109, 110, 111, 112, 113, 114, 115, 116, 117, 118, 119, 120, 121, 122, 123, 124, 125, 126, 127, 128, 129, 130, 131, 132, 133, 134, 135, 136, 137, 138, 139, 140, 141, 142, 143, 144, 145, 146, 147, 148, 149, 150, 151, 152, 153, 154, 155, 156, 157, 158, 159, 160, 161, 162, 163, 164, 165, 166, 167, 168, 169, 170, 171, 172, 173, 174, 175, 176, 177, 178, 179, 180, 181, 182, 183, 184, 185, 186, 187, 188, 189, 190, 191, 192, 193, 194, 195, 196, 197, 198, 199, 200, 201, 202, 203, 204, 205, 206, 207, 208, 209, 210, 211, 212, 213, 214, 215, 216, 217, 218, 219, 220, 221, 222, 223, 224, 225, 226, 227, 228, 229, 230, 231, 232, 233, 234, 235, 236, 237, 238, 239, 240, 241, 242, 243, 244, 245, 246, 247, 248, 249, 250, 251, 252, 253, 254, 255, 256, 257, 258, 259, 260, 261, 262, 263, 264, 265, 266, 267, 268, 269, 270, 271, 272, 273, 274, 275, 276, 277, 278, 279, 280, 281, 282, 283, 284, 285, 286, 287, 288, 289, 290, 291, 292, 293, 294, 295, 296, 297, 298, 299, 300, 301, 302, 303, 304, 305, 306, 307, 308, 309, 310, 311, 312, 313, 314, 315, 316, 317, 318, 319, 320, 321, 322, 323, 324, 325, 326, 327, 328, 329, 330, 331, 332, 333, 334, 335, 336, 337, 338, 339, 340, 341, 342, 343, 344, 345, 346, 347, 348, 349, 350, 351, 352, 353, 354, 355, 356, 357, 358, 359, 360, 361, 362, 363, 364, 365, 366, 367, 368, 369, 370, 371, 372, 373, 374, 375, 376, 377, 378, 379, 380, 381, 382, 383, 384, 385, 386, 387, 388, 389, 390, 391, 392, 393, 394, 395, 396, 397, 398, 399, 400, 401, 402, 403, 404, 405, 406, 407, 408, 409, 410, 411, 412, 413, 414, 415, 416, 417, 418, 419, 420, 421, 422, 423, 424, 425, 426, 427, 428, 429, 430, 431, 432, 433, 434, 435, 436, 437, 438, 439, 440, 441, 442, 443, 444, 445, 446, 447, 448, 449, 450, 451, 452, 453, 454, 455],
      "AcquisitionTime": ["180514.380000", "180515.870000", "180517.360000", "180518.850000", "180520.340000", "180521.830000", "180523.320000", "180524.810000", "180526.300000", "180527.790000", "180529.280000", "180530.770000", "180532.260000", "180533.750000", "180535.240000", "180536.730000", "180538.220000", "180539.710000", "180541.200000", "180542.690000", "180544.180000", "180545.670000", "180547.160000", "180548.650000", "180550.140000", "180551.630000", "180553.120000", "180554.610000", "180556.100000", "180557.590000", "180559.080000", "180600.570000", "180602.060000", "180603.550000", "180605.040000", "180606.530000", "180608.020000", "180609.510000", "180611.000000", "180612.490000", "180613.980000", "180615.470000", "180616.960000", "180618.450000", "180619.940000", "180621.430000", "180622.920000", "180624.410000", "180625.900000", "180627.390000", "180628.880000", "180630.370000", "180631.860000", "180633.350000", "180634.840000", "180636.330000", "180637.820000", "180639.310000", "180640.800000", "180642.290000", "180643.780000", "180645.270000", "180646.760000", "180648.250000", "180649.740000", "180651.230000", "180652.720000", "180654.210000", "180655.700000", "180657.190000", "180658.680000", "180700.170000", "180701.660000", "180703.150000", "180704.640000", "180706.130000", "180707.620000", "180709.110000", "180710.600000", "180712.090000", "180713.580000", "180715.070000", "180716.560000", "180718.050000", "180719.540000", "180721.030000", "180722.520000", "180724.010000", "180725.500000", "180726.990000", "180728.480000", "180729.970000", "180731.460000", "180732.950000", "180734.440000", "180735.930000", "180737.420000", "180738.910000", "180740.400000", "180741.890000", "180743.380000", "180744.870000", "180746.360000", "180747.850000", "180749.340000", "180750.830000", "180752.320000", "180753.810000", "180755.300000", "180756.790000", "180758.280000", "180759.770000", "180801.260000", "180802.750000", "180804.240000", "180805.730000", "180807.220000", "180808.710000", "180810.200000", "180811.690000", "180813.180000", "180814.670000", "180816.160000", "180817.650000", "180819.140000", "180820.630000", "180822.120000", "180823.610000", "180825.100000", "180826.590000", "180828.080000", "180829.570000", "180831.060000", "180832.550000", "180834.040000", "180835.530000", "180837.020000", "180838.510000", "180840.000000", "180841.490000", "180842.980000", "180844.470000", "180845.960000", "180847.450000", "180848.940000", "180850.430000", "180851.920000", "180853.410000", "180854.900000", "180856.390000", "180857.880000", "180859.370000", "180900.860000", "180902.350000", "180903.840000", "180905.330000", "180906.820000", "180908.310000", "180909.800000", "180911.290000", "180912.780000", "180914.270000", "180915.760000", "180917.250000", "180918.740000", "180920.230000", "180921.720000", "180923.210000", "180924.700000", "180926.190000", "180927.680000", "180929.170000", "180930.660000", "180932.150000", "180933.640000", "180935.130000", "180936.620000", "180938.110000", "180939.600000", "180941.090000", "180942.580000", "180944.070000", "180945.560000", "180947.050000", "180948.540000", "180950.030000", "180951.520000", "180953.010000", "180954.500000", "180955.990000", "180957.480000", "180958.970000", "181000.460000", "181001.950000", "181003.440000", "181004.930000", "181006.420000", "181007.910000", "181009.400000", "181010.890000", "181012.380000", "181013.870000", "181015.360000", "181016.850000", "181018.340000", "181019.830000", "181021.320000", "181022.810000", "181024.300000", "181025.790000", "181027.280000", "181028.770000", "181030.260000", "181031.750000", "181033.240000", "181034.730000", "181036.220000", "181037.710000", "181039.200000", "181040.690000", "181042.180000", "181043.670000", "181045.160000", "181046.650000", "181048.140000", "181049.630000", "181051.120000", "181052.610000", "181054.100000", "181055.590000", "181057.080000", "181058.570000", "181100.060000", "181101.550000", "181103.040000", "181104.530000", "181106.020000", "181107.510000", "181109.000000", "181110.490000", "181111.980000", "181113.470000", "181114.960000", "181116.450000", "181117.940000", "181119.430000", "181120.920000", "181122.410000", "181123.900000", "181125.390000", "181126.880000", "181128.370000", "181129.860000", "181131.350000", "181132.840000", "181134.330000", "181135.820000", "181137.310000", "181138.800000", "181140.290000", "181141.780000", "181143.270000", "181144.760000", "181146.250000", "181147.740000", "181149.230000", "181150.720000", "181152.210000", "181153.700000", "181155.190000", "181156.680000", "181158.170000", "181159.660000", "181201.150000", "181202.640000", "181204.130000", "181205.620000", "181207.110000", "181208.600000", "181210.090000", "181211.580000", "181213.070000", "181214.560000", "181216.050000", "181217.540000", "181219.030000", "181220.520000", "181222.010000", "181223.500000", "181224.990000", "181226.480000", "181227.970000", "181229.460000", "181230.950000", "181232.440000", "181233.930000", "181235.420000", "181236.910000", "181238.400000", "181239.890000", "181241.380000", "181242.870000", "181244.360000", "181245.850000", "181247.340000", "181248.830000", "181250.320000", "181251.810000", "181253.300000", "181254.790000", "181256.280000", "181257.770000", "181259.260000", "181300.750000", "181302.240000", "181303.730000", "181305.220000", "181306.710000", "181308.200000", "181309.690000", "181311.180000", "181312.670000", "181314.160000", "181315.650000", "181317.140000", "181318.630000", "181320.120000", "181321.610000", "181323.100000", "181324.590000", "181326.080000", "181327.570000", "181329.060000", "181330.550000", "181332.040000", "181333.530000", "181335.020000", "181336.510000", "181338.000000", "181339.490000", "181340.980000", "181342.470000", "181343.960000", "181345.450000", "181346.940000", "181348.430000", "181349.920000", "181351.410000", "181352.900000", "181354.390000", "181355.880000", "181357.370000", "181358.860000", "181400.350000", "181401.840000", "181403.330000", "181404.820000", "181406.310000", "181407.800000", "181409.290000", "181410.780000", "181412.270000", "181413.760000", "181415.250000", "181416.740000", "181418.230000", "181419.720000", "181421.210000", "181422.700000", "181424.190000", "181425.680000", "181427.170000", "181428.660000", "181430.150000", "181431.640000", "181433.130000", "181434.620000", "181436.110000", "181437.600000", "181439.090000", "181440.580000", "181442.070000", "181443.560000", "181445.050000", "181446.540000", "181448.030000", "181449.520000", "181451.010000", "181452.500000", "181453.990000", "181455.480000", "181456.970000", "181458.460000", "181459.950000", "181501.440000", "181502.930000", "181504.420000", "181505.910000", "181507.400000", "181508.890000", "181510.380000", "181511.870000", "181513.360000", "181514.850000", "181516.340000", "181517.830000", "181519.320000", "181520.810000", "181522.300000", "181523.790000", "181525.280000", "181526.770000", "181528.260000", "181529.750000", "181531.240000", "181532.730000", "181534.220000", "181535.710000", "181537.200000", "181538.690000", "181540.180000", "181541.670000", "181543.160000", "181544.650000", "181546.140000", "181547.630000", "181549.120000", "181550.610000", "181552.100000", "181553.590000", "181555.080000", "181556.570000", "181558.060000", "181559.550000", "181601.040000", "181602.530000", "181604.020000", "181605.510000", "181607.000000", "181608.490000", "181609.980000", "181611.470000", "181612.960000", "181614.450000", "181615.940000", "181617.430000", "181618.920000", "181620.410000", "181621.900000", "181623.390000", "181624.880000", "181626.370000", "181627.860000", "181629.350000", "181630.840000"],
      "ContentTime": ["180609.390000", "180629.351000", "180629.355000", "180629.358000", "180629.361000", "180629.364000", "180629.372000", "180629.375000", "180629.378000", "180629.382000", "180629.385000", "180629.388000", "180629.391000", "180629.395000", "180629.398000", "180629.401000", "180629.405000", "180629.408000", "180629.411000", "180629.414000", "180629.418000", "180649.351000", "180649.355000", "180649.358000", "180649.361000", "180649.364000", "180649.368000", "180649.371000", "180649.374000", "180649.377000", "180649.381000", "180649.384000", "180649.387000", "180649.390000", "180649.394000", "180649.397000", "180649.400000", "180649.403000", "180649.407000", "180649.410000", "180649.413000", "180709.351000", "180709.355000", "180709.358000", "180709.361000", "180709.364000", "180709.368000", "180709.371000", "180709.376000", "180709.380000", "180709.383000", "180709.392000", "180709.396000", "180709.399000", "180709.403000", "180709.406000", "180709.409000", "180709.413000", "180709.416000", "180709.419000", "180709.422000", "180729.350000", "180729.354000", "180729.357000", "180729.360000", "180729.363000", "180729.367000", "180729.370000", "180729.373000", "180729.376000", "180729.380000", "180729.383000", "180729.386000", "180729.389000", "180729.393000", "180729.396000", "180729.399000", "180729.402000", "180729.405000", "180729.409000", "180729.412000", "180729.428000", "180749.350000", "180749.353000", "180749.357000", "180749.360000", "180749.363000", "180749.367000", "180749.370000", "180749.373000", "180749.376000", "180749.379000", "180749.383000", "180749.386000", "180749.389000", "180749.392000", "180749.396000", "180749.399000", "180749.402000", "180749.405000", "180749.409000", "180749.412000", "180829.350000", "180829.354000", "180829.357000", "180829.360000", "180829.364000", "180829.367000", "180829.370000", "180829.373000", "180829.377000", "180829.380000", "180829.383000", "180829.386000", "180829.390000", "180829.393000", "180829.396000", "180829.399000", "180829.403000", "180829.406000", "180829.409000", "180829.413000", "180829.416000", "180829.419000", "180829.422000", "180829.426000", "180829.429000", "180829.432000", "180829.436000", "180829.439000", "180909.351000", "180909.355000", "180909.358000", "180909.361000", "180909.365000", "180909.368000", "180909.371000", "180909.375000", "180909.378000", "180909.381000", "180909.385000", "180909.388000", "180909.391000", "180909.394000", "180909.398000", "180909.401000", "180909.404000", "180909.408000", "180909.411000", "180909.414000", "180909.418000", "180909.421000", "180909.424000", "180909.428000", "180909.431000", "180909.434000", "180909.437000", "180949.350000", "180949.354000", "180949.357000", "180949.361000", "180949.364000", "180949.367000", "180949.370000", "180949.374000", "180949.377000", "180949.380000", "180949.384000", "180949.387000", "180949.390000", "180949.394000", "180949.397000", "180949.400000", "180949.403000", "180949.407000", "180949.410000", "180949.418000", "180949.422000", "180949.425000", "180949.428000", "180949.432000", "180949.435000", "180949.449000", "180949.453000", "181029.350000", "181029.354000", "181029.357000", "181029.360000", "181029.364000", "181029.367000", "181029.370000", "181029.373000", "181029.377000", "181029.380000", "181029.383000", "181029.387000", "181029.390000", "181029.393000", "181029.396000", "181029.400000", "181029.403000", "181029.406000", "181029.409000", "181029.413000", "181029.416000", "181029.419000", "181029.423000", "181029.432000", "181029.435000", "181029.438000", "181029.441000", "181109.351000", "181109.355000", "181109.358000", "181109.362000", "181109.365000", "181109.368000", "181109.372000", "181109.375000", "181109.378000", "181109.382000", "181109.386000", "181109.390000", "181109.393000", "181109.396000", "181109.399000", "181109.403000", "181109.406000", "181109.409000", "181109.413000", "181109.416000", "181109.419000", "181109.422000", "181109.426000", "181109.429000", "181109.432000", "181109.436000", "181149.351000", "181149.355000", "181149.358000", "181149.362000", "181149.365000", "181149.368000", "181149.371000", "181149.375000", "181149.378000", "181149.381000", "181149.385000", "181149.388000", "181149.392000", "181149.395000", "181149.398000", "181149.402000", "181149.405000", "181149.408000", "181149.412000", "181149.415000", "181149.418000", "181149.421000", "181149.425000", "181149.428000", "181149.431000", "181149.435000", "181149.438000", "181229.350000", "181229.354000", "181229.357000", "181229.360000", "181229.364000", "181229.367000", "181229.370000", "181229.374000", "181229.377000", "181229.380000", "181229.384000", "181229.387000", "181229.390000", "181229.394000", "181229.397000", "181229.400000", "181229.403000", "181229.424000", "181229.427000", "181229.430000", "181229.434000", "181229.437000", "181229.440000", "181229.443000", "181229.447000", "181229.450000", "181229.453000", "181309.350000", "181309.354000", "181309.357000", "181309.361000", "181309.364000", "181309.367000", "181309.370000", "181309.374000", "181309.377000", "181309.381000", "181309.384000", "181309.387000", "181309.390000", "181309.394000", "181309.397000", "181309.400000", "181309.403000", "181309.407000", "181309.410000", "181309.413000", "181309.417000", "181309.420000", "181309.423000", "181309.426000", "181309.430000", "181309.433000", "181309.436000", "181349.351000", "181349.355000", "181349.358000", "181349.361000", "181349.365000", "181349.368000", "181349.371000", "181349.375000", "181349.378000", "181349.381000", "181349.385000", "181349.388000", "181349.391000", "181349.394000", "181349.398000", "181349.401000", "181349.404000", "181349.407000", "181349.411000", "181349.414000", "181349.417000", "181349.421000", "181349.424000", "181349.427000", "181349.431000", "181349.434000", "181349.437000", "181429.350000", "181429.354000", "181429.357000", "181429.361000", "181429.364000", "181429.367000", "181429.370000", "181429.374000", "181429.377000", "181429.380000", "181429.384000", "181429.387000", "181429.390000", "181429.393000", "181429.397000", "181429.400000", "181429.403000", "181429.407000", "181429.410000", "181429.413000", "181429.416000", "181429.420000", "181429.423000", "181429.426000", "181429.442000", "181429.446000", "181429.449000", "181449.350000", "181449.354000", "181449.357000", "181449.361000", "181449.364000", "181449.367000", "181449.370000", "181449.374000", "181449.377000", "181449.380000", "181449.384000", "181449.387000", "181449.391000", "181529.350000", "181529.354000", "181529.357000", "181529.361000", "181529.364000", "181529.367000", "181529.371000", "181529.374000", "181529.377000", "181529.381000", "181529.384000", "181529.387000", "181529.390000", "181529.394000", "181529.397000", "181529.400000", "181529.404000", "181529.407000", "181529.410000", "181529.414000", "181529.417000", "181529.420000", "181529.423000", "181529.426000", "181529.430000", "181529.433000", "181529.436000", "181609.351000", "181609.355000", "181609.358000", "181609.362000", "181609.365000", "181609.368000", "181609.372000", "181609.375000", "181609.378000", "181609.382000", "181609.385000", "181609.388000", "181609.391000", "181609.395000", "181609.398000", "181609.401000", "181609.405000", "181609.408000", "181609.411000", "181609.414000", "181609.418000", "181609.421000", "181609.424000", "181609.427000", "181609.431000", "181609.434000", "181609.437000", "181632.980000", "181632.984000", "181632.988000", "181632.991000", "181632.994000", "181632.998000", "181633.002000", "181633.006000", "181633.023000", "181633.026000", "181633.029000", "181633.033000", "181633.036000", "181633.039000", "181633.043000", "181633.046000"],
