{
  "AcquisitionMatrixPE": 104,
  "AcquisitionNumber": 1,
  "AcquisitionTime": "18:18:8.300000",
  "BandwidthPerPixelPhaseEncode": 17.17,
  "BaseResolution": 104,
  "BodyPartExamined": "BRAIN",
  "CoilString": "HC1-7;NC1_2",
  "ConsistencyInfo": "N4_VE11C_LATEST_20160120",
  "ConversionSoftware": "dcm2niix",
  "ConversionSoftwareVersion": "v1.0.20190902",
  "DerivedVendorReportedEchoSpacing": 0.000560011,
  "DeviceSerialNumber": "167006",
  "DwellTime": 2.1e-06,
  "EchoTime": 0.037,
  "EchoTrainLength": 104,
  "EffectiveEchoSpacing": 0.000560011,
  "FlipAngle": 52,
  "HeudiconvVersion": "0.10.0",
  "ImageComments": "Unaliased_MB4_PE3_LB",
  "ImageOrientationPatientDICOM": [0.99966, 0.00357147, 0.0258145, 0.00366396, 0.961464, -0.274905],
  "ImageType": [
    "ORIGINAL",
    "PRIMARY",
    "P",
    "MB",
    "ND",
    "MOSAIC"
],
  "ImagingFrequency": 123.259,
  "InPlanePhaseEncodingDirectionDICOM": "COL",
  "InstitutionAddress": "Chemin_Queen-Mary_4565_Montreal_District_CA_H3W_1W5",
  "InstitutionName": "IUGM",
  "InstitutionalDepartmentName": "Department",
  "MRAcquisitionType": "2D",
  "MagneticFieldStrength": 3,
  "Manufacturer": "Siemens",
  "ManufacturersModelName": "Prisma_fit",
  "Modality": "MR",
  "MultibandAccelerationFactor": 4,
  "PartialFourier": 1,
  "PatientPosition": "HFS",
  "PercentPhaseFOV": 100,
  "PhaseEncodingDirection": "j",
  "PhaseEncodingSteps": 104,
  "PhaseResolution": 1,
  "PixelBandwidth": 2290,
  "ProcedureStepDescription": "games_mario",
  "ProtocolName": "func_task-mario_run-02",
  "PulseSequenceDetails": "%CustomerSeq%_cmrr_mbep2d_bold",
  "ReceiveCoilActiveElements": "HC1-7;NC1,2",
  "ReceiveCoilName": "HeadNeck_64",
  "ReconMatrixPE": 104,
  "RepetitionTime": 1.49,
  "SAR": 0.0557818,
  "ScanOptions": "FS",
  "ScanningSequence": "EP",
  "SequenceName": "epfid2d1_104",
  "SequenceVariant": "SK_SS",
  "SeriesDescription": "func_task-mario_run-02",
  "SeriesNumber": 14,
  "ShimSetting": [642, -7206, -8738, 704, 65, 25, 37, -27],
  "SliceThickness": 2,
  "SliceTiming": [0, 0.785, 0.0975, 0.8825, 0.195, 0.98, 0.295, 1.0775, 0.3925, 1.175, 0.49, 1.275, 0.5875, 1.3725, 0.685, 0, 0.785, 0.0975, 0.8825, 0.195, 0.98, 0.295, 1.0775, 0.3925, 1.175, 0.49, 1.275, 0.5875, 1.3725, 0.685, 0, 0.785, 0.0975, 0.8825, 0.195, 0.98, 0.295, 1.0775, 0.3925, 1.175, 0.49, 1.275, 0.5875, 1.3725, 0.685, 0, 0.785, 0.0975, 0.8825, 0.195, 0.98, 0.295, 1.0775, 0.3925, 1.175, 0.49, 1.275, 0.5875, 1.3725, 0.685],
  "SoftwareVersions": "syngo_MR_E11",
  "SpacingBetweenSlices": 2,
  "StationName": "MRC35049",
  "TaskName": "mario",
  "TotalReadoutTime": 0.0576811,
  "TxRefAmp": 258.619,
  "WipMemBlock": "12b4d454-4b1d-423a-8a89-ae2cdf0c0fed||Sequence: R016 ve11c/master r/e634e98; Dec 19 2017 11:00:25 by eja",
  "dcmmeta_affine": [
    [-1.9993207454681396, 0.007327910512685776, 0.05160311236977577, 107.30253601074219],
    [-0.007142940070480108, 1.9229285717010498, -0.5498132705688477, -73.03016662597656],
    [0.05162904039025307, 0.5498108863830566, 1.9222493171691895, -54.32143783569336],
    [0.0, 0.0, 0.0, 1.0]
],
  "dcmmeta_reorient_transform": [
    [0.0, -1.0, 0.0, 103.0],
    [1.0, 0.0, 0.0, 0.0],
    [0.0, 0.0, 1.0, 0.0],
    [0.0, 0.0, 0.0, 1.0]
],
  "dcmmeta_shape": [104, 104, 60, 444],
  "dcmmeta_slice_dim": 2,
  "dcmmeta_version": 0.6,
  "global": {
    "const": {
      "AcquisitionMatrix": [104, 0, 0, 104],
      "AngioFlag": "N",
      "BitsAllocated": 16,
      "BitsStored": 16,
      "BodyPartExamined": "BRAIN",
      "Columns": 832,
      "EchoNumbers": 1,
      "EchoTime": 37.0,
      "EchoTrainLength": 104,
      "FlipAngle": 52.0,
      "HighBit": 15,
      "ImageOrientationPatient": [0.99966036990289, 0.00357146999775, 0.02581452009366, 0.0036639552466, 0.96146428977517, -0.2749054290462],
      "ImagePositionPatient": [-838.47741593985, -827.57751298007, 183.64726364416],
      "ImageType": [
        "ORIGINAL",
        "PRIMARY",
        "P",
        "MB",
        "ND",
        "MOSAIC"
],
      "ImagedNucleus": "1H",
      "ImagingFrequency": 123.2589,
      "InPlanePhaseEncodingDirection": "COL",
      "LargestImagePixelValue": 4095,
      "MRAcquisitionType": "2D",
      "MagneticFieldStrength": 3.0,
      "Manufacturer": "SIEMENS",
      "ManufacturerModelName": "Prisma_fit",
      "Modality": "MR",
      "NumberOfAverages": 1.0,
      "NumberOfPhaseEncodingSteps": 104,
      "PercentPhaseFieldOfView": 100.0,
      "PercentSampling": 100.0,
      "PerformedProcedureStepStartTime": "173513.079000",
      "PhotometricInterpretation": "MONOCHROME2",
      "PixelBandwidth": 2290.0,
      "PixelRepresentation": 0,
      "PixelSpacing": [2.0, 2.0],
      "ProtocolName": "func_task-mario_run-02",
      "RepetitionTime": 1490.0,
      "RescaleIntercept": -4096.0,
      "RescaleSlope": 2.0,
      "RescaleType": "US",
      "Rows": 832,
      "SAR": 0.05578175033909,
      "SamplesPerPixel": 1,
      "ScanOptions": "FS",
      "ScanningSequence": "EP",
      "SequenceName": "epfid2d1_104",
      "SequenceVariant": [
        "SK",
        "SS"
],
      "SeriesDescription": "func_task-mario_run-02",
      "SeriesNumber": 14,
      "SeriesTime": "181941.109000",
      "SliceLocation": -29.364622571635,
      "SliceThickness": 2.0,
      "SmallestImagePixelValue": 0,
      "SoftwareVersions": "syngo MR E11",
      "SpacingBetweenSlices": 2.0000000089362,
      "SpecificCharacterSet": "ISO_IR 100",
      "StudyID": "1",
      "StudyTime": "173513.026000",
      "TransmitCoilName": "Body",
      "VariableFlipAngleFlag": "N",
      "WindowCenterWidthExplanation": "Algo1",
      "dBdt": 0.0},
    "slices": {}
  },
  "time": {
    "samples": {
      "AcquisitionNumber": [1, 2, 3, 4, 5, 6, 7, 8, 9, 10, 11, 12, 13, 14, 15, 16, 17, 18, 19, 20, 21, 22, 23, 24, 25, 26, 27, 28, 29, 30, 31, 32, 33, 34, 35, 36, 37, 38, 39, 40, 41, 42, 43, 44, 45, 46, 47, 48, 49, 50, 51, 52, 53, 54, 55, 56, 57, 58, 59, 60, 61, 62, 63, 64, 65, 66, 67, 68, 69, 70, 71, 72, 73, 74, 75, 76, 77, 78, 79, 80, 81, 82, 83, 84, 85, 86, 87, 88, 89, 90, 91, 92, 93, 94, 95, 96, 97, 98, 99, 100, 101, 102, 103, 104, 105, 106, 107, 108, 109, 110, 111, 112, 113, 114, 115, 116, 117, 118, 119, 120, 121, 122, 123, 124, 125, 126, 127, 128, 129, 130, 131, 132, 133, 134, 135, 136, 137, 138, 139, 140, 141, 142, 143, 144, 145, 146, 147, 148, 149, 150, 151, 152, 153, 154, 155, 156, 157, 158, 159, 160, 161, 162, 163, 164, 165, 166, 167, 168, 169, 170, 171, 172, 173, 174, 175, 176, 177, 178, 179, 180, 181, 182, 183, 184, 185, 186, 187, 188, 189, 190, 191, 192, 193, 194, 195, 196, 197, 198, 199, 200, 201, 202, 203, 204, 205, 206, 207, 208, 209, 210, 211, 212, 213, 214, 215, 216, 217, 218, 219, 220, 221, 222, 223, 224, 225, 226, 227, 228, 229, 230, 231, 232, 233, 234, 235, 236, 237, 238, 239, 240, 241, 242, 243, 244, 245, 246, 247, 248, 249, 250, 251, 252, 253, 254, 255, 256, 257, 258, 259, 260, 261, 262, 263, 264, 265, 266, 267, 268, 269, 270, 271, 272, 273, 274, 275, 276, 277, 278, 279, 280, 281, 282, 283, 284, 285, 286, 287, 288, 289, 290, 291, 292, 293, 294, 295, 296, 297, 298, 299, 300, 301, 302, 303, 304, 305, 306, 307, 308, 309, 310, 311, 312, 313, 314, 315, 316, 317, 318, 319, 320, 321, 322, 323, 324, 325, 326, 327, 328, 329, 330, 331, 332, 333, 334, 335, 336, 337, 338, 339, 340, 341, 342, 343, 344, 345, 346, 347, 348, 349, 350, 351, 352, 353, 354, 355, 356, 357, 358, 359, 360, 361, 362, 363, 364, 365, 366, 367, 368, 369, 370, 371, 372, 373, 374, 375, 376, 377, 378, 379, 380, 381, 382, 383, 384, 385, 386, 387, 388, 389, 390, 391, 392, 393, 394, 395, 396, 397, 398, 399, 400, 401, 402, 403, 404, 405, 406, 407, 408, 409, 410, 411, 412, 413, 414, 415, 416, 417, 418, 419, 420, 421, 422, 423, 424, 425, 426, 427, 428, 429, 430, 431, 432, 433, 434, 435, 436, 437, 438, 439, 440, 441, 442, 443, 444],
      "AcquisitionTime": ["181808.300000", "181809.790000", "181811.280000", "181812.770000", "181814.260000", "181815.750000", "181817.240000", "181818.730000", "181820.220000", "181821.710000", "181823.200000", "181824.690000", "181826.180000", "181827.670000", "181829.160000", "181830.650000", "181832.140000", "181833.630000", "181835.120000", "181836.610000", "181838.100000", "181839.590000", "181841.080000", "181842.570000", "181844.060000", "181845.550000", "181847.040000", "181848.530000", "181850.020000", "181851.510000", "181853.000000", "181854.490000", "181855.980000", "181857.470000", "181858.960000", "181900.450000", "181901.940000", "181903.430000", "181904.920000", "181906.410000", "181907.900000", "181909.390000", "181910.880000", "181912.370000", "181913.860000", "181915.350000", "181916.840000", "181918.330000", "181919.820000", "181921.310000", "181922.800000", "181924.290000", "181925.780000", "181927.270000", "181928.760000", "181930.250000", "181931.740000", "181933.230000", "181934.720000", "181936.210000", "181937.700000", "181939.190000", "181940.680000", "181942.170000", "181943.660000", "181945.150000", "181946.640000", "181948.130000", "181949.620000", "181951.110000", "181952.600000", "181954.090000", "181955.580000", "181957.070000", "181958.560000", "182000.050000", "182001.540000", "182003.030000", "182004.520000", "182006.010000", "182007.500000", "182008.990000", "182010.480000", "182011.970000", "182013.460000", "182014.950000", "182016.440000", "182017.930000", "182019.420000", "182020.910000", "182022.400000", "182023.890000", "182025.380000", "182026.870000", "182028.360000", "182029.850000", "182031.340000", "182032.830000", "182034.320000", "182035.810000", "182037.300000", "182038.790000", "182040.280000", "182041.770000", "182043.260000", "182044.750000", "182046.240000", "182047.730000", "182049.220000", "182050.710000", "182052.200000", "182053.690000", "182055.180000", "182056.670000", "182058.160000", "182059.650000", "182101.140000", "182102.630000", "182104.120000", "182105.610000", "182107.100000", "182108.590000", "182110.080000", "182111.570000", "182113.060000", "182114.550000", "182116.040000", "182117.530000", "182119.020000", "182120.510000", "182122.000000", "182123.490000", "182124.980000", "182126.470000", "182127.960000", "182129.450000", "182130.940000", "182132.430000", "182133.920000", "182135.410000", "182136.900000", "182138.390000", "182139.880000", "182141.370000", "182142.860000", "182144.350000", "182145.840000", "182147.330000", "182148.820000", "182150.310000", "182151.800000", "182153.290000", "182154.780000", "182156.270000", "182157.760000", "182159.250000", "182200.740000", "182202.230000", "182203.720000", "182205.210000", "182206.700000", "182208.190000", "182209.680000", "182211.170000", "182212.660000", "182214.150000", "182215.640000", "182217.130000", "182218.620000", "182220.110000", "182221.600000", "182223.090000", "182224.580000", "182226.070000", "182227.560000", "182229.050000", "182230.540000", "182232.030000", "182233.520000", "182235.010000", "182236.500000", "182237.990000", "182239.480000", "182240.970000", "182242.460000", "182243.950000", "182245.440000", "182246.930000", "182248.420000", "182249.910000", "182251.400000", "182252.890000", "182254.380000", "182255.870000", "182257.360000", "182258.850000", "182300.340000", "182301.830000", "182303.320000", "182304.810000", "182306.300000", "182307.790000", "182309.280000", "182310.770000", "182312.260000", "182313.750000", "182315.240000", "182316.730000", "182318.220000", "182319.710000", "182321.200000", "182322.690000", "182324.180000", "182325.670000", "182327.160000", "182328.650000", "182330.140000", "182331.630000", "182333.120000", "182334.610000", "182336.100000", "182337.590000", "182339.080000", "182340.570000", "182342.060000", "182343.550000", "182345.040000", "182346.530000", "182348.020000", "182349.510000", "182351.000000", "182352.490000", "182353.980000", "182355.470000", "182356.960000", "182358.450000", "182359.940000", "182401.430000", "182402.920000", "182404.410000", "182405.900000", "182407.390000", "182408.880000", "182410.370000", "182411.860000", "182413.350000", "182414.840000", "182416.330000", "182417.820000", "182419.310000", "182420.800000", "182422.290000", "182423.780000", "182425.270000", "182426.760000", "182428.250000", "182429.740000", "182431.230000", "182432.720000", "182434.210000", "182435.700000", "182437.190000", "182438.680000", "182440.170000", "182441.660000", "182443.150000", "182444.640000", "182446.130000", "182447.620000", "182449.110000", "182450.600000", "182452.090000", "182453.580000", "182455.070000", "182456.560000", "182458.050000", "182459.540000", "182501.030000", "182502.520000", "182504.010000", "182505.500000", "182506.990000", "182508.480000", "182509.970000", "182511.460000", "182512.950000", "182514.440000", "182515.930000", "182517.420000", "182518.910000", "182520.400000", "182521.890000", "182523.380000", "182524.870000", "182526.360000", "182527.850000", "182529.340000", "182530.830000", "182532.320000", "182533.810000", "182535.300000", "182536.790000", "182538.280000", "182539.770000", "182541.260000", "182542.750000", "182544.240000", "182545.730000", "182547.220000", "182548.710000", "182550.200000", "182551.690000", "182553.180000", "182554.670000", "182556.160000", "182557.650000", "182559.140000", "182600.630000", "182602.120000", "182603.610000", "182605.100000", "182606.590000", "182608.080000", "182609.570000", "182611.060000", "182612.550000", "182614.040000", "182615.530000", "182617.020000", "182618.510000", "182620.000000", "182621.490000", "182622.980000", "182624.470000", "182625.960000", "182627.450000", "182628.940000", "182630.430000", "182631.920000", "182633.410000", "182634.900000", "182636.390000", "182637.880000", "182639.370000", "182640.860000", "182642.350000", "182643.840000", "182645.330000", "182646.820000", "182648.310000", "182649.800000", "182651.290000", "182652.780000", "182654.270000", "182655.760000", "182657.250000", "182658.740000", "182700.230000", "182701.720000", "182703.210000", "182704.700000", "182706.190000", "182707.680000", "182709.170000", "182710.660000", "182712.150000", "182713.640000", "182715.130000", "182716.620000", "182718.110000", "182719.600000", "182721.090000", "182722.580000", "182724.070000", "182725.560000", "182727.050000", "182728.540000", "182730.030000", "182731.520000", "182733.010000", "182734.500000", "182735.990000", "182737.480000", "182738.970000", "182740.460000", "182741.950000", "182743.440000", "182744.930000", "182746.420000", "182747.910000", "182749.400000", "182750.890000", "182752.380000", "182753.870000", "182755.360000", "182756.850000", "182758.340000", "182759.830000", "182801.320000", "182802.810000", "182804.300000", "182805.790000", "182807.280000", "182808.770000", "182810.260000", "182811.750000", "182813.240000", "182814.730000", "182816.220000", "182817.710000", "182819.200000", "182820.690000", "182822.180000", "182823.670000", "182825.160000", "182826.650000", "182828.140000", "182829.630000", "182831.120000", "182832.610000", "182834.100000", "182835.590000", "182837.080000", "182838.570000", "182840.060000", "182841.550000", "182843.040000", "182844.530000", "182846.020000", "182847.510000", "182849.000000", "182850.490000", "182851.980000", "182853.470000", "182854.960000", "182856.450000", "182857.940000", "182859.430000", "182900.920000", "182902.410000", "182903.900000", "182905.390000", "182906.880000", "182908.370000"],
      "ContentTime": ["181941.111000", "181941.114000", "181941.116000", "181941.119000", "181941.121000", "181941.124000", "181941.126000", "181941.129000", "181941.131000", "181941.134000", "181941.136000", "181941.139000", "181941.141000", "181941.144000", "181941.146000", "181941.149000", "181941.151000", "181941.154000", "181941.156000", "181941.159000", "181941.161000", "181941.163000", "181941.166000", "181941.168000", "181941.171000", "181941.173000", "181941.176000", "181941.178000", "181941.181000", "181941.183000", "181941.186000", "181941.188000", "181941.196000", "181941.198000", "181941.201000", "181941.203000", "181941.206000", "182001.005000", "182001.008000", "182001.010000", "182001.013000", "182001.015000", "182001.018000", "182001.020000", "182001.023000", "182001.025000", "182001.027000", "182001.035000", "182001.037000", "182001.040000", "182001.042000", "182001.045000", "182001.047000", "182001.050000", "182001.052000", "182001.055000", "182001.057000", "182021.004000", "182021.007000", "182021.009000", "182021.012000", "182021.014000", "182021.017000", "182021.019000", "182021.022000", "182021.024000", "182021.027000", "182021.029000", "182021.032000", "182021.034000", "182021.037000", "182021.039000", "182021.041000", "182021.044000", "182021.046000", "182021.049000", "182021.051000", "182041.021000", "182041.023000", "182041.026000", "182041.028000", "182041.031000", "182041.033000", "182041.036000", "182041.038000", "182041.041000", "182041.043000", "182041.046000", "182041.048000", "182041.051000", "182041.053000", "182041.056000", "182041.058000", "182041.060000", "182041.063000", "182041.065000", "182041.068000", "182121.057000", "182121.060000", "182121.063000", "182121.065000", "182121.068000", "182121.070000", "182121.073000", "182121.075000", "182121.078000", "182121.080000", "182121.082000", "182121.085000", "182121.087000", "182121.090000", "182121.092000", "182121.095000", "182121.097000", "182121.100000", "182121.102000", "182121.105000", "182121.107000", "182121.110000", "182121.112000", "182121.115000", "182121.117000", "182121.120000", "182121.122000", "182121.125000", "182121.127000", "182121.130000", "182121.132000", "182201.048000", "182201.067000", "182201.069000", "182201.072000", "182201.074000", "182201.077000", "182201.079000", "182201.082000", "182201.084000", "182201.087000", "182201.089000", "182201.092000", "182201.094000", "182201.097000", "182201.099000", "182201.101000", "182201.104000", "182201.106000", "182201.109000", "182201.111000", "182201.114000", "182201.116000", "182201.119000", "182201.121000", "182201.124000", "182201.126000", "182201.129000", "182241.038000", "182241.041000", "182241.043000", "182241.046000", "182241.048000", "182241.051000", "182241.053000", "182241.056000", "182241.058000", "182241.061000", "182241.063000", "182241.066000", "182241.068000", "182241.071000", "182241.073000", "182241.075000", "182241.078000", "182241.080000", "182241.083000", "182241.085000", "182241.088000", "182241.090000", "182241.093000", "182241.095000", "182241.098000", "182241.100000", "182241.103000", "182321.051000", "182321.054000", "182321.056000", "182321.059000", "182321.061000", "182321.064000", "182321.066000", "182321.069000", "182321.071000", "182321.074000", "182321.076000", "182321.079000", "182321.081000", "182321.084000", "182321.086000", "182321.089000", "182321.091000", "182321.094000", "182321.096000", "182321.099000", "182321.101000", "182321.104000", "182321.106000", "182321.109000", "182321.111000", "182321.114000", "182321.116000", "182401.043000", "182401.045000", "182401.048000", "182401.050000", "182401.053000", "182401.055000", "182401.058000", "182401.060000", "182401.063000", "182401.065000", "182401.068000", "182401.070000", "182401.073000", "182401.075000", "182401.078000", "182401.080000", "182401.083000", "182401.085000", "182401.088000", "182401.090000", "182401.093000", "182401.095000", "182401.097000", "182401.100000", "182401.102000", "182401.105000", "182401.107000", "182441.033000", "182441.036000", "182441.039000", "182441.041000", "182441.044000", "182441.048000", "182441.051000", "182441.054000", "182441.056000", "182441.059000", "182441.061000", "182441.064000", "182441.066000", "182441.069000", "182441.071000", "182441.074000", "182441.076000", "182441.079000", "182441.081000", "182441.084000", "182441.086000", "182441.089000", "182441.091000", "182441.093000", "182441.096000", "182441.098000", "182500.979000", "182500.982000", "182500.985000", "182500.987000", "182500.990000", "182500.992000", "182500.995000", "182500.997000", "182501.000000", "182501.002000", "182501.005000", "182501.007000", "182501.010000", "182501.012000", "182541.044000", "182541.047000", "182541.050000", "182541.052000", "182541.055000", "182541.057000", "182541.060000", "182541.062000", "182541.065000", "182541.067000", "182541.070000", "182541.072000", "182541.074000", "182541.077000", "182541.080000", "182541.082000", "182541.084000", "182541.087000", "182541.089000", "182541.092000", "182541.094000", "182541.097000", "182541.099000", "182541.102000", "182541.104000", "182541.107000", "182541.109000", "182621.424000", "182621.427000", "182621.430000", "182621.432000", "182621.436000", "182621.439000", "182621.441000", "182621.444000", "182621.446000", "182621.449000", "182621.451000", "182621.454000", "182621.456000", "182621.459000", "182621.461000", "182621.464000", "182621.466000", "182621.469000", "182621.471000", "182621.474000", "182621.476000", "182621.479000", "182621.481000", "182621.483000", "182621.486000", "182621.489000", "182621.491000", "182701.043000", "182701.045000", "182701.048000", "182701.051000", "182701.053000", "182701.056000", "182701.058000", "182701.061000", "182701.063000", "182701.066000", "182701.068000", "182701.071000", "182701.074000", "182701.076000", "182701.078000", "182701.081000", "182701.084000", "182701.086000", "182701.089000", "182701.092000", "182701.095000", "182701.097000", "182701.100000", "182701.102000", "182701.105000", "182701.107000", "182741.045000", "182741.048000", "182741.051000", "182741.053000", "182741.056000", "182741.058000", "182741.062000", "182741.065000", "182741.067000", "182741.070000", "182741.072000", "182741.075000", "182741.077000", "182741.080000", "182741.082000", "182741.085000", "182741.087000", "182741.090000", "182741.092000", "182741.095000", "182741.097000", "182741.100000", "182741.102000", "182741.105000", "182741.107000", "182741.110000", "182741.112000", "182821.037000", "182821.040000", "182821.043000", "182821.045000", "182821.048000", "182821.050000", "182821.053000", "182821.055000", "182821.058000", "182821.060000", "182821.063000", "182821.065000", "182821.068000", "182821.070000", "182821.073000", "182821.075000", "182821.078000", "182821.080000", "182821.083000", "182821.085000", "182821.088000", "182821.090000", "182821.093000", "182821.095000", "182821.098000", "182821.101000", "182821.103000", "182901.040000", "182901.042000", "182901.045000", "182901.048000", "182901.050000", "182901.053000", "182901.055000", "182901.058000", "182901.060000", "182901.063000", "182901.065000", "182901.068000", "182901.070000", "182901.072000", "182901.075000", "182901.077000", "182901.080000", "182901.082000", "182901.085000", "182901.087000", "182901.090000", "182901.092000", "182901.095000", "182901.098000", "182901.100000", "182901.102000", "182901.105000", "182911.206000", "182911.208000", "182911.211000", "182911.214000", "182911.216000", "182911.219000", "182911.221000"],
