{
  "AcquisitionMatrixPE": 104,
  "AcquisitionNumber": 1,
  "AcquisitionTime": "18:05:14.380000",
  "BandwidthPerPixelPhaseEncode": 17.17,
  "BaseResolution": 104,
  "BodyPartExamined": "BRAIN",
  "CoilString": "HC1-7;NC1_2",
  "ConsistencyInfo": "N4_VE11C_LATEST_20160120",
  "ConversionSoftware": "dcm2niix",
  "ConversionSoftwareVersion": "v1.0.20190902",
  "DerivedVendorReportedEchoSpacing": 0.000560011,
  "DeviceSerialNumber": "167006",
  "DwellTime": 2.1e-06,
  "EchoTime": 0.037,
  "EchoTrainLength": 104,
  "EffectiveEchoSpacing": 0.000560011,
  "FlipAngle": 52,
  "HeudiconvVersion": "0.10.0",
  "ImageComments": "Unaliased_MB4_PE3_LB",
  "ImageOrientationPatientDICOM": [0.99966, 0.00357147, 0.0258145, 0.00366396, 0.961464, -0.274905],
  "ImageType": [
    "ORIGINAL",
    "PRIMARY",
    "P",
    "MB",
    "ND",
    "MOSAIC"
],
  "ImagingFrequency": 123.259,
  "InPlanePhaseEncodingDirectionDICOM": "COL",
  "InstitutionAddress": "Chemin_Queen-Mary_4565_Montreal_District_CA_H3W_1W5",
  "InstitutionName": "IUGM",
  "InstitutionalDepartmentName": "Department",
  "MRAcquisitionType": "2D",
  "MagneticFieldStrength": 3,
  "Manufacturer": "Siemens",
  "ManufacturersModelName": "Prisma_fit",
  "Modality": "MR",
  "MultibandAccelerationFactor": 4,
  "PartialFourier": 1,
  "PatientPosition": "HFS",
  "PercentPhaseFOV": 100,
  "PhaseEncodingDirection": "j",
  "PhaseEncodingSteps": 104,
  "PhaseResolution": 1,
  "PixelBandwidth": 2290,
  "ProcedureStepDescription": "games_mario",
  "ProtocolName": "func_task-mario_run-01",
  "PulseSequenceDetails": "%CustomerSeq%_cmrr_mbep2d_bold",
  "ReceiveCoilActiveElements": "HC1-7;NC1,2",
  "ReceiveCoilName": "HeadNeck_64",
  "ReconMatrixPE": 104,
  "RepetitionTime": 1.49,
  "SAR": 0.0557818,
  "ScanOptions": "FS",
  "ScanningSequence": "EP",
  "SequenceName": "epfid2d1_104",
  "SequenceVariant": "SK_SS",
  "SeriesDescription": "func_task-mario_run-01",
  "SeriesNumber": 11,
  "ShimSetting": [642, -7206, -8738, 704, 65, 25, 37, -27],
  "SliceThickness": 2,
  "SliceTiming": [0, 0.785, 0.1, 0.8825, 0.1975, 0.98, 0.295, 1.08, 0.3925, 1.1775, 0.49, 1.275, 0.59, 1.3725, 0.6875, 0, 0.785, 0.1, 0.8825, 0.1975, 0.98, 0.295, 1.08, 0.3925, 1.1775, 0.49, 1.275, 0.59, 1.3725, 0.6875, 0, 0.785, 0.1, 0.8825, 0.1975, 0.98, 0.295, 1.08, 0.3925, 1.1775, 0.49, 1.275, 0.59, 1.3725, 0.6875, 0, 0.785, 0.1, 0.8825, 0.1975, 0.98, 0.295, 1.08, 0.3925, 1.1775, 0.49, 1.275, 0.59, 1.3725, 0.6875],
  "SoftwareVersions": "syngo_MR_E11",
  "SpacingBetweenSlices": 2,
  "StationName": "MRC35049",
  "TaskName": "mario",
  "TotalReadoutTime": 0.0576811,
  "TxRefAmp": 258.619,
  "WipMemBlock": "50412388-1e4d-4439-9c19-045e1d55b4e5||Sequence: R016 ve11c/master r/e634e98; Dec 19 2017 11:00:25 by eja",
  "dcmmeta_affine": [
    [-1.9993207454681396, 0.007327910512685776, 0.05160311236977577, 107.30253601074219],
    [-0.007142940070480108, 1.9229285717010498, -0.5498132705688477, -73.03016662597656],
    [0.05162904039025307, 0.5498108863830566, 1.9222493171691895, -54.32143783569336],
    [0.0, 0.0, 0.0, 1.0]
],
  "dcmmeta_reorient_transform": [
    [0.0, -1.0, 0.0, 103.0],
    [1.0, 0.0, 0.0, 0.0],
    [0.0, 0.0, 1.0, 0.0],
    [0.0, 0.0, 0.0, 1.0]
],
  "dcmmeta_shape": [104, 104, 60, 455],
  "dcmmeta_slice_dim": 2,
  "dcmmeta_version": 0.6,
  "global": {
    "const": {
      "AcquisitionMatrix": [104, 0, 0, 104],
      "AngioFlag": "N",
      "BitsAllocated": 16,
      "BitsStored": 16,
      "BodyPartExamined": "BRAIN",
      "Columns": 832,
      "EchoNumbers": 1,
      "EchoTime": 37.0,
      "EchoTrainLength": 104,
      "FlipAngle": 52.0,
      "HighBit": 15,
      "ImageOrientationPatient": [0.99966036990289, 0.00357146999775, 0.02581452009366, 0.0036639552466, 0.96146428977517, -0.2749054290462],
      "ImagePositionPatient": [-838.47741593985, -827.57751298007, 183.64726364416],
      "ImageType": [
        "ORIGINAL",
        "PRIMARY",
        "P",
        "MB",
        "ND",
        "MOSAIC"
],
      "ImagedNucleus": "1H",
      "ImagingFrequency": 123.258889,
      "InPlanePhaseEncodingDirection": "COL",
      "LargestImagePixelValue": 4095,
      "MRAcquisitionType": "2D",
      "MagneticFieldStrength": 3.0,
      "Manufacturer": "SIEMENS",
      "ManufacturerModelName": "Prisma_fit",
      "Modality": "MR",
      "NumberOfAverages": 1.0,
      "NumberOfPhaseEncodingSteps": 104,
      "PercentPhaseFieldOfView": 100.0,
      "PercentSampling": 100.0,
      "PerformedProcedureStepStartTime": "173513.079000",
      "PhotometricInterpretation": "MONOCHROME2",
      "PixelBandwidth": 2290.0,
      "PixelRepresentation": 0,
      "PixelSpacing": [2.0, 2.0],
      "ProtocolName": "func_task-mario_run-01",
      "RepetitionTime": 1490.0,
      "RescaleIntercept": -4096.0,
      "RescaleSlope": 2.0,
      "RescaleType": "US",
      "Rows": 832,
      "SAR": 0.05578175033909,
      "SamplesPerPixel": 1,
      "ScanOptions": "FS",
      "ScanningSequence": "EP",
      "SequenceName": "epfid2d1_104",
      "SequenceVariant": [
        "SK",
        "SS"
],
      "SeriesDescription": "func_task-mario_run-01",
      "SeriesNumber": 11,
      "SeriesTime": "180609.414000",
      "SliceLocation": -29.364622571635,
      "SliceThickness": 2.0,
      "SmallestImagePixelValue": 0,
      "SoftwareVersions": "syngo MR E11",
      "SpacingBetweenSlices": 2.0000000089362,
      "SpecificCharacterSet": "ISO_IR 100",
      "StudyID": "1",
      "StudyTime": "173513.026000",
      "TransmitCoilName": "Body",
      "VariableFlipAngleFlag": "N",
      "WindowCenterWidthExplanation": "Algo1",
      "dBdt": 0.0},
    "slices": {}
  },
  "time": {
    "samples": {
      "AcquisitionNumber": [1, 2, 3, 4, 5, 6, 7, 8, 9, 10, 11, 12, 13, 14, 15, 16, 17, 18, 19, 20, 21, 22, 23, 24, 25, 26, 27, 28, 29, 30, 31, 32, 33, 34, 35, 36, 37, 38, 39, 40, 41, 42, 43, 44, 45, 46, 47, 48, 49, 50, 51, 52, 53, 54, 55, 56, 57, 58, 59, 60, 61, 62, 63, 64, 65, 66, 67, 68, 69, 70, 71, 72, 73, 74, 75, 76, 77, 78, 79, 80, 81, 82, 83, 84, 85, 86, 87, 88, 89, 90, 91, 92, 93, 94, 95, 96, 97, 98, 99, 100, 101, 102, 103, 104, 105, 106, 107, 108, 109, 110, 111, 112, 113, 114, 115, 116, 117, 118, 119, 120, 121, 122, 123, 124, 125, 126, 127, 128, 129, 130, 131, 132, 133, 134, 135, 136, 137, 138, 139, 140, 141, 142, 143, 144, 145, 146, 147, 148, 149, 150, 151, 152, 153, 154, 155, 156, 157, 158, 159, 160, 161, 162, 163, 164, 165, 166, 167, 168, 169, 170, 171, 172, 173, 174, 175, 176, 177, 178, 179, 180, 181, 182, 183, 184, 185, 186, 187, 188, 189, 190, 191, 192, 193, 194, 195, 196, 197, 198, 199, 200, 201, 202, 203, 204, 205, 206, 207, 208, 209, 210, 211, 212, 213, 214, 215, 216, 217, 218, 219, 220, 221, 222, 223, 224, 225, 226, 227, 228, 229, 230, 231, 232, 233, 234, 235, 236, 237, 238, 239, 240, 241, 242, 243, 244, 245, 246, 247, 248, 249, 250, 251, 252, 253, 254, 255, 256, 257, 258, 259, 260, 261, 262, 263, 264, 265, 266, 267, 268, 269, 270, 271, 272, 273, 274, 275, 276, 277, 278, 279, 280, 281, 282, 283, 284, 285, 286, 287, 288, 289, 290, 291, 292, 293, 294, 295, 296, 297, 298, 299, 300, 301, 302, 303, 304, 305, 306, 307, 308, 309, 310, 311, 312, 313, 314, 315, 316, 317, 318, 319, 320, 321, 322, 323, 324, 325, 326, 327, 328, 329, 330, 331, 332, 333, 334, 335, 336, 337, 338, 339, 340, 341, 342, 343, 344, 345, 346, 347, 348, 349, 350, 351, 352, 353, 354, 355, 356, 357, 358, 359, 360, 361, 362, 363, 364, 365, 366, 367, 368, 369, 370, 371, 372, 373, 374, 375, 376, 377, 378, 379, 380, 381, 382, 383, 384, 385, 386, 387, 388, 389, 390, 391, 392, 393, 394, 395, 396, 397, 398, 399, 400, 401, 402, 403, 404, 405, 406, 407, 408, 409, 410, 411, 412, 413, 414, 415, 416, 417, 418, 419, 420, 421, 422, 423, 424, 425, 426, 427, 428, 429, 430, 431, 432, 433, 434, 435, 436, 437, 438, 439, 440, 441, 442, 443, 444, 445, 446, 447, 448, 449, 450, 451, 452, 453, 454, 455],
      "AcquisitionTime": ["180514.380000", "180515.870000", "180517.360000", "180518.850000", "180520.340000", "180521.830000", "180523.320000", "180524.810000", "180526.300000", "180527.790000", "180529.280000", "180530.770000", "180532.260000", "180533.750000", "180535.240000", "180536.730000", "180538.220000", "180539.710000", "180541.200000", "180542.690000", "180544.180000", "180545.670000", "180547.160000", "180548.650000", "180550.140000", "180551.630000", "180553.120000", "180554.610000", "180556.100000", "180557.590000", "180559.080000", "180600.570000", "180602.060000", "180603.550000", "180605.040000", "180606.530000", "180608.020000", "180609.510000", "180611.000000", "180612.490000", "180613.980000", "180615.470000", "180616.960000", "180618.450000", "180619.940000", "180621.430000", "180622.920000", "180624.410000", "180625.900000", "180627.390000", "180628.880000", "180630.370000", "180631.860000", "180633.350000", "180634.840000", "180636.330000", "180637.820000", "180639.310000", "180640.800000", "180642.290000", "180643.780000", "180645.270000", "180646.760000", "180648.250000", "180649.740000", "180651.230000", "180652.720000", "180654.210000", "180655.700000", "180657.190000", "180658.680000", "180700.170000", "180701.660000", "180703.150000", "180704.640000", "180706.130000", "180707.620000", "180709.110000", "180710.600000", "180712.090000", "180713.580000", "180715.070000", "180716.560000", "180718.050000", "180719.540000", "180721.030000", "180722.520000", "180724.010000", "180725.500000", "180726.990000", "180728.480000", "180729.970000", "180731.460000", "180732.950000", "180734.440000", "180735.930000", "180737.420000", "180738.910000", "180740.400000", "180741.890000", "180743.380000", "180744.870000", "180746.360000", "180747.850000", "180749.340000", "180750.830000", "180752.320000", "180753.810000", "180755.300000", "180756.790000", "180758.280000", "180759.770000", "180801.260000", "180802.750000", "180804.240000", "180805.730000", "180807.220000", "180808.710000", "180810.200000", "180811.690000", "180813.180000", "180814.670000", "180816.160000", "180817.650000", "180819.140000", "180820.630000", "180822.120000", "180823.610000", "180825.100000", "180826.590000", "180828.080000", "180829.570000", "180831.060000", "180832.550000", "180834.040000", "180835.530000", "180837.020000", "180838.510000", "180840.000000", "180841.490000", "180842.980000", "180844.470000", "180845.960000", "180847.450000", "180848.940000", "180850.430000", "180851.920000", "180853.410000", "180854.900000", "180856.390000", "180857.880000", "180859.370000", "180900.860000", "180902.350000", "180903.840000", "180905.330000", "180906.820000", "180908.310000", "180909.800000", "180911.290000", "180912.780000", "180914.270000", "180915.760000", "180917.250000", "180918.740000", "180920.230000", "180921.720000", "180923.210000", "180924.700000", "180926.190000", "180927.680000", "180929.170000", "180930.660000", "180932.150000", "180933.640000", "180935.130000", "180936.620000", "180938.110000", "180939.600000", "180941.090000", "180942.580000", "180944.070000", "180945.560000", "180947.050000", "180948.540000", "180950.030000", "180951.520000", "180953.010000", "180954.500000", "180955.990000", "180957.480000", "180958.970000", "181000.460000", "181001.950000", "181003.440000", "181004.930000", "181006.420000", "181007.910000", "181009.400000", "181010.890000", "181012.380000", "181013.870000", "181015.360000", "181016.850000", "181018.340000", "181019.830000", "181021.320000", "181022.810000", "181024.300000", "181025.790000", "181027.280000", "181028.770000", "181030.260000", "181031.750000", "181033.240000", "181034.730000", "181036.220000", "181037.710000", "181039.200000", "181040.690000", "181042.180000", "181043.670000", "181045.160000", "181046.650000", "181048.140000", "181049.630000", "181051.120000", "181052.610000", "181054.100000", "181055.590000", "181057.080000", "181058.570000", "181100.060000", "181101.550000", "181103.040000", "181104.530000", "181106.020000", "181107.510000", "181109.000000", "181110.490000", "181111.980000", "181113.470000", "181114.960000", "181116.450000", "181117.940000", "181119.430000", "181120.920000", "181122.410000", "181123.900000", "181125.390000", "181126.880000", "181128.370000", "181129.860000", "181131.350000", "181132.840000", "181134.330000", "181135.820000", "181137.310000", "181138.800000", "181140.290000", "181141.780000", "181143.270000", "181144.760000", "181146.250000", "181147.740000", "181149.230000", "181150.720000", "181152.210000", "181153.700000", "181155.190000", "181156.680000", "181158.170000", "181159.660000", "181201.150000", "181202.640000", "181204.130000", "181205.620000", "181207.110000", "181208.600000", "181210.090000", "181211.580000", "181213.070000", "181214.560000", "181216.050000", "181217.540000", "181219.030000", "181220.520000", "181222.010000", "181223.500000", "181224.990000", "181226.480000", "181227.970000", "181229.460000", "181230.950000", "181232.440000", "181233.930000", "181235.420000", "181236.910000", "181238.400000", "181239.890000", "181241.380000", "181242.870000", "181244.360000", "181245.850000", "181247.340000", "181248.830000", "181250.320000", "181251.810000", "181253.300000", "181254.790000", "181256.280000", "181257.770000", "181259.260000", "181300.750000", "181302.240000", "181303.730000", "181305.220000", "181306.710000", "181308.200000", "181309.690000", "181311.180000", "181312.670000", "181314.160000", "181315.650000", "181317.140000", "181318.630000", "181320.120000", "181321.610000", "181323.100000", "181324.590000", "181326.080000", "181327.570000", "181329.060000", "181330.550000", "181332.040000", "181333.530000", "181335.020000", "181336.510000", "181338.000000", "181339.490000", "181340.980000", "181342.470000", "181343.960000", "181345.450000", "181346.940000", "181348.430000", "181349.920000", "181351.410000", "181352.900000", "181354.390000", "181355.880000", "181357.370000", "181358.860000", "181400.350000", "181401.840000", "181403.330000", "181404.820000", "181406.310000", "181407.800000", "181409.290000", "181410.780000", "181412.270000", "181413.760000", "181415.250000", "181416.740000", "181418.230000", "181419.720000", "181421.210000", "181422.700000", "181424.190000", "181425.680000", "181427.170000", "181428.660000", "181430.150000", "181431.640000", "181433.130000", "181434.620000", "181436.110000", "181437.600000", "181439.090000", "181440.580000", "181442.070000", "181443.560000", "181445.050000", "181446.540000", "181448.030000", "181449.520000", "181451.010000", "181452.500000", "181453.990000", "181455.480000", "181456.970000", "181458.460000", "181459.950000", "181501.440000", "181502.930000", "181504.420000", "181505.910000", "181507.400000", "181508.890000", "181510.380000", "181511.870000", "181513.360000", "181514.850000", "181516.340000", "181517.830000", "181519.320000", "181520.810000", "181522.300000", "181523.790000", "181525.280000", "181526.770000", "181528.260000", "181529.750000", "181531.240000", "181532.730000", "181534.220000", "181535.710000", "181537.200000", "181538.690000", "181540.180000", "181541.670000", "181543.160000", "181544.650000", "181546.140000", "181547.630000", "181549.120000", "181550.610000", "181552.100000", "181553.590000", "181555.080000", "181556.570000", "181558.060000", "181559.550000", "181601.040000", "181602.530000", "181604.020000", "181605.510000", "181607.000000", "181608.490000", "181609.980000", "181611.470000", "181612.960000", "181614.450000", "181615.940000", "181617.430000", "181618.920000", "181620.410000", "181621.900000", "181623.390000", "181624.880000", "181626.370000", "181627.860000", "181629.350000", "181630.840000"],
      "ContentTime": ["180609.416000", "180629.454000", "180629.457000", "180629.459000", "180629.462000", "180629.465000", "180629.467000", "180629.470000", "180629.472000", "180629.475000", "180629.477000", "180629.480000", "180629.482000", "180629.485000", "180629.487000", "180629.490000", "180629.492000", "180629.495000", "180629.497000", "180629.500000", "180629.502000", "180649.453000", "180649.456000", "180649.458000", "180649.461000", "180649.464000", "180649.466000", "180649.469000", "180649.471000", "180649.474000", "180649.476000", "180649.479000", "180649.481000", "180649.484000", "180649.486000", "180649.489000", "180649.491000", "180649.494000", "180649.496000", "180649.499000", "180649.501000", "180709.463000", "180709.466000", "180709.469000", "180709.471000", "180709.474000", "180709.476000", "180709.479000", "180709.481000", "180709.483000", "180709.486000", "180709.488000", "180709.491000", "180709.493000", "180709.496000", "180709.499000", "180709.502000", "180709.505000", "180709.507000", "180709.510000", "180709.512000", "180729.463000", "180729.465000", "180729.468000", "180729.470000", "180729.473000", "180729.475000", "180729.478000", "180729.480000", "180729.483000", "180729.485000", "180729.488000", "180729.490000", "180729.493000", "180729.495000", "180729.498000", "180729.500000", "180729.502000", "180729.505000", "180729.507000", "180729.510000", "180729.512000", "180749.456000", "180749.458000", "180749.461000", "180749.463000", "180749.466000", "180749.468000", "180749.471000", "180749.473000", "180749.476000", "180749.478000", "180749.481000", "180749.483000", "180749.486000", "180749.488000", "180749.491000", "180749.493000", "180749.496000", "180749.498000", "180749.501000", "180749.503000", "180829.492000", "180829.495000", "180829.497000", "180829.500000", "180829.502000", "180829.505000", "180829.507000", "180829.510000", "180829.512000", "180829.515000", "180829.517000", "180829.520000", "180829.523000", "180829.525000", "180829.528000", "180829.530000", "180829.533000", "180829.535000", "180829.543000", "180829.545000", "180829.548000", "180829.550000", "180829.553000", "180829.555000", "180829.558000", "180829.560000", "180829.563000", "180829.565000", "180909.483000", "180909.486000", "180909.488000", "180909.491000", "180909.493000", "180909.496000", "180909.498000", "180909.501000", "180909.503000", "180909.506000", "180909.508000", "180909.511000", "180909.513000", "180909.516000", "180909.518000", "180909.521000", "180909.523000", "180909.526000", "180909.528000", "180909.531000", "180909.533000", "180909.536000", "180909.538000", "180909.541000", "180909.543000", "180909.546000", "180909.548000", "180949.496000", "180949.499000", "180949.501000", "180949.504000", "180949.507000", "180949.509000", "180949.512000", "180949.514000", "180949.517000", "180949.519000", "180949.522000", "180949.524000", "180949.527000", "180949.529000", "180949.532000", "180949.534000", "180949.537000", "180949.539000", "180949.542000", "180949.544000", "180949.547000", "180949.549000", "180949.552000", "180949.554000", "180949.557000", "180949.559000", "180949.562000", "181029.487000", "181029.489000", "181029.492000", "181029.495000", "181029.497000", "181029.500000", "181029.502000", "181029.505000", "181029.507000", "181029.509000", "181029.512000", "181029.514000", "181029.517000", "181029.519000", "181029.522000", "181029.525000", "181029.527000", "181029.530000", "181029.532000", "181029.535000", "181029.537000", "181029.539000", "181029.542000", "181029.545000", "181029.547000", "181029.549000", "181029.552000", "181109.489000", "181109.492000", "181109.495000", "181109.497000", "181109.500000", "181109.502000", "181109.505000", "181109.507000", "181109.510000", "181109.512000", "181109.515000", "181109.519000", "181109.521000", "181109.524000", "181109.527000", "181109.530000", "181109.533000", "181109.535000", "181109.538000", "181109.540000", "181109.543000", "181109.545000", "181109.548000", "181109.550000", "181109.553000", "181109.555000", "181149.480000", "181149.483000", "181149.485000", "181149.488000", "181149.491000", "181149.493000", "181149.496000", "181149.498000", "181149.500000", "181149.503000", "181149.505000", "181149.508000", "181149.510000", "181149.513000", "181149.515000", "181149.518000", "181149.520000", "181149.523000", "181149.525000", "181149.528000", "181149.530000", "181149.533000", "181149.535000", "181149.538000", "181149.540000", "181149.543000", "181149.545000", "181229.499000", "181229.502000", "181229.504000", "181229.507000", "181229.509000", "181229.512000", "181229.514000", "181229.517000", "181229.519000", "181229.522000", "181229.524000", "181229.527000", "181229.529000", "181229.532000", "181229.534000", "181229.537000", "181229.539000", "181229.542000", "181229.544000", "181229.547000", "181229.549000", "181229.552000", "181229.554000", "181229.557000", "181229.559000", "181229.562000", "181229.564000", "181309.490000", "181309.493000", "181309.495000", "181309.498000", "181309.500000", "181309.503000", "181309.505000", "181309.508000", "181309.510000", "181309.513000", "181309.515000", "181309.518000", "181309.520000", "181309.523000", "181309.525000", "181309.528000", "181309.530000", "181309.533000", "181309.535000", "181309.538000", "181309.540000", "181309.543000", "181309.545000", "181309.548000", "181309.550000", "181309.553000", "181309.555000", "181349.482000", "181349.485000", "181349.487000", "181349.490000", "181349.492000", "181349.495000", "181349.497000", "181349.500000", "181349.502000", "181349.504000", "181349.507000", "181349.509000", "181349.512000", "181349.514000", "181349.517000", "181349.519000", "181349.522000", "181349.524000", "181349.527000", "181349.529000", "181349.532000", "181349.534000", "181349.537000", "181349.539000", "181349.542000", "181349.544000", "181349.547000", "181429.488000", "181429.491000", "181429.493000", "181429.496000", "181429.498000", "181429.501000", "181429.503000", "181429.506000", "181429.508000", "181429.511000", "181429.513000", "181429.516000", "181429.518000", "181429.521000", "181429.523000", "181429.526000", "181429.528000", "181429.531000", "181429.533000", "181429.536000", "181429.538000", "181429.541000", "181429.543000", "181429.546000", "181429.549000", "181429.551000", "181429.554000", "181449.424000", "181449.427000", "181449.429000", "181449.432000", "181449.434000", "181449.437000", "181449.439000", "181449.442000", "181449.444000", "181449.447000", "181449.449000", "181449.452000", "181449.454000", "181529.478000", "181529.481000", "181529.483000", "181529.486000", "181529.488000", "181529.491000", "181529.493000", "181529.496000", "181529.498000", "181529.501000", "181529.503000", "181529.506000", "181529.508000", "181529.511000", "181529.513000", "181529.516000", "181529.518000", "181529.521000", "181529.523000", "181529.526000", "181529.528000", "181529.531000", "181529.533000", "181529.536000", "181529.538000", "181529.541000", "181529.543000", "181609.482000", "181609.484000", "181609.487000", "181609.489000", "181609.492000", "181609.494000", "181609.497000", "181609.499000", "181609.502000", "181609.504000", "181609.507000", "181609.509000", "181609.512000", "181609.514000", "181609.517000", "181609.519000", "181609.522000", "181609.524000", "181609.527000", "181609.529000", "181609.532000", "181609.534000", "181609.537000", "181609.539000", "181609.542000", "181609.544000", "181609.547000", "181633.085000", "181633.088000", "181633.090000", "181633.093000", "181633.095000", "181633.098000", "181633.100000", "181633.103000", "181633.105000", "181633.108000", "181633.110000", "181633.113000", "181633.115000", "181633.118000", "181633.120000", "181633.123000"],
