{
  "AcquisitionMatrixPE": 104,
  "AcquisitionNumber": 1,
  "AcquisitionTime": "18:18:8.300000",
  "BandwidthPerPixelPhaseEncode": 17.17,
  "BaseResolution": 104,
  "BodyPartExamined": "BRAIN",
  "CoilString": "HC1-7;NC1_2",
  "ConsistencyInfo": "N4_VE11C_LATEST_20160120",
  "ConversionSoftware": "dcm2niix",
  "ConversionSoftwareVersion": "v1.0.20190902",
  "DerivedVendorReportedEchoSpacing": 0.000560011,
  "DeviceSerialNumber": "167006",
  "DwellTime": 2.1e-06,
  "EchoTime": 0.037,
  "EchoTrainLength": 104,
  "EffectiveEchoSpacing": 0.000560011,
  "FlipAngle": 52,
  "HeudiconvVersion": "0.10.0",
  "ImageComments": "Unaliased_MB4_PE3_LB",
  "ImageOrientationPatientDICOM": [0.99966, 0.00357147, 0.0258145, 0.00366396, 0.961464, -0.274905],
  "ImageType": [
    "ORIGINAL",
    "PRIMARY",
    "M",
    "MB",
    "ND",
    "MOSAIC"
],
  "ImagingFrequency": 123.259,
  "InPlanePhaseEncodingDirectionDICOM": "COL",
  "InstitutionAddress": "Chemin_Queen-Mary_4565_Montreal_District_CA_H3W_1W5",
  "InstitutionName": "IUGM",
  "InstitutionalDepartmentName": "Department",
  "MRAcquisitionType": "2D",
  "MagneticFieldStrength": 3,
  "Manufacturer": "Siemens",
  "ManufacturersModelName": "Prisma_fit",
  "Modality": "MR",
  "MultibandAccelerationFactor": 4,
  "PartialFourier": 1,
  "PatientPosition": "HFS",
  "PercentPhaseFOV": 100,
  "PhaseEncodingDirection": "j",
  "PhaseEncodingSteps": 104,
  "PhaseResolution": 1,
  "PixelBandwidth": 2290,
  "ProcedureStepDescription": "games_mario",
  "ProtocolName": "func_task-mario_run-02",
  "PulseSequenceDetails": "%CustomerSeq%_cmrr_mbep2d_bold",
  "ReceiveCoilActiveElements": "HC1-7;NC1,2",
  "ReceiveCoilName": "HeadNeck_64",
  "ReconMatrixPE": 104,
  "RepetitionTime": 1.49,
  "SAR": 0.0557818,
  "ScanOptions": "FS",
  "ScanningSequence": "EP",
  "SequenceName": "epfid2d1_104",
  "SequenceVariant": "SK_SS",
  "SeriesDescription": "func_task-mario_run-02",
  "SeriesNumber": 13,
  "ShimSetting": [642, -7206, -8738, 704, 65, 25, 37, -27],
  "SliceThickness": 2,
  "SliceTiming": [0, 0.785, 0.0975, 0.8825, 0.195, 0.98, 0.295, 1.0775, 0.3925, 1.175, 0.49, 1.275, 0.5875, 1.3725, 0.685, 0, 0.785, 0.0975, 0.8825, 0.195, 0.98, 0.295, 1.0775, 0.3925, 1.175, 0.49, 1.275, 0.5875, 1.3725, 0.685, 0, 0.785, 0.0975, 0.8825, 0.195, 0.98, 0.295, 1.0775, 0.3925, 1.175, 0.49, 1.275, 0.5875, 1.3725, 0.685, 0, 0.785, 0.0975, 0.8825, 0.195, 0.98, 0.295, 1.0775, 0.3925, 1.175, 0.49, 1.275, 0.5875, 1.3725, 0.685],
  "SoftwareVersions": "syngo_MR_E11",
  "SpacingBetweenSlices": 2,
  "StationName": "MRC35049",
  "TaskName": "mario",
  "TotalReadoutTime": 0.0576811,
  "TxRefAmp": 258.619,
  "WipMemBlock": "12b4d454-4b1d-423a-8a89-ae2cdf0c0fed||Sequence: R016 ve11c/master r/e634e98; Dec 19 2017 11:00:25 by eja",
  "dcmmeta_affine": [
    [-1.9993207454681396, 0.007327910512685776, 0.05160311236977577, 107.30253601074219],
    [-0.007142940070480108, 1.9229285717010498, -0.5498132705688477, -73.03016662597656],
    [0.05162904039025307, 0.5498108863830566, 1.9222493171691895, -54.32143783569336],
    [0.0, 0.0, 0.0, 1.0]
],
  "dcmmeta_reorient_transform": [
    [0.0, -1.0, 0.0, 103.0],
    [1.0, 0.0, 0.0, 0.0],
    [0.0, 0.0, 1.0, 0.0],
    [0.0, 0.0, 0.0, 1.0]
],
  "dcmmeta_shape": [104, 104, 60, 444],
  "dcmmeta_slice_dim": 2,
  "dcmmeta_version": 0.6,
  "global": {
    "const": {
      "AcquisitionMatrix": [104, 0, 0, 104],
      "AngioFlag": "N",
      "BitsAllocated": 16,
      "BitsStored": 16,
      "BodyPartExamined": "BRAIN",
      "Columns": 832,
      "EchoNumbers": 1,
      "EchoTime": 37.0,
      "EchoTrainLength": 104,
      "FlipAngle": 52.0,
      "HighBit": 15,
      "ImageOrientationPatient": [0.99966036990289, 0.00357146999775, 0.02581452009366, 0.0036639552466, 0.96146428977517, -0.2749054290462],
      "ImagePositionPatient": [-838.47741593985, -827.57751298007, 183.64726364416],
      "ImageType": [
        "ORIGINAL",
        "PRIMARY",
        "M",
        "MB",
        "ND",
        "MOSAIC"
],
      "ImagedNucleus": "1H",
      "ImagingFrequency": 123.2589,
      "InPlanePhaseEncodingDirection": "COL",
      "MRAcquisitionType": "2D",
      "MagneticFieldStrength": 3.0,
      "Manufacturer": "SIEMENS",
      "ManufacturerModelName": "Prisma_fit",
      "Modality": "MR",
      "NumberOfAverages": 1.0,
      "NumberOfPhaseEncodingSteps": 104,
      "PercentPhaseFieldOfView": 100.0,
      "PercentSampling": 100.0,
      "PerformedProcedureStepStartTime": "173513.079000",
      "PhotometricInterpretation": "MONOCHROME2",
      "PixelBandwidth": 2290.0,
      "PixelRepresentation": 0,
      "PixelSpacing": [2.0, 2.0],
      "ProtocolName": "func_task-mario_run-02",
      "RepetitionTime": 1490.0,
      "Rows": 832,
      "SAR": 0.05578175033909,
      "SamplesPerPixel": 1,
      "ScanOptions": "FS",
      "ScanningSequence": "EP",
      "SequenceName": "epfid2d1_104",
      "SequenceVariant": [
        "SK",
        "SS"
],
      "SeriesDescription": "func_task-mario_run-02",
      "SeriesNumber": 13,
      "SeriesTime": "181940.938000",
      "SliceLocation": -29.364622571635,
      "SliceThickness": 2.0,
      "SmallestImagePixelValue": 0,
      "SoftwareVersions": "syngo MR E11",
      "SpacingBetweenSlices": 2.0000000089362,
      "SpecificCharacterSet": "ISO_IR 100",
      "StudyID": "1",
      "StudyTime": "173513.026000",
      "TransmitCoilName": "Body",
      "VariableFlipAngleFlag": "N",
      "WindowCenterWidthExplanation": "Algo1",
      "dBdt": 0.0},
    "slices": {}
  },
  "time": {
    "samples": {
      "AcquisitionNumber": [1, 2, 3, 4, 5, 6, 7, 8, 9, 10, 11, 12, 13, 14, 15, 16, 17, 18, 19, 20, 21, 22, 23, 24, 25, 26, 27, 28, 29, 30, 31, 32, 33, 34, 35, 36, 37, 38, 39, 40, 41, 42, 43, 44, 45, 46, 47, 48, 49, 50, 51, 52, 53, 54, 55, 56, 57, 58, 59, 60, 61, 62, 63, 64, 65, 66, 67, 68, 69, 70, 71, 72, 73, 74, 75, 76, 77, 78, 79, 80, 81, 82, 83, 84, 85, 86, 87, 88, 89, 90, 91, 92, 93, 94, 95, 96, 97, 98, 99, 100, 101, 102, 103, 104, 105, 106, 107, 108, 109, 110, 111, 112, 113, 114, 115, 116, 117, 118, 119, 120, 121, 122, 123, 124, 125, 126, 127, 128, 129, 130, 131, 132, 133, 134, 135, 136, 137, 138, 139, 140, 141, 142, 143, 144, 145, 146, 147, 148, 149, 150, 151, 152, 153, 154, 155, 156, 157, 158, 159, 160, 161, 162, 163, 164, 165, 166, 167, 168, 169, 170, 171, 172, 173, 174, 175, 176, 177, 178, 179, 180, 181, 182, 183, 184, 185, 186, 187, 188, 189, 190, 191, 192, 193, 194, 195, 196, 197, 198, 199, 200, 201, 202, 203, 204, 205, 206, 207, 208, 209, 210, 211, 212, 213, 214, 215, 216, 217, 218, 219, 220, 221, 222, 223, 224, 225, 226, 227, 228, 229, 230, 231, 232, 233, 234, 235, 236, 237, 238, 239, 240, 241, 242, 243, 244, 245, 246, 247, 248, 249, 250, 251, 252, 253, 254, 255, 256, 257, 258, 259, 260, 261, 262, 263, 264, 265, 266, 267, 268, 269, 270, 271, 272, 273, 274, 275, 276, 277, 278, 279, 280, 281, 282, 283, 284, 285, 286, 287, 288, 289, 290, 291, 292, 293, 294, 295, 296, 297, 298, 299, 300, 301, 302, 303, 304, 305, 306, 307, 308, 309, 310, 311, 312, 313, 314, 315, 316, 317, 318, 319, 320, 321, 322, 323, 324, 325, 326, 327, 328, 329, 330, 331, 332, 333, 334, 335, 336, 337, 338, 339, 340, 341, 342, 343, 344, 345, 346, 347, 348, 349, 350, 351, 352, 353, 354, 355, 356, 357, 358, 359, 360, 361, 362, 363, 364, 365, 366, 367, 368, 369, 370, 371, 372, 373, 374, 375, 376, 377, 378, 379, 380, 381, 382, 383, 384, 385, 386, 387, 388, 389, 390, 391, 392, 393, 394, 395, 396, 397, 398, 399, 400, 401, 402, 403, 404, 405, 406, 407, 408, 409, 410, 411, 412, 413, 414, 415, 416, 417, 418, 419, 420, 421, 422, 423, 424, 425, 426, 427, 428, 429, 430, 431, 432, 433, 434, 435, 436, 437, 438, 439, 440, 441, 442, 443, 444],
      "AcquisitionTime": ["181808.300000", "181809.790000", "181811.280000", "181812.770000", "181814.260000", "181815.750000", "181817.240000", "181818.730000", "181820.220000", "181821.710000", "181823.200000", "181824.690000", "181826.180000", "181827.670000", "181829.160000", "181830.650000", "181832.140000", "181833.630000", "181835.120000", "181836.610000", "181838.100000", "181839.590000", "181841.080000", "181842.570000", "181844.060000", "181845.550000", "181847.040000", "181848.530000", "181850.020000", "181851.510000", "181853.000000", "181854.490000", "181855.980000", "181857.470000", "181858.960000", "181900.450000", "181901.940000", "181903.430000", "181904.920000", "181906.410000", "181907.900000", "181909.390000", "181910.880000", "181912.370000", "181913.860000", "181915.350000", "181916.840000", "181918.330000", "181919.820000", "181921.310000", "181922.800000", "181924.290000", "181925.780000", "181927.270000", "181928.760000", "181930.250000", "181931.740000", "181933.230000", "181934.720000", "181936.210000", "181937.700000", "181939.190000", "181940.680000", "181942.170000", "181943.660000", "181945.150000", "181946.640000", "181948.130000", "181949.620000", "181951.110000", "181952.600000", "181954.090000", "181955.580000", "181957.070000", "181958.560000", "182000.050000", "182001.540000", "182003.030000", "182004.520000", "182006.010000", "182007.500000", "182008.990000", "182010.480000", "182011.970000", "182013.460000", "182014.950000", "182016.440000", "182017.930000", "182019.420000", "182020.910000", "182022.400000", "182023.890000", "182025.380000", "182026.870000", "182028.360000", "182029.850000", "182031.340000", "182032.830000", "182034.320000", "182035.810000", "182037.300000", "182038.790000", "182040.280000", "182041.770000", "182043.260000", "182044.750000", "182046.240000", "182047.730000", "182049.220000", "182050.710000", "182052.200000", "182053.690000", "182055.180000", "182056.670000", "182058.160000", "182059.650000", "182101.140000", "182102.630000", "182104.120000", "182105.610000", "182107.100000", "182108.590000", "182110.080000", "182111.570000", "182113.060000", "182114.550000", "182116.040000", "182117.530000", "182119.020000", "182120.510000", "182122.000000", "182123.490000", "182124.980000", "182126.470000", "182127.960000", "182129.450000", "182130.940000", "182132.430000", "182133.920000", "182135.410000", "182136.900000", "182138.390000", "182139.880000", "182141.370000", "182142.860000", "182144.350000", "182145.840000", "182147.330000", "182148.820000", "182150.310000", "182151.800000", "182153.290000", "182154.780000", "182156.270000", "182157.760000", "182159.250000", "182200.740000", "182202.230000", "182203.720000", "182205.210000", "182206.700000", "182208.190000", "182209.680000", "182211.170000", "182212.660000", "182214.150000", "182215.640000", "182217.130000", "182218.620000", "182220.110000", "182221.600000", "182223.090000", "182224.580000", "182226.070000", "182227.560000", "182229.050000", "182230.540000", "182232.030000", "182233.520000", "182235.010000", "182236.500000", "182237.990000", "182239.480000", "182240.970000", "182242.460000", "182243.950000", "182245.440000", "182246.930000", "182248.420000", "182249.910000", "182251.400000", "182252.890000", "182254.380000", "182255.870000", "182257.360000", "182258.850000", "182300.340000", "182301.830000", "182303.320000", "182304.810000", "182306.300000", "182307.790000", "182309.280000", "182310.770000", "182312.260000", "182313.750000", "182315.240000", "182316.730000", "182318.220000", "182319.710000", "182321.200000", "182322.690000", "182324.180000", "182325.670000", "182327.160000", "182328.650000", "182330.140000", "182331.630000", "182333.120000", "182334.610000", "182336.100000", "182337.590000", "182339.080000", "182340.570000", "182342.060000", "182343.550000", "182345.040000", "182346.530000", "182348.020000", "182349.510000", "182351.000000", "182352.490000", "182353.980000", "182355.470000", "182356.960000", "182358.450000", "182359.940000", "182401.430000", "182402.920000", "182404.410000", "182405.900000", "182407.390000", "182408.880000", "182410.370000", "182411.860000", "182413.350000", "182414.840000", "182416.330000", "182417.820000", "182419.310000", "182420.800000", "182422.290000", "182423.780000", "182425.270000", "182426.760000", "182428.250000", "182429.740000", "182431.230000", "182432.720000", "182434.210000", "182435.700000", "182437.190000", "182438.680000", "182440.170000", "182441.660000", "182443.150000", "182444.640000", "182446.130000", "182447.620000", "182449.110000", "182450.600000", "182452.090000", "182453.580000", "182455.070000", "182456.560000", "182458.050000", "182459.540000", "182501.030000", "182502.520000", "182504.010000", "182505.500000", "182506.990000", "182508.480000", "182509.970000", "182511.460000", "182512.950000", "182514.440000", "182515.930000", "182517.420000", "182518.910000", "182520.400000", "182521.890000", "182523.380000", "182524.870000", "182526.360000", "182527.850000", "182529.340000", "182530.830000", "182532.320000", "182533.810000", "182535.300000", "182536.790000", "182538.280000", "182539.770000", "182541.260000", "182542.750000", "182544.240000", "182545.730000", "182547.220000", "182548.710000", "182550.200000", "182551.690000", "182553.180000", "182554.670000", "182556.160000", "182557.650000", "182559.140000", "182600.630000", "182602.120000", "182603.610000", "182605.100000", "182606.590000", "182608.080000", "182609.570000", "182611.060000", "182612.550000", "182614.040000", "182615.530000", "182617.020000", "182618.510000", "182620.000000", "182621.490000", "182622.980000", "182624.470000", "182625.960000", "182627.450000", "182628.940000", "182630.430000", "182631.920000", "182633.410000", "182634.900000", "182636.390000", "182637.880000", "182639.370000", "182640.860000", "182642.350000", "182643.840000", "182645.330000", "182646.820000", "182648.310000", "182649.800000", "182651.290000", "182652.780000", "182654.270000", "182655.760000", "182657.250000", "182658.740000", "182700.230000", "182701.720000", "182703.210000", "182704.700000", "182706.190000", "182707.680000", "182709.170000", "182710.660000", "182712.150000", "182713.640000", "182715.130000", "182716.620000", "182718.110000", "182719.600000", "182721.090000", "182722.580000", "182724.070000", "182725.560000", "182727.050000", "182728.540000", "182730.030000", "182731.520000", "182733.010000", "182734.500000", "182735.990000", "182737.480000", "182738.970000", "182740.460000", "182741.950000", "182743.440000", "182744.930000", "182746.420000", "182747.910000", "182749.400000", "182750.890000", "182752.380000", "182753.870000", "182755.360000", "182756.850000", "182758.340000", "182759.830000", "182801.320000", "182802.810000", "182804.300000", "182805.790000", "182807.280000", "182808.770000", "182810.260000", "182811.750000", "182813.240000", "182814.730000", "182816.220000", "182817.710000", "182819.200000", "182820.690000", "182822.180000", "182823.670000", "182825.160000", "182826.650000", "182828.140000", "182829.630000", "182831.120000", "182832.610000", "182834.100000", "182835.590000", "182837.080000", "182838.570000", "182840.060000", "182841.550000", "182843.040000", "182844.530000", "182846.020000", "182847.510000", "182849.000000", "182850.490000", "182851.980000", "182853.470000", "182854.960000", "182856.450000", "182857.940000", "182859.430000", "182900.920000", "182902.410000", "182903.900000", "182905.390000", "182906.880000", "182908.370000"],
      "ContentTime": ["181940.941000", "181940.945000", "181940.948000", "181940.952000", "181940.955000", "181940.958000", "181940.962000", "181940.965000", "181940.968000", "181940.971000", "181940.975000", "181940.978000", "181940.981000", "181940.984000", "181940.988000", "181940.991000", "181940.994000", "181940.997000", "181941.002000", "181941.005000", "181941.008000", "181941.011000", "181941.015000", "181941.018000", "181941.021000", "181941.024000", "181941.028000", "181941.037000", "181941.040000", "181941.044000", "181941.047000", "181941.050000", "181941.053000", "181941.057000", "181941.060000", "181941.063000", "181941.066000", "182000.903000", "182000.907000", "182000.910000", "182000.913000", "182000.917000", "182000.920000", "182000.923000", "182000.926000", "182000.929000", "182000.933000", "182000.936000", "182000.939000", "182000.942000", "182000.945000", "182000.949000", "182000.952000", "182000.955000", "182000.958000", "182000.962000", "182000.965000", "182020.903000", "182020.907000", "182020.910000", "182020.913000", "182020.916000", "182020.920000", "182020.923000", "182020.926000", "182020.929000", "182020.933000", "182020.936000", "182020.939000", "182020.942000", "182020.946000", "182020.949000", "182020.952000", "182020.955000", "182020.959000", "182020.962000", "182020.965000", "182040.903000", "182040.907000", "182040.910000", "182040.913000", "182040.916000", "182040.920000", "182040.923000", "182040.926000", "182040.929000", "182040.933000", "182040.936000", "182040.939000", "182040.942000", "182040.946000", "182040.949000", "182040.952000", "182040.955000", "182040.974000", "182040.977000", "182040.980000", "182120.904000", "182120.908000", "182120.911000", "182120.914000", "182120.918000", "182120.921000", "182120.924000", "182120.927000", "182120.931000", "182120.934000", "182120.937000", "182120.940000", "182120.944000", "182120.947000", "182120.950000", "182120.953000", "182120.956000", "182120.960000", "182120.963000", "182120.966000", "182120.970000", "182120.973000", "182120.976000", "182120.979000", "182120.982000", "182120.986000", "182120.989000", "182120.992000", "182120.995000", "182121.000000", "182121.003000", "182200.904000", "182200.908000", "182200.911000", "182200.915000", "182200.918000", "182200.921000", "182200.925000", "182200.928000", "182200.931000", "182200.935000", "182200.938000", "182200.941000", "182200.944000", "182200.948000", "182200.951000", "182200.954000", "182200.957000", "182200.960000", "182200.964000", "182200.967000", "182200.970000", "182200.973000", "182200.977000", "182200.980000", "182200.983000", "182200.986000", "182200.989000", "182240.903000", "182240.907000", "182240.910000", "182240.913000", "182240.917000", "182240.920000", "182240.923000", "182240.926000", "182240.930000", "182240.933000", "182240.936000", "182240.939000", "182240.943000", "182240.946000", "182240.949000", "182240.952000", "182240.956000", "182240.959000", "182240.962000", "182240.965000", "182240.969000", "182240.972000", "182240.975000", "182240.978000", "182240.981000", "182240.985000", "182240.988000", "182320.903000", "182320.907000", "182320.910000", "182320.913000", "182320.917000", "182320.920000", "182320.923000", "182320.926000", "182320.930000", "182320.933000", "182320.936000", "182320.939000", "182320.961000", "182320.964000", "182320.967000", "182320.971000", "182320.974000", "182320.977000", "182320.980000", "182320.984000", "182320.987000", "182320.990000", "182320.993000", "182320.997000", "182321.000000", "182321.003000", "182321.006000", "182400.904000", "182400.908000", "182400.911000", "182400.915000", "182400.918000", "182400.921000", "182400.924000", "182400.928000", "182400.931000", "182400.934000", "182400.937000", "182400.941000", "182400.944000", "182400.947000", "182400.951000", "182400.954000", "182400.957000", "182400.960000", "182400.964000", "182400.967000", "182400.970000", "182400.973000", "182400.977000", "182400.980000", "182400.983000", "182400.986000", "182400.990000", "182440.904000", "182440.908000", "182440.911000", "182440.914000", "182440.918000", "182440.921000", "182440.924000", "182440.928000", "182440.931000", "182440.934000", "182440.937000", "182440.941000", "182440.944000", "182440.947000", "182440.950000", "182440.954000", "182440.957000", "182440.960000", "182440.964000", "182440.967000", "182440.970000", "182440.973000", "182440.977000", "182440.980000", "182440.983000", "182440.986000", "182500.903000", "182500.907000", "182500.910000", "182500.913000", "182500.917000", "182500.920000", "182500.923000", "182500.926000", "182500.930000", "182500.933000", "182500.937000", "182500.940000", "182500.943000", "182500.947000", "182540.903000", "182540.907000", "182540.910000", "182540.913000", "182540.917000", "182540.920000", "182540.923000", "182540.927000", "182540.930000", "182540.933000", "182540.937000", "182540.951000", "182540.955000", "182540.958000", "182540.962000", "182540.965000", "182540.968000", "182540.972000", "182540.975000", "182540.978000", "182540.981000", "182540.985000", "182540.988000", "182540.991000", "182540.994000", "182540.997000", "182541.001000", "182620.904000", "182620.908000", "182620.911000", "182620.914000", "182620.918000", "182620.921000", "182620.924000", "182620.927000", "182620.931000", "182620.934000", "182620.937000", "182620.940000", "182620.944000", "182620.947000", "182620.950000", "182620.954000", "182620.957000", "182620.960000", "182620.963000", "182620.967000", "182620.970000", "182620.974000", "182620.977000", "182620.981000", "182620.984000", "182620.987000", "182620.990000", "182700.903000", "182700.907000", "182700.910000", "182700.914000", "182700.917000", "182700.920000", "182700.923000", "182700.927000", "182700.930000", "182700.934000", "182700.937000", "182700.940000", "182700.943000", "182700.947000", "182700.950000", "182700.953000", "182700.957000", "182700.961000", "182700.964000", "182700.968000", "182700.971000", "182700.974000", "182700.977000", "182700.981000", "182700.984000", "182700.987000", "182740.903000", "182740.911000", "182740.915000", "182740.918000", "182740.921000", "182740.925000", "182740.928000", "182740.931000", "182740.934000", "182740.938000", "182740.941000", "182740.944000", "182740.948000", "182740.951000", "182740.954000", "182740.958000", "182740.961000", "182740.964000", "182740.968000", "182740.971000", "182740.974000", "182740.977000", "182740.981000", "182740.984000", "182740.987000", "182740.990000", "182740.994000", "182820.904000", "182820.908000", "182820.911000", "182820.915000", "182820.918000", "182820.921000", "182820.924000", "182820.928000", "182820.931000", "182820.934000", "182820.937000", "182820.941000", "182820.944000", "182820.947000", "182820.950000", "182820.954000", "182820.957000", "182820.960000", "182820.963000", "182820.967000", "182820.970000", "182820.973000", "182820.977000", "182820.980000", "182820.984000", "182820.987000", "182820.991000", "182900.904000", "182900.908000", "182900.911000", "182900.915000", "182900.918000", "182900.921000", "182900.925000", "182900.928000", "182900.931000", "182900.935000", "182900.938000", "182900.941000", "182900.944000", "182900.948000", "182900.951000", "182900.954000", "182900.958000", "182900.961000", "182900.965000", "182900.968000", "182900.971000", "182900.974000", "182900.978000", "182900.981000", "182900.984000", "182900.988000", "182900.991000", "182911.145000", "182911.149000", "182911.155000", "182911.162000", "182911.168000", "182911.171000", "182911.175000"],
