{
  "AcquisitionMatrixPE": 104,
  "AcquisitionNumber": 1,
  "AcquisitionTime": "18:43:11.695000",
  "BandwidthPerPixelPhaseEncode": 17.17,
  "BaseResolution": 104,
  "BodyPartExamined": "BRAIN",
  "CoilString": "HC1-7;NC1_2",
  "ConsistencyInfo": "N4_VE11C_LATEST_20160120",
  "ConversionSoftware": "dcm2niix",
  "ConversionSoftwareVersion": "v1.0.20190902",
  "DerivedVendorReportedEchoSpacing": 0.000560011,
  "DeviceSerialNumber": "167006",
  "DwellTime": 2.1e-06,
  "EchoTime": 0.037,
  "EchoTrainLength": 104,
  "EffectiveEchoSpacing": 0.000560011,
  "FlipAngle": 52,
  "HeudiconvVersion": "0.10.0",
  "ImageComments": "Unaliased_MB4_PE3_LB",
  "ImageOrientationPatientDICOM": [0.99966, 0.00357147, 0.0258145, 0.00366396, 0.961464, -0.274905],
  "ImageType": [
    "ORIGINAL",
    "PRIMARY",
    "P",
    "MB",
    "ND",
    "MOSAIC"
],
  "ImagingFrequency": 123.259,
  "InPlanePhaseEncodingDirectionDICOM": "COL",
  "InstitutionAddress": "Chemin_Queen-Mary_4565_Montreal_District_CA_H3W_1W5",
  "InstitutionName": "IUGM",
  "InstitutionalDepartmentName": "Department",
  "MRAcquisitionType": "2D",
  "MagneticFieldStrength": 3,
  "Manufacturer": "Siemens",
  "ManufacturersModelName": "Prisma_fit",
  "Modality": "MR",
  "MultibandAccelerationFactor": 4,
  "PartialFourier": 1,
  "PatientPosition": "HFS",
  "PercentPhaseFOV": 100,
  "PhaseEncodingDirection": "j",
  "PhaseEncodingSteps": 104,
  "PhaseResolution": 1,
  "PixelBandwidth": 2290,
  "ProcedureStepDescription": "games_mario",
  "ProtocolName": "func_task-mario_run-04",
  "PulseSequenceDetails": "%CustomerSeq%_cmrr_mbep2d_bold",
  "ReceiveCoilActiveElements": "HC1-7;NC1,2",
  "ReceiveCoilName": "HeadNeck_64",
  "ReconMatrixPE": 104,
  "RepetitionTime": 1.49,
  "SAR": 0.0557818,
  "ScanOptions": "FS",
  "ScanningSequence": "EP",
  "SequenceName": "epfid2d1_104",
  "SequenceVariant": "SK_SS",
  "SeriesDescription": "func_task-mario_run-04",
  "SeriesNumber": 20,
  "ShimSetting": [642, -7206, -8738, 704, 65, 25, 37, -27],
  "SliceThickness": 2,
  "SliceTiming": [0, 0.7825, 0.0975, 0.8825, 0.195, 0.98, 0.2925, 1.0775, 0.3925, 1.175, 0.49, 1.2725, 0.5875, 1.3725, 0.685, 0, 0.7825, 0.0975, 0.8825, 0.195, 0.98, 0.2925, 1.0775, 0.3925, 1.175, 0.49, 1.2725, 0.5875, 1.3725, 0.685, 0, 0.7825, 0.0975, 0.8825, 0.195, 0.98, 0.2925, 1.0775, 0.3925, 1.175, 0.49, 1.2725, 0.5875, 1.3725, 0.685, 0, 0.7825, 0.0975, 0.8825, 0.195, 0.98, 0.2925, 1.0775, 0.3925, 1.175, 0.49, 1.2725, 0.5875, 1.3725, 0.685],
  "SoftwareVersions": "syngo_MR_E11",
  "SpacingBetweenSlices": 2,
  "StationName": "MRC35049",
  "TaskName": "mario",
  "TotalReadoutTime": 0.0576811,
  "TxRefAmp": 258.619,
  "WipMemBlock": "d55fdb3f-f52b-41f4-96a0-4a14f1887aca||Sequence: R016 ve11c/master r/e634e98; Dec 19 2017 11:00:25 by eja",
  "dcmmeta_affine": [
    [-1.9993207454681396, 0.007327910512685776, 0.05160311236977577, 107.30253601074219],
    [-0.007142940070480108, 1.9229285717010498, -0.5498132705688477, -73.03016662597656],
    [0.05162904039025307, 0.5498108863830566, 1.9222493171691895, -54.32143783569336],
    [0.0, 0.0, 0.0, 1.0]
],
  "dcmmeta_reorient_transform": [
    [0.0, -1.0, 0.0, 103.0],
    [1.0, 0.0, 0.0, 0.0],
    [0.0, 0.0, 1.0, 0.0],
    [0.0, 0.0, 0.0, 1.0]
],
  "dcmmeta_shape": [104, 104, 60, 139],
  "dcmmeta_slice_dim": 2,
  "dcmmeta_version": 0.6,
  "global": {
    "const": {
      "AcquisitionMatrix": [104, 0, 0, 104],
      "AngioFlag": "N",
      "BitsAllocated": 16,
      "BitsStored": 16,
      "BodyPartExamined": "BRAIN",
      "Columns": 832,
      "EchoNumbers": 1,
      "EchoTime": 37.0,
      "EchoTrainLength": 104,
      "FlipAngle": 52.0,
      "HighBit": 15,
      "ImageOrientationPatient": [0.99966036990289, 0.00357146999775, 0.02581452009366, 0.0036639552466, 0.96146428977517, -0.2749054290462],
      "ImagePositionPatient": [-838.47741593985, -827.57751298007, 183.64726364416],
      "ImageType": [
        "ORIGINAL",
        "PRIMARY",
        "P",
        "MB",
        "ND",
        "MOSAIC"
],
      "ImagedNucleus": "1H",
      "ImagingFrequency": 123.258909,
      "InPlanePhaseEncodingDirection": "COL",
      "LargestImagePixelValue": 4095,
      "MRAcquisitionType": "2D",
      "MagneticFieldStrength": 3.0,
      "Manufacturer": "SIEMENS",
      "ManufacturerModelName": "Prisma_fit",
      "Modality": "MR",
      "NumberOfAverages": 1.0,
      "NumberOfPhaseEncodingSteps": 104,
      "PercentPhaseFieldOfView": 100.0,
      "PercentSampling": 100.0,
      "PerformedProcedureStepStartTime": "173513.079000",
      "PhotometricInterpretation": "MONOCHROME2",
      "PixelBandwidth": 2290.0,
      "PixelRepresentation": 0,
      "PixelSpacing": [2.0, 2.0],
      "ProtocolName": "func_task-mario_run-04",
      "RepetitionTime": 1490.0,
      "RescaleIntercept": -4096.0,
      "RescaleSlope": 2.0,
      "RescaleType": "US",
      "Rows": 832,
      "SAR": 0.05578175033909,
      "SamplesPerPixel": 1,
      "ScanOptions": "FS",
      "ScanningSequence": "EP",
      "SequenceName": "epfid2d1_104",
      "SequenceVariant": [
        "SK",
        "SS"
],
      "SeriesDescription": "func_task-mario_run-04",
      "SeriesNumber": 20,
      "SeriesTime": "184449.562000",
      "SliceLocation": -29.364622571635,
      "SliceThickness": 2.0,
      "SmallestImagePixelValue": 0,
      "SoftwareVersions": "syngo MR E11",
      "SpacingBetweenSlices": 2.0000000089362,
      "SpecificCharacterSet": "ISO_IR 100",
      "StudyID": "1",
      "StudyTime": "173513.026000",
      "TransmitCoilName": "Body",
      "VariableFlipAngleFlag": "N",
      "WindowCenterWidthExplanation": "Algo1",
      "dBdt": 0.0},
    "slices": {}
  },
  "time": {
    "samples": {
      "AcquisitionNumber": [1, 2, 3, 4, 5, 6, 7, 8, 9, 10, 11, 12, 13, 14, 15, 16, 17, 18, 19, 20, 21, 22, 23, 24, 25, 26, 27, 28, 29, 30, 31, 32, 33, 34, 35, 36, 37, 38, 39, 40, 41, 42, 43, 44, 45, 46, 47, 48, 49, 50, 51, 52, 53, 54, 55, 56, 57, 58, 59, 60, 61, 62, 63, 64, 65, 66, 67, 68, 69, 70, 71, 72, 73, 74, 75, 76, 77, 78, 79, 80, 81, 82, 83, 84, 85, 86, 87, 88, 89, 90, 91, 92, 93, 94, 95, 96, 97, 98, 99, 100, 101, 102, 103, 104, 105, 106, 107, 108, 109, 110, 111, 112, 113, 114, 115, 116, 117, 118, 119, 120, 121, 122, 123, 124, 125, 126, 127, 128, 129, 130, 131, 132, 133, 134, 135, 136, 137, 138, 139],
      "AcquisitionTime": ["184311.695000", "184313.185000", "184314.675000", "184316.165000", "184317.655000", "184319.145000", "184320.635000", "184322.125000", "184323.615000", "184325.105000", "184326.595000", "184328.085000", "184329.575000", "184331.065000", "184332.555000", "184334.045000", "184335.535000", "184337.025000", "184338.515000", "184340.005000", "184341.495000", "184342.985000", "184344.475000", "184345.965000", "184347.455000", "184348.945000", "184350.435000", "184351.925000", "184353.415000", "184354.905000", "184356.395000", "184357.885000", "184359.375000", "184400.865000", "184402.355000", "184403.845000", "184405.335000", "184406.825000", "184408.315000", "184409.805000", "184411.295000", "184412.785000", "184414.275000", "184415.765000", "184417.255000", "184418.745000", "184420.235000", "184421.725000", "184423.215000", "184424.705000", "184426.195000", "184427.685000", "184429.175000", "184430.665000", "184432.155000", "184433.645000", "184435.135000", "184436.625000", "184438.115000", "184439.605000", "184441.095000", "184442.585000", "184444.075000", "184445.565000", "184447.055000", "184448.545000", "184450.035000", "184451.525000", "184453.015000", "184454.505000", "184455.995000", "184457.485000", "184458.975000", "184500.465000", "184501.955000", "184503.445000", "184504.935000", "184506.425000", "184507.915000", "184509.405000", "184510.895000", "184512.385000", "184513.875000", "184515.365000", "184516.855000", "184518.345000", "184519.835000", "184521.325000", "184522.815000", "184524.305000", "184525.795000", "184527.285000", "184528.775000", "184530.265000", "184531.755000", "184533.245000", "184534.735000", "184536.225000", "184537.715000", "184539.205000", "184540.695000", "184542.185000", "184543.675000", "184545.165000", "184546.655000", "184548.145000", "184549.635000", "184551.125000", "184552.615000", "184554.105000", "184555.595000", "184557.085000", "184558.575000", "184600.065000", "184601.555000", "184603.045000", "184604.535000", "184606.025000", "184607.515000", "184609.005000", "184610.495000", "184611.985000", "184613.475000", "184614.965000", "184616.455000", "184617.945000", "184619.435000", "184620.925000", "184622.415000", "184623.905000", "184625.395000", "184626.885000", "184628.375000", "184629.865000", "184631.355000", "184632.845000", "184634.335000", "184635.825000", "184637.315000"],
      "ContentTime": ["184449.565000", "184449.568000", "184449.570000", "184449.573000", "184449.575000", "184449.578000", "184449.581000", "184449.583000", "184449.586000", "184449.588000", "184449.591000", "184449.593000", "184449.596000", "184449.598000", "184449.601000", "184449.603000", "184449.606000", "184449.608000", "184449.611000", "184449.613000", "184449.616000", "184449.618000", "184449.621000", "184449.623000", "184449.626000", "184449.628000", "184449.631000", "184449.633000", "184449.636000", "184449.638000", "184449.641000", "184449.643000", "184449.646000", "184449.648000", "184449.651000", "184449.653000", "184449.656000", "184449.658000", "184509.470000", "184509.473000", "184509.475000", "184509.478000", "184509.481000", "184509.483000", "184509.485000", "184509.488000", "184509.491000", "184509.493000", "184509.496000", "184509.498000", "184509.501000", "184509.503000", "184509.506000", "184509.508000", "184509.511000", "184509.513000", "184509.516000", "184509.518000", "184529.458000", "184529.460000", "184529.463000", "184529.466000", "184529.468000", "184529.471000", "184529.473000", "184529.476000", "184529.478000", "184529.482000", "184529.485000", "184529.488000", "184529.491000", "184529.494000", "184529.496000", "184529.499000", "184529.501000", "184529.504000", "184529.506000", "184529.509000", "184549.458000", "184549.460000", "184549.463000", "184549.472000", "184549.474000", "184549.476000", "184549.479000", "184549.482000", "184549.484000", "184549.487000", "184549.489000", "184549.492000", "184549.494000", "184549.497000", "184549.499000", "184549.502000", "184549.504000", "184549.507000", "184549.509000", "184549.512000", "184609.456000", "184609.459000", "184609.462000", "184609.464000", "184609.467000", "184609.469000", "184609.472000", "184609.474000", "184609.477000", "184609.479000", "184609.482000", "184609.484000", "184609.487000", "184609.489000", "184609.492000", "184609.494000", "184609.497000", "184609.499000", "184609.502000", "184609.504000", "184640.155000", "184640.158000", "184640.160000", "184640.163000", "184640.165000", "184640.168000", "184640.178000", "184640.181000", "184640.183000", "184640.186000", "184640.189000", "184640.191000", "184640.193000", "184640.196000", "184640.199000", "184640.201000", "184640.204000", "184640.206000", "184640.209000", "184640.211000", "184640.214000"],
      "InstanceCreationTime": ["184449.565000", "184449.568000", "184449.570000", "184449.573000", "184449.575000", "184449.578000", "184449.581000", "184449.583000", "184449.586000", "184449.588000", "184449.591000", "184449.593000", "184449.596000", "184449.598000", "184449.601000", "184449.603000", "184449.606000", "184449.608000", "184449.611000", "184449.613000", "184449.616000", "184449.618000", "184449.621000", "184449.623000", "184449.626000", "184449.628000", "184449.631000", "184449.633000", "184449.636000", "184449.638000", "184449.641000", "184449.643000", "184449.646000", "184449.648000", "184449.651000", "184449.653000", "184449.656000", "184449.658000", "184509.470000", "184509.473000", "184509.475000", "184509.478000", "184509.481000", "184509.483000", "184509.485000", "184509.488000", "184509.491000", "184509.493000", "184509.496000", "184509.498000", "184509.501000", "184509.503000", "184509.506000", "184509.508000", "184509.511000", "184509.513000", "184509.516000", "184509.518000", "184529.458000", "184529.460000", "184529.463000", "184529.466000", "184529.468000", "184529.471000", "184529.473000", "184529.476000", "184529.478000", "184529.482000", "184529.485000", "184529.488000", "184529.491000", "184529.494000", "184529.496000", "184529.499000", "184529.501000", "184529.504000", "184529.506000", "184529.509000", "184549.458000", "184549.460000", "184549.463000", "184549.472000", "184549.474000", "184549.476000", "184549.479000", "184549.482000", "184549.484000", "184549.487000", "184549.489000", "184549.492000", "184549.494000", "184549.497000", "184549.499000", "184549.502000", "184549.504000", "184549.507000", "184549.509000", "184549.512000", "184609.456000", "184609.459000", "184609.462000", "184609.464000", "184609.467000", "184609.469000", "184609.472000", "184609.474000", "184609.477000", "184609.479000", "184609.482000", "184609.484000", "184609.487000", "184609.489000", "184609.492000", "184609.494000", "184609.497000", "184609.499000", "184609.502000", "184609.504000", "184640.155000", "184640.158000", "184640.160000", "184640.163000", "184640.165000", "184640.168000", "184640.178000", "184640.181000", "184640.183000", "184640.186000", "184640.189000", "184640.191000", "184640.193000", "184640.196000", "184640.199000", "184640.201000", "184640.204000", "184640.206000", "184640.209000", "184640.211000", "184640.214000"],
      "InstanceNumber": [1, 2, 3, 4, 5, 6, 7, 8, 9, 10, 11, 12, 13, 14, 15, 16, 17, 18, 19, 20, 21, 22, 23, 24, 25, 26, 27, 28, 29, 30, 31, 32, 33, 34, 35, 36, 37, 38, 39, 40, 41, 42, 43, 44, 45, 46, 47, 48, 49, 50, 51, 52, 53, 54, 55, 56, 57, 58, 59, 60, 61, 62, 63, 64, 65, 66, 67, 68, 69, 70, 71, 72, 73, 74, 75, 76, 77, 78, 79, 80, 81, 82, 83, 84, 85, 86, 87, 88, 89, 90, 91, 92, 93, 94, 95, 96, 97, 98, 99, 100, 101, 102, 103, 104, 105, 106, 107, 108, 109, 110, 111, 112, 113, 114, 115, 116, 117, 118, 119, 120, 121, 122, 123, 124, 125, 126, 127, 128, 129, 130, 131, 132, 133, 134, 135, 136, 137, 138, 139],
      "WindowCenter": [4764.0, 4762.0, 4766.0, 4766.0, 4768.0, 4768.0, 4764.0, 4792.0, 4790.0, 4798.0, 4768.0, 4766.0, 4758.0, 4756.0, 4762.0, 4754.0, 4762.0, 4764.0, 4796.0, 4796.0, 4794.0, 4794.0, 4768.0, 4760.0, 4758.0, 4756.0, 4756.0, 4762.0, 4766.0, 4764.0, 4770.0, 4768.0, 4770.0, 4766.0, 4762.0, 4764.0, 4762.0, 4762.0, 4764.0, 4762.0, 4768.0, 4770.0, 4770.0, 4798.0, 4794.0, 4768.0, 4766.0, 4760.0, 4754.0, 4762.0, 4762.0, 4768.0, 4770.0, 4772.0, 4772.0, 4768.0, 4770.0, 4762.0, 4762.0, 4758.0, 4764.0, 4762.0, 4766.0, 4766.0, 4768.0, 4794.0, 4796.0, 4770.0, 4768.0, 4768.0, 4766.0, 4762.0, 4762.0, 4762.0, 4770.0, 4764.0, 4772.0, 4772.0, 4766.0, 4764.0, 4768.0, 4762.0, 4764.0, 4762.0, 4752.0, 4738.0, 4762.0, 4772.0, 4768.0, 4798.0, 4798.0, 4774.0, 4764.0, 4758.0, 4756.0, 4758.0, 4770.0, 4768.0, 4770.0, 4770.0, 4766.0, 4766.0, 4762.0, 4762.0, 4768.0, 4770.0, 4796.0, 4770.0, 4764.0, 4764.0, 4764.0, 4766.0, 4764.0, 4766.0, 4762.0, 4768.0, 4766.0, 4768.0, 4770.0, 4770.0, 4772.0, 4768.0, 4792.0, 4770.0, 4766.0, 4760.0, 4760.0, 4766.0, 4764.0, 4794.0, 4770.0, 4770.0, 4770.0, 4766.0, 4768.0, 4766.0, 4766.0, 4764.0, 4764.0],
      "WindowWidth": [18534.0, 18538.0, 18538.0, 18540.0, 18538.0, 18538.0, 18536.0, 18570.0, 18568.0, 18562.0, 18528.0, 18534.0, 18536.0, 18536.0, 18542.0, 18530.0, 18530.0, 18532.0, 18566.0, 18558.0, 18556.0, 18558.0, 18534.0, 18534.0, 18534.0, 18536.0, 18534.0, 18528.0, 18534.0, 18534.0, 18532.0, 18526.0, 18532.0, 18534.0, 18530.0, 18538.0, 18536.0, 18538.0, 18536.0, 18534.0, 18534.0, 18530.0, 18532.0, 18564.0, 18562.0, 18532.0, 18534.0, 18530.0, 18528.0, 18538.0, 18536.0, 18532.0, 18532.0, 18530.0, 18532.0, 18534.0, 18530.0, 18532.0, 18532.0, 18532.0, 18532.0, 18532.0, 18538.0, 18532.0, 18530.0, 18560.0, 18556.0, 18526.0, 18532.0, 18528.0, 18532.0, 18530.0, 18530.0, 18526.0, 18530.0, 18524.0, 18534.0, 18534.0, 18532.0, 18530.0, 18538.0, 18528.0, 18532.0, 18534.0, 18540.0, 18492.0, 18528.0, 18536.0, 18530.0, 18564.0, 18556.0, 18530.0, 18526.0, 18532.0, 18528.0, 18528.0, 18526.0, 18532.0, 18532.0, 18526.0, 18530.0, 18534.0, 18528.0, 18530.0, 18524.0, 18522.0, 18560.0, 18530.0, 18532.0, 18532.0, 18524.0, 18522.0, 18528.0, 18532.0, 18534.0, 18536.0, 18532.0, 18530.0, 18526.0, 18528.0, 18532.0, 18530.0, 18564.0, 18536.0, 18536.0, 18536.0, 18534.0, 18534.0, 18530.0, 18566.0, 18522.0, 18524.0, 18530.0, 18530.0, 18530.0, 18532.0, 18528.0, 18526.0, 18532.0]
    },
    "slices": {}
  }
}