{
  "AcquisitionMatrixPE": 104,
  "AcquisitionNumber": 1,
  "AcquisitionTime": "18:43:11.695000",
  "BandwidthPerPixelPhaseEncode": 17.17,
  "BaseResolution": 104,
  "BodyPartExamined": "BRAIN",
  "CoilString": "HC1-7;NC1_2",
  "ConsistencyInfo": "N4_VE11C_LATEST_20160120",
  "ConversionSoftware": "dcm2niix",
  "ConversionSoftwareVersion": "v1.0.20190902",
  "DerivedVendorReportedEchoSpacing": 0.000560011,
  "DeviceSerialNumber": "167006",
  "DwellTime": 2.1e-06,
  "EchoTime": 0.037,
  "EchoTrainLength": 104,
  "EffectiveEchoSpacing": 0.000560011,
  "FlipAngle": 52,
  "HeudiconvVersion": "0.10.0",
  "ImageComments": "Unaliased_MB4_PE3_LB",
  "ImageOrientationPatientDICOM": [0.99966, 0.00357147, 0.0258145, 0.00366396, 0.961464, -0.274905],
  "ImageType": [
    "ORIGINAL",
    "PRIMARY",
    "M",
    "MB",
    "ND",
    "MOSAIC"
],
  "ImagingFrequency": 123.259,
  "InPlanePhaseEncodingDirectionDICOM": "COL",
  "InstitutionAddress": "Chemin_Queen-Mary_4565_Montreal_District_CA_H3W_1W5",
  "InstitutionName": "IUGM",
  "InstitutionalDepartmentName": "Department",
  "MRAcquisitionType": "2D",
  "MagneticFieldStrength": 3,
  "Manufacturer": "Siemens",
  "ManufacturersModelName": "Prisma_fit",
  "Modality": "MR",
  "MultibandAccelerationFactor": 4,
  "PartialFourier": 1,
  "PatientPosition": "HFS",
  "PercentPhaseFOV": 100,
  "PhaseEncodingDirection": "j",
  "PhaseEncodingSteps": 104,
  "PhaseResolution": 1,
  "PixelBandwidth": 2290,
  "ProcedureStepDescription": "games_mario",
  "ProtocolName": "func_task-mario_run-04",
  "PulseSequenceDetails": "%CustomerSeq%_cmrr_mbep2d_bold",
  "ReceiveCoilActiveElements": "HC1-7;NC1,2",
  "ReceiveCoilName": "HeadNeck_64",
  "ReconMatrixPE": 104,
  "RepetitionTime": 1.49,
  "SAR": 0.0557818,
  "ScanOptions": "FS",
  "ScanningSequence": "EP",
  "SequenceName": "epfid2d1_104",
  "SequenceVariant": "SK_SS",
  "SeriesDescription": "func_task-mario_run-04",
  "SeriesNumber": 19,
  "ShimSetting": [642, -7206, -8738, 704, 65, 25, 37, -27],
  "SliceThickness": 2,
  "SliceTiming": [0, 0.7825, 0.0975, 0.8825, 0.195, 0.98, 0.2925, 1.0775, 0.3925, 1.175, 0.49, 1.2725, 0.5875, 1.3725, 0.685, 0, 0.7825, 0.0975, 0.8825, 0.195, 0.98, 0.2925, 1.0775, 0.3925, 1.175, 0.49, 1.2725, 0.5875, 1.3725, 0.685, 0, 0.7825, 0.0975, 0.8825, 0.195, 0.98, 0.2925, 1.0775, 0.3925, 1.175, 0.49, 1.2725, 0.5875, 1.3725, 0.685, 0, 0.7825, 0.0975, 0.8825, 0.195, 0.98, 0.2925, 1.0775, 0.3925, 1.175, 0.49, 1.2725, 0.5875, 1.3725, 0.685],
  "SoftwareVersions": "syngo_MR_E11",
  "SpacingBetweenSlices": 2,
  "StationName": "MRC35049",
  "TaskName": "mario",
  "TotalReadoutTime": 0.0576811,
  "TxRefAmp": 258.619,
  "WipMemBlock": "d55fdb3f-f52b-41f4-96a0-4a14f1887aca||Sequence: R016 ve11c/master r/e634e98; Dec 19 2017 11:00:25 by eja",
  "dcmmeta_affine": [
    [-1.9993207454681396, 0.007327910512685776, 0.05160311236977577, 107.30253601074219],
    [-0.007142940070480108, 1.9229285717010498, -0.5498132705688477, -73.03016662597656],
    [0.05162904039025307, 0.5498108863830566, 1.9222493171691895, -54.32143783569336],
    [0.0, 0.0, 0.0, 1.0]
],
  "dcmmeta_reorient_transform": [
    [0.0, -1.0, 0.0, 103.0],
    [1.0, 0.0, 0.0, 0.0],
    [0.0, 0.0, 1.0, 0.0],
    [0.0, 0.0, 0.0, 1.0]
],
  "dcmmeta_shape": [104, 104, 60, 139],
  "dcmmeta_slice_dim": 2,
  "dcmmeta_version": 0.6,
  "global": {
    "const": {
      "AcquisitionMatrix": [104, 0, 0, 104],
      "AngioFlag": "N",
      "BitsAllocated": 16,
      "BitsStored": 16,
      "BodyPartExamined": "BRAIN",
      "Columns": 832,
      "EchoNumbers": 1,
      "EchoTime": 37.0,
      "EchoTrainLength": 104,
      "FlipAngle": 52.0,
      "HighBit": 15,
      "ImageOrientationPatient": [0.99966036990289, 0.00357146999775, 0.02581452009366, 0.0036639552466, 0.96146428977517, -0.2749054290462],
      "ImagePositionPatient": [-838.47741593985, -827.57751298007, 183.64726364416],
      "ImageType": [
        "ORIGINAL",
        "PRIMARY",
        "M",
        "MB",
        "ND",
        "MOSAIC"
],
      "ImagedNucleus": "1H",
      "ImagingFrequency": 123.258909,
      "InPlanePhaseEncodingDirection": "COL",
      "MRAcquisitionType": "2D",
      "MagneticFieldStrength": 3.0,
      "Manufacturer": "SIEMENS",
      "ManufacturerModelName": "Prisma_fit",
      "Modality": "MR",
      "NumberOfAverages": 1.0,
      "NumberOfPhaseEncodingSteps": 104,
      "PercentPhaseFieldOfView": 100.0,
      "PercentSampling": 100.0,
      "PerformedProcedureStepStartTime": "173513.079000",
      "PhotometricInterpretation": "MONOCHROME2",
      "PixelBandwidth": 2290.0,
      "PixelRepresentation": 0,
      "PixelSpacing": [2.0, 2.0],
      "ProtocolName": "func_task-mario_run-04",
      "RepetitionTime": 1490.0,
      "Rows": 832,
      "SAR": 0.05578175033909,
      "SamplesPerPixel": 1,
      "ScanOptions": "FS",
      "ScanningSequence": "EP",
      "SequenceName": "epfid2d1_104",
      "SequenceVariant": [
        "SK",
        "SS"
],
      "SeriesDescription": "func_task-mario_run-04",
      "SeriesNumber": 19,
      "SeriesTime": "184449.380000",
      "SliceLocation": -29.364622571635,
      "SliceThickness": 2.0,
      "SmallestImagePixelValue": 0,
      "SoftwareVersions": "syngo MR E11",
      "SpacingBetweenSlices": 2.0000000089362,
      "SpecificCharacterSet": "ISO_IR 100",
      "StudyID": "1",
      "StudyTime": "173513.026000",
      "TransmitCoilName": "Body",
      "VariableFlipAngleFlag": "N",
      "WindowCenterWidthExplanation": "Algo1",
      "dBdt": 0.0},
    "slices": {}
  },
  "time": {
    "samples": {
      "AcquisitionNumber": [1, 2, 3, 4, 5, 6, 7, 8, 9, 10, 11, 12, 13, 14, 15, 16, 17, 18, 19, 20, 21, 22, 23, 24, 25, 26, 27, 28, 29, 30, 31, 32, 33, 34, 35, 36, 37, 38, 39, 40, 41, 42, 43, 44, 45, 46, 47, 48, 49, 50, 51, 52, 53, 54, 55, 56, 57, 58, 59, 60, 61, 62, 63, 64, 65, 66, 67, 68, 69, 70, 71, 72, 73, 74, 75, 76, 77, 78, 79, 80, 81, 82, 83, 84, 85, 86, 87, 88, 89, 90, 91, 92, 93, 94, 95, 96, 97, 98, 99, 100, 101, 102, 103, 104, 105, 106, 107, 108, 109, 110, 111, 112, 113, 114, 115, 116, 117, 118, 119, 120, 121, 122, 123, 124, 125, 126, 127, 128, 129, 130, 131, 132, 133, 134, 135, 136, 137, 138, 139],
      "AcquisitionTime": ["184311.695000", "184313.185000", "184314.675000", "184316.165000", "184317.655000", "184319.145000", "184320.635000", "184322.125000", "184323.615000", "184325.105000", "184326.595000", "184328.085000", "184329.575000", "184331.065000", "184332.555000", "184334.045000", "184335.535000", "184337.025000", "184338.515000", "184340.005000", "184341.495000", "184342.985000", "184344.475000", "184345.965000", "184347.455000", "184348.945000", "184350.435000", "184351.925000", "184353.415000", "184354.905000", "184356.395000", "184357.885000", "184359.375000", "184400.865000", "184402.355000", "184403.845000", "184405.335000", "184406.825000", "184408.315000", "184409.805000", "184411.295000", "184412.785000", "184414.275000", "184415.765000", "184417.255000", "184418.745000", "184420.235000", "184421.725000", "184423.215000", "184424.705000", "184426.195000", "184427.685000", "184429.175000", "184430.665000", "184432.155000", "184433.645000", "184435.135000", "184436.625000", "184438.115000", "184439.605000", "184441.095000", "184442.585000", "184444.075000", "184445.565000", "184447.055000", "184448.545000", "184450.035000", "184451.525000", "184453.015000", "184454.505000", "184455.995000", "184457.485000", "184458.975000", "184500.465000", "184501.955000", "184503.445000", "184504.935000", "184506.425000", "184507.915000", "184509.405000", "184510.895000", "184512.385000", "184513.875000", "184515.365000", "184516.855000", "184518.345000", "184519.835000", "184521.325000", "184522.815000", "184524.305000", "184525.795000", "184527.285000", "184528.775000", "184530.265000", "184531.755000", "184533.245000", "184534.735000", "184536.225000", "184537.715000", "184539.205000", "184540.695000", "184542.185000", "184543.675000", "184545.165000", "184546.655000", "184548.145000", "184549.635000", "184551.125000", "184552.615000", "184554.105000", "184555.595000", "184557.085000", "184558.575000", "184600.065000", "184601.555000", "184603.045000", "184604.535000", "184606.025000", "184607.515000", "184609.005000", "184610.495000", "184611.985000", "184613.475000", "184614.965000", "184616.455000", "184617.945000", "184619.435000", "184620.925000", "184622.415000", "184623.905000", "184625.395000", "184626.885000", "184628.375000", "184629.865000", "184631.355000", "184632.845000", "184634.335000", "184635.825000", "184637.315000"],
      "ContentTime": ["184449.383000", "184449.387000", "184449.390000", "184449.394000", "184449.397000", "184449.400000", "184449.404000", "184449.407000", "184449.410000", "184449.413000", "184449.416000", "184449.420000", "184449.423000", "184449.426000", "184449.430000", "184449.440000", "184449.444000", "184449.447000", "184449.450000", "184449.454000", "184449.457000", "184449.460000", "184449.464000", "184449.467000", "184449.470000", "184449.474000", "184449.477000", "184449.480000", "184449.483000", "184449.487000", "184449.490000", "184449.493000", "184449.499000", "184449.503000", "184449.506000", "184449.509000", "184449.514000", "184449.517000", "184509.350000", "184509.370000", "184509.373000", "184509.376000", "184509.380000", "184509.383000", "184509.386000", "184509.390000", "184509.393000", "184509.396000", "184509.399000", "184509.409000", "184509.412000", "184509.415000", "184509.418000", "184509.422000", "184509.425000", "184509.428000", "184509.432000", "184509.435000", "184529.350000", "184529.354000", "184529.357000", "184529.360000", "184529.364000", "184529.367000", "184529.370000", "184529.374000", "184529.377000", "184529.380000", "184529.384000", "184529.387000", "184529.390000", "184529.394000", "184529.397000", "184529.400000", "184529.404000", "184529.407000", "184529.410000", "184529.413000", "184549.351000", "184549.355000", "184549.358000", "184549.362000", "184549.365000", "184549.369000", "184549.372000", "184549.375000", "184549.379000", "184549.382000", "184549.385000", "184549.389000", "184549.392000", "184549.396000", "184549.399000", "184549.402000", "184549.406000", "184549.409000", "184549.412000", "184549.416000", "184609.351000", "184609.355000", "184609.358000", "184609.362000", "184609.365000", "184609.368000", "184609.371000", "184609.375000", "184609.378000", "184609.381000", "184609.384000", "184609.388000", "184609.391000", "184609.394000", "184609.398000", "184609.401000", "184609.404000", "184609.408000", "184609.411000", "184609.414000", "184640.037000", "184640.041000", "184640.044000", "184640.056000", "184640.059000", "184640.063000", "184640.066000", "184640.069000", "184640.073000", "184640.076000", "184640.079000", "184640.083000", "184640.086000", "184640.089000", "184640.092000", "184640.096000", "184640.099000", "184640.103000", "184640.106000", "184640.109000", "184640.112000"],
      "InstanceCreationTime": ["184449.383000", "184449.387000", "184449.390000", "184449.394000", "184449.397000", "184449.400000", "184449.404000", "184449.407000", "184449.410000", "184449.413000", "184449.416000", "184449.420000", "184449.423000", "184449.426000", "184449.430000", "184449.440000", "184449.444000", "184449.447000", "184449.450000", "184449.454000", "184449.457000", "184449.460000", "184449.464000", "184449.467000", "184449.470000", "184449.474000", "184449.477000", "184449.480000", "184449.483000", "184449.487000", "184449.490000", "184449.493000", "184449.499000", "184449.503000", "184449.506000", "184449.509000", "184449.514000", "184449.517000", "184509.350000", "184509.370000", "184509.373000", "184509.376000", "184509.380000", "184509.383000", "184509.386000", "184509.390000", "184509.393000", "184509.396000", "184509.399000", "184509.409000", "184509.412000", "184509.415000", "184509.418000", "184509.422000", "184509.425000", "184509.428000", "184509.432000", "184509.435000", "184529.350000", "184529.354000", "184529.357000", "184529.360000", "184529.364000", "184529.367000", "184529.370000", "184529.374000", "184529.377000", "184529.380000", "184529.384000", "184529.387000", "184529.390000", "184529.394000", "184529.397000", "184529.400000", "184529.404000", "184529.407000", "184529.410000", "184529.413000", "184549.351000", "184549.355000", "184549.358000", "184549.362000", "184549.365000", "184549.369000", "184549.372000", "184549.375000", "184549.379000", "184549.382000", "184549.385000", "184549.389000", "184549.392000", "184549.396000", "184549.399000", "184549.402000", "184549.406000", "184549.409000", "184549.412000", "184549.416000", "184609.351000", "184609.355000", "184609.358000", "184609.362000", "184609.365000", "184609.368000", "184609.371000", "184609.375000", "184609.378000", "184609.381000", "184609.384000", "184609.388000", "184609.391000", "184609.394000", "184609.398000", "184609.401000", "184609.404000", "184609.408000", "184609.411000", "184609.414000", "184640.037000", "184640.041000", "184640.044000", "184640.056000", "184640.059000", "184640.063000", "184640.066000", "184640.069000", "184640.073000", "184640.076000", "184640.079000", "184640.083000", "184640.086000", "184640.089000", "184640.092000", "184640.096000", "184640.099000", "184640.103000", "184640.106000", "184640.109000", "184640.112000"],
      "InstanceNumber": [1, 2, 3, 4, 5, 6, 7, 8, 9, 10, 11, 12, 13, 14, 15, 16, 17, 18, 19, 20, 21, 22, 23, 24, 25, 26, 27, 28, 29, 30, 31, 32, 33, 34, 35, 36, 37, 38, 39, 40, 41, 42, 43, 44, 45, 46, 47, 48, 49, 50, 51, 52, 53, 54, 55, 56, 57, 58, 59, 60, 61, 62, 63, 64, 65, 66, 67, 68, 69, 70, 71, 72, 73, 74, 75, 76, 77, 78, 79, 80, 81, 82, 83, 84, 85, 86, 87, 88, 89, 90, 91, 92, 93, 94, 95, 96, 97, 98, 99, 100, 101, 102, 103, 104, 105, 106, 107, 108, 109, 110, 111, 112, 113, 114, 115, 116, 117, 118, 119, 120, 121, 122, 123, 124, 125, 126, 127, 128, 129, 130, 131, 132, 133, 134, 135, 136, 137, 138, 139],
      "LargestImagePixelValue": [38390, 37084, 36864, 36754, 37080, 36500, 37155, 36008, 36084, 36022, 37019, 35946, 36305, 35855, 35397, 36310, 35737, 35636, 35767, 36287, 35597, 35747, 35648, 35719, 35598, 35968, 37410, 36201, 35522, 35563, 36008, 35992, 36522, 36083, 35798, 35789, 36640, 35588, 35471, 35892, 35707, 36069, 35744, 35899, 36109, 35701, 35953, 35796, 36716, 36427, 36392, 36323, 36288, 36341, 35846, 36134, 35949, 35333, 36039, 36049, 36349, 35365, 34794, 35072, 35404, 36258, 36707, 35694, 36084, 35970, 35855, 36718, 35354, 36455, 36177, 37038, 35992, 37276, 35758, 35600, 35567, 35737, 35998, 35688, 36447, 35942, 35411, 35773, 36243, 35695, 35501, 35852, 35808, 36550, 37075, 36677, 35934, 37564, 36257, 37343, 35433, 34614, 35525, 35669, 40492, 37895, 35476, 37217, 37956, 36413, 36651, 36444, 35895, 35061, 36285, 36233, 36581, 37123, 35695, 36584, 36747, 39087, 37807, 36449, 36151, 36306, 35710, 36084, 36069, 36300, 37198, 36330, 35880, 35719, 36205, 36515, 36321, 36468, 36196],
      "WindowCenter": [10113.0, 10091.0, 10112.0, 10080.0, 10132.0, 10114.0, 10152.0, 10106.0, 10127.0, 10116.0, 10130.0, 10122.0, 10124.0, 10113.0, 10094.0, 10103.0, 10049.0, 10018.0, 10049.0, 10093.0, 10080.0, 10086.0, 10064.0, 10074.0, 10059.0, 10058.0, 10064.0, 10040.0, 9997.0, 10041.0, 10056.0, 10063.0, 10078.0, 10054.0, 10038.0, 10028.0, 10084.0, 10062.0, 10094.0, 10047.0, 10082.0, 10123.0, 10132.0, 10124.0, 10138.0, 10113.0, 10097.0, 10091.0, 10103.0, 10098.0, 10057.0, 10075.0, 10078.0, 10085.0, 10051.0, 10058.0, 10071.0, 10064.0, 10117.0, 10134.0, 10137.0, 10074.0, 10081.0, 10091.0, 10099.0, 10135.0, 10181.0, 10072.0, 10121.0, 10106.0, 10128.0, 10081.0, 10077.0, 10132.0, 10096.0, 10099.0, 10075.0, 10123.0, 10052.0, 10066.0, 10061.0, 10051.0, 10030.0, 10029.0, 10105.0, 10073.0, 10067.0, 10124.0, 10103.0, 10068.0, 10050.0, 10080.0, 10094.0, 10119.0, 10154.0, 10093.0, 10084.0, 10142.0, 10150.0, 10297.0, 10040.0, 9990.0, 10088.0, 10049.0, 10390.0, 10187.0, 10076.0, 10263.0, 10323.0, 10209.0, 10178.0, 10194.0, 10057.0, 10070.0, 10126.0, 10134.0, 10152.0, 10131.0, 10064.0, 10191.0, 10214.0, 10359.0, 10218.0, 10140.0, 10169.0, 10204.0, 10142.0, 10162.0, 10165.0, 10171.0, 10294.0, 10172.0, 10164.0, 10146.0, 10142.0, 10176.0, 10196.0, 10180.0, 10164.0],
      "WindowWidth": [21487.0, 21413.0, 21456.0, 21378.0, 21493.0, 21451.0, 21532.0, 21428.0, 21475.0, 21460.0, 21480.0, 21466.0, 21470.0, 21443.0, 21400.0, 21422.0, 21302.0, 21230.0, 21300.0, 21400.0, 21371.0, 21383.0, 21333.0, 21358.0, 21326.0, 21325.0, 21331.0, 21283.0, 21182.0, 21281.0, 21313.0, 21333.0, 21363.0, 21310.0, 21278.0, 21255.0, 21380.0, 21331.0, 21409.0, 21295.0, 21379.0, 21474.0, 21494.0, 21474.0, 21505.0, 21443.0, 21405.0, 21391.0, 21421.0, 21415.0, 21315.0, 21354.0, 21366.0, 21380.0, 21302.0, 21315.0, 21352.0, 21338.0, 21463.0, 21505.0, 21506.0, 21357.0, 21373.0, 21396.0, 21414.0, 21503.0, 21610.0, 21352.0, 21463.0, 21430.0, 21481.0, 21362.0, 21365.0, 21489.0, 21406.0, 21410.0, 21350.0, 21460.0, 21296.0, 21331.0, 21324.0, 21301.0, 21252.0, 21251.0, 21427.0, 21357.0, 21339.0, 21475.0, 21421.0, 21340.0, 21299.0, 21369.0, 21402.0, 21456.0, 21540.0, 21395.0, 21379.0, 21515.0, 21535.0, 21887.0, 21280.0, 21151.0, 21384.0, 21296.0, 22097.0, 21628.0, 21355.0, 21790.0, 21933.0, 21667.0, 21590.0, 21632.0, 21299.0, 21333.0, 21467.0, 21491.0, 21535.0, 21485.0, 21328.0, 21628.0, 21681.0, 22025.0, 21690.0, 21510.0, 21570.0, 21655.0, 21501.0, 21548.0, 21557.0, 21575.0, 21872.0, 21576.0, 21560.0, 21515.0, 21502.0, 21585.0, 21637.0, 21598.0, 21559.0]
    },
    "slices": {}
  }
}