{
  "AcquisitionMatrixPE": 104,
  "AcquisitionNumber": 1,
  "AcquisitionTime": "17:12:54.130000",
  "BandwidthPerPixelPhaseEncode": 17.17,
  "BaseResolution": 104,
  "BodyPartExamined": "BRAIN",
  "CoilCombinationMethod": "Sum of Squares",
  "ConsistencyInfo": "N4_VE11C_LATEST_20160120",
  "ConversionSoftware": "dcm2niix",
  "ConversionSoftwareVersion": "v1.0.20211006",
  "DerivedVendorReportedEchoSpacing": 0.000560011,
  "DeviceSerialNumber": "167006",
  "DwellTime": 2.1e-06,
  "EchoTime": 0.037,
  "EchoTime1": 0.037,
  "EchoTime2": 0.001,
  "EchoTrainLength": 104,
  "EffectiveEchoSpacing": 0.000560011,
  "FlipAngle": 52,
  "HeudiconvVersion": "0.10.0",
  "ImageComments": "Unaliased MB4/PE3/LB",
  "ImageOrientationPatientDICOM": [0.999812, -0.0176943, 0.00788655, 0.019372, 0.915563, -0.401707],
  "ImageOrientationText": "Tra>Cor(-23.7)>Sag(0.0)",
  "ImageType": [
    "ORIGINAL",
    "PRIMARY",
    "P",
    "MB",
    "ND",
    "MOSAIC",
    "PHASE"
],
  "ImagingFrequency": 123.259,
  "InPlanePhaseEncodingDirectionDICOM": "COL",
  "InstitutionAddress": "Chemin Queen-Mary 4565,Montreal,District,CA,H3W 1W5",
  "InstitutionName": "IUGM",
  "InstitutionalDepartmentName": "Department",
  "MRAcquisitionType": "2D",
  "MagneticFieldStrength": 3,
  "Manufacturer": "Siemens",
  "ManufacturersModelName": "Prisma_fit",
  "MatrixCoilMode": "SENSE",
  "Modality": "MR",
  "MultibandAccelerationFactor": 4,
  "PartialFourier": 1,
  "PatientPosition": "HFS",
  "PercentPhaseFOV": 100,
  "PercentSampling": 100,
  "PhaseEncodingDirection": "j",
  "PhaseEncodingSteps": 104,
  "PhaseResolution": 1,
  "PixelBandwidth": 2290,
  "ProcedureStepDescription": "games^mario",
  "ProtocolName": "func_task-mario_run-04",
  "PulseSequenceDetails": "%CustomerSeq%\\cmrr_mbep2d_bold",
  "ReceiveCoilActiveElements": "HC1-7;NC1,2",
  "ReceiveCoilName": "HeadNeck_64",
  "ReconMatrixPE": 104,
  "RepetitionTime": 1.49,
  "SAR": 0.0507666,
  "ScanOptions": "FS",
  "ScanningSequence": "EP",
  "SequenceName": "epfid2d1_104",
  "SequenceVariant": "SK\\SS",
  "SeriesDescription": "func_task-mario_run-04",
  "SeriesNumber": 20,
  "ShimSetting": [607, -7252, -8837, 384, -18, -342, 46, 15],
  "SliceThickness": 2,
  "SliceTiming": [0, 0.785, 0.0975, 0.8825, 0.195, 0.98, 0.295, 1.0775, 0.3925, 1.175, 0.49, 1.275, 0.5875, 1.3725, 0.685, 0, 0.785, 0.0975, 0.8825, 0.195, 0.98, 0.295, 1.0775, 0.3925, 1.175, 0.49, 1.275, 0.5875, 1.3725, 0.685, 0, 0.785, 0.0975, 0.8825, 0.195, 0.98, 0.295, 1.0775, 0.3925, 1.175, 0.49, 1.275, 0.5875, 1.3725, 0.685, 0, 0.785, 0.0975, 0.8825, 0.195, 0.98, 0.295, 1.0775, 0.3925, 1.175, 0.49, 1.275, 0.5875, 1.3725, 0.685],
  "SoftwareVersions": "syngo MR E11",
  "SpacingBetweenSlices": 2,
  "StationName": "MRC35049",
  "TaskName": "mario",
  "TotalReadoutTime": 0.0576811,
  "TxRefAmp": 269.125,
  "WipMemBlock": "96e046db-b8e6-4edc-9a12-f5b652a0bc65||Sequence: R016 ve11c/master r/e634e98; Dec 19 2017 11:00:25 by eja",
  "dcmmeta_affine": [
    [-1.9996247291564941, 0.03874397277832031, 0.00022539535711985081, 102.0731201171875],
    [0.03538863733410835, 1.83112633228302, -0.8035693764686584, -60.56233215332031],
    [0.015773098915815353, 0.8034146428108215, 1.8314683437347412, -69.34324645996094],
    [0.0, 0.0, 0.0, 1.0]
],
  "dcmmeta_reorient_transform": [
    [0.0, -1.0, 0.0, 103.0],
    [1.0, 0.0, 0.0, 0.0],
    [0.0, 0.0, 1.0, 0.0],
    [0.0, 0.0, 0.0, 1.0]
],
  "dcmmeta_shape": [104, 104, 60, 438],
  "dcmmeta_slice_dim": 2,
  "dcmmeta_version": 0.6,
  "global": {
    "const": {
      "AcquisitionMatrix": [104, 0, 0, 104],
      "AngioFlag": "N",
      "BitsAllocated": 16,
      "BitsStored": 16,
      "BodyPartExamined": "BRAIN",
      "Columns": 832,
      "EchoNumbers": 1,
      "EchoTime": 37.0,
      "EchoTrainLength": 104,
      "FlipAngle": 52.0,
      "HighBit": 15,
      "ImageOrientationPatient": [0.99981233911697, -0.0176943178868, 0.00788654956105, 0.01937198618347, 0.91556319479402, -0.4017073094803],
      "ImagePositionPatient": [-848.02993438982, -781.69222693687, 300.10997164853],
      "ImageType": [
        "ORIGINAL",
        "PRIMARY",
        "P",
        "MB",
        "ND",
        "MOSAIC"
],
      "ImagedNucleus": "1H",
      "ImagingFrequency": 123.258839,
      "InPlanePhaseEncodingDirection": "COL",
      "LargestImagePixelValue": 4095,
      "MRAcquisitionType": "2D",
      "MagneticFieldStrength": 3.0,
      "Manufacturer": "SIEMENS",
      "ManufacturerModelName": "Prisma_fit",
      "Modality": "MR",
      "NumberOfAverages": 1.0,
      "NumberOfPhaseEncodingSteps": 104,
      "PercentPhaseFieldOfView": 100.0,
      "PercentSampling": 100.0,
      "PerformedProcedureStepStartTime": "160641.834000",
      "PhotometricInterpretation": "MONOCHROME2",
      "PixelBandwidth": 2290.0,
      "PixelRepresentation": 0,
      "PixelSpacing": [2.0, 2.0],
      "ProtocolName": "func_task-mario_run-04",
      "RepetitionTime": 1490.0,
      "RescaleIntercept": -4096.0,
      "RescaleSlope": 2.0,
      "RescaleType": "US",
      "Rows": 832,
      "SAR": 0.05076664531333,
      "SamplesPerPixel": 1,
      "ScanOptions": "FS",
      "ScanningSequence": "EP",
      "SequenceName": "epfid2d1_104",
      "SequenceVariant": [
        "SK",
        "SS"
],
      "SeriesDescription": "func_task-mario_run-04",
      "SeriesNumber": 20,
      "SeriesTime": "171354.095000",
      "SliceLocation": -39.155457283984,
      "SliceThickness": 2.0,
      "SmallestImagePixelValue": 0,
      "SoftwareVersions": "syngo MR E11",
      "SpacingBetweenSlices": 1.9999999791012,
      "SpecificCharacterSet": "ISO_IR 100",
      "StudyID": "1",
      "StudyTime": "160641.755000",
      "TransmitCoilName": "Body",
      "VariableFlipAngleFlag": "N",
      "WindowCenterWidthExplanation": "Algo1",
      "dBdt": 0.0},
    "slices": {}
  },
  "time": {
    "samples": {
      "AcquisitionNumber": [1, 2, 3, 4, 5, 6, 7, 8, 9, 10, 11, 12, 13, 14, 15, 16, 17, 18, 19, 20, 21, 22, 23, 24, 25, 26, 27, 28, 29, 30, 31, 32, 33, 34, 35, 36, 37, 38, 39, 40, 41, 42, 43, 44, 45, 46, 47, 48, 49, 50, 51, 52, 53, 54, 55, 56, 57, 58, 59, 60, 61, 62, 63, 64, 65, 66, 67, 68, 69, 70, 71, 72, 73, 74, 75, 76, 77, 78, 79, 80, 81, 82, 83, 84, 85, 86, 87, 88, 89, 90, 91, 92, 93, 94, 95, 96, 97, 98, 99, 100, 101, 102, 103, 104, 105, 106, 107, 108, 109, 110, 111, 112, 113, 114, 115, 116, 117, 118, 119, 120, 121, 122, 123, 124, 125, 126, 127, 128, 129, 130, 131, 132, 133, 134, 135, 136, 137, 138, 139, 140, 141, 142, 143, 144, 145, 146, 147, 148, 149, 150, 151, 152, 153, 154, 155, 156, 157, 158, 159, 160, 161, 162, 163, 164, 165, 166, 167, 168, 169, 170, 171, 172, 173, 174, 175, 176, 177, 178, 179, 180, 181, 182, 183, 184, 185, 186, 187, 188, 189, 190, 191, 192, 193, 194, 195, 196, 197, 198, 199, 200, 201, 202, 203, 204, 205, 206, 207, 208, 209, 210, 211, 212, 213, 214, 215, 216, 217, 218, 219, 220, 221, 222, 223, 224, 225, 226, 227, 228, 229, 230, 231, 232, 233, 234, 235, 236, 237, 238, 239, 240, 241, 242, 243, 244, 245, 246, 247, 248, 249, 250, 251, 252, 253, 254, 255, 256, 257, 258, 259, 260, 261, 262, 263, 264, 265, 266, 267, 268, 269, 270, 271, 272, 273, 274, 275, 276, 277, 278, 279, 280, 281, 282, 283, 284, 285, 286, 287, 288, 289, 290, 291, 292, 293, 294, 295, 296, 297, 298, 299, 300, 301, 302, 303, 304, 305, 306, 307, 308, 309, 310, 311, 312, 313, 314, 315, 316, 317, 318, 319, 320, 321, 322, 323, 324, 325, 326, 327, 328, 329, 330, 331, 332, 333, 334, 335, 336, 337, 338, 339, 340, 341, 342, 343, 344, 345, 346, 347, 348, 349, 350, 351, 352, 353, 354, 355, 356, 357, 358, 359, 360, 361, 362, 363, 364, 365, 366, 367, 368, 369, 370, 371, 372, 373, 374, 375, 376, 377, 378, 379, 380, 381, 382, 383, 384, 385, 386, 387, 388, 389, 390, 391, 392, 393, 394, 395, 396, 397, 398, 399, 400, 401, 402, 403, 404, 405, 406, 407, 408, 409, 410, 411, 412, 413, 414, 415, 416, 417, 418, 419, 420, 421, 422, 423, 424, 425, 426, 427, 428, 429, 430, 431, 432, 433, 434, 435, 436, 437, 438],
      "AcquisitionTime": ["171254.130000", "171255.620000", "171257.110000", "171258.600000", "171300.090000", "171301.580000", "171303.070000", "171304.560000", "171306.050000", "171307.540000", "171309.030000", "171310.520000", "171312.010000", "171313.500000", "171314.990000", "171316.480000", "171317.970000", "171319.460000", "171320.950000", "171322.440000", "171323.930000", "171325.420000", "171326.910000", "171328.400000", "171329.890000", "171331.380000", "171332.870000", "171334.360000", "171335.850000", "171337.340000", "171338.830000", "171340.320000", "171341.810000", "171343.300000", "171344.790000", "171346.280000", "171347.770000", "171349.260000", "171350.750000", "171352.240000", "171353.730000", "171355.220000", "171356.710000", "171358.200000", "171359.690000", "171401.180000", "171402.670000", "171404.160000", "171405.650000", "171407.140000", "171408.630000", "171410.120000", "171411.610000", "171413.100000", "171414.590000", "171416.080000", "171417.570000", "171419.060000", "171420.550000", "171422.040000", "171423.530000", "171425.020000", "171426.510000", "171428.000000", "171429.490000", "171430.980000", "171432.470000", "171433.960000", "171435.450000", "171436.940000", "171438.430000", "171439.920000", "171441.410000", "171442.900000", "171444.390000", "171445.880000", "171447.370000", "171448.860000", "171450.350000", "171451.840000", "171453.330000", "171454.820000", "171456.310000", "171457.800000", "171459.290000", "171500.780000", "171502.270000", "171503.760000", "171505.250000", "171506.740000", "171508.230000", "171509.720000", "171511.210000", "171512.700000", "171514.190000", "171515.680000", "171517.170000", "171518.660000", "171520.150000", "171521.640000", "171523.130000", "171524.620000", "171526.110000", "171527.600000", "171529.090000", "171530.580000", "171532.070000", "171533.560000", "171535.050000", "171536.540000", "171538.030000", "171539.520000", "171541.010000", "171542.500000", "171543.990000", "171545.480000", "171546.970000", "171548.460000", "171549.950000", "171551.440000", "171552.930000", "171554.420000", "171555.910000", "171557.400000", "171558.890000", "171600.380000", "171601.870000", "171603.360000", "171604.850000", "171606.340000", "171607.830000", "171609.320000", "171610.810000", "171612.300000", "171613.790000", "171615.280000", "171616.770000", "171618.260000", "171619.750000", "171621.240000", "171622.730000", "171624.220000", "171625.710000", "171627.200000", "171628.690000", "171630.180000", "171631.670000", "171633.160000", "171634.650000", "171636.140000", "171637.630000", "171639.120000", "171640.610000", "171642.100000", "171643.590000", "171645.080000", "171646.570000", "171648.060000", "171649.550000", "171651.040000", "171652.530000", "171654.020000", "171655.510000", "171657.000000", "171658.490000", "171659.980000", "171701.470000", "171702.960000", "171704.450000", "171705.940000", "171707.430000", "171708.920000", "171710.410000", "171711.900000", "171713.390000", "171714.880000", "171716.370000", "171717.860000", "171719.350000", "171720.840000", "171722.330000", "171723.820000", "171725.310000", "171726.800000", "171728.290000", "171729.780000", "171731.270000", "171732.760000", "171734.250000", "171735.740000", "171737.230000", "171738.720000", "171740.210000", "171741.700000", "171743.190000", "171744.680000", "171746.170000", "171747.660000", "171749.150000", "171750.640000", "171752.130000", "171753.620000", "171755.110000", "171756.600000", "171758.090000", "171759.580000", "171801.070000", "171802.560000", "171804.050000", "171805.540000", "171807.030000", "171808.520000", "171810.010000", "171811.500000", "171812.990000", "171814.480000", "171815.970000", "171817.460000", "171818.950000", "171820.440000", "171821.930000", "171823.420000", "171824.910000", "171826.400000", "171827.890000", "171829.380000", "171830.870000", "171832.360000", "171833.850000", "171835.340000", "171836.830000", "171838.320000", "171839.810000", "171841.300000", "171842.790000", "171844.280000", "171845.770000", "171847.260000", "171848.750000", "171850.240000", "171851.730000", "171853.220000", "171854.710000", "171856.200000", "171857.690000", "171859.180000", "171900.670000", "171902.160000", "171903.650000", "171905.140000", "171906.630000", "171908.120000", "171909.610000", "171911.100000", "171912.590000", "171914.080000", "171915.570000", "171917.060000", "171918.550000", "171920.040000", "171921.530000", "171923.020000", "171924.510000", "171926.000000", "171927.490000", "171928.980000", "171930.470000", "171931.960000", "171933.450000", "171934.940000", "171936.430000", "171937.920000", "171939.410000", "171940.900000", "171942.390000", "171943.880000", "171945.370000", "171946.860000", "171948.350000", "171949.840000", "171951.330000", "171952.820000", "171954.310000", "171955.800000", "171957.290000", "171958.780000", "172000.270000", "172001.760000", "172003.250000", "172004.740000", "172006.230000", "172007.720000", "172009.210000", "172010.700000", "172012.190000", "172013.680000", "172015.170000", "172016.660000", "172018.150000", "172019.640000", "172021.130000", "172022.620000", "172024.110000", "172025.600000", "172027.090000", "172028.580000", "172030.070000", "172031.560000", "172033.050000", "172034.540000", "172036.030000", "172037.520000", "172039.010000", "172040.500000", "172041.990000", "172043.480000", "172044.970000", "172046.460000", "172047.950000", "172049.440000", "172050.930000", "172052.420000", "172053.910000", "172055.400000", "172056.890000", "172058.380000", "172059.870000", "172101.360000", "172102.850000", "172104.340000", "172105.830000", "172107.320000", "172108.810000", "172110.300000", "172111.790000", "172113.280000", "172114.770000", "172116.260000", "172117.750000", "172119.240000", "172120.730000", "172122.220000", "172123.710000", "172125.200000", "172126.690000", "172128.180000", "172129.670000", "172131.160000", "172132.650000", "172134.140000", "172135.630000", "172137.120000", "172138.610000", "172140.100000", "172141.590000", "172143.080000", "172144.570000", "172146.060000", "172147.550000", "172149.040000", "172150.530000", "172152.020000", "172153.510000", "172155.000000", "172156.490000", "172157.980000", "172159.470000", "172200.960000", "172202.450000", "172203.940000", "172205.430000", "172206.920000", "172208.410000", "172209.900000", "172211.390000", "172212.880000", "172214.370000", "172215.860000", "172217.350000", "172218.840000", "172220.330000", "172221.820000", "172223.310000", "172224.800000", "172226.290000", "172227.780000", "172229.270000", "172230.760000", "172232.250000", "172233.740000", "172235.230000", "172236.720000", "172238.210000", "172239.700000", "172241.190000", "172242.680000", "172244.170000", "172245.660000", "172247.150000", "172248.640000", "172250.130000", "172251.620000", "172253.110000", "172254.600000", "172256.090000", "172257.580000", "172259.070000", "172300.560000", "172302.050000", "172303.540000", "172305.030000", "172306.520000", "172308.010000", "172309.500000", "172310.990000", "172312.480000", "172313.970000", "172315.460000", "172316.950000", "172318.440000", "172319.930000", "172321.420000", "172322.910000", "172324.400000", "172325.890000", "172327.380000", "172328.870000", "172330.360000", "172331.850000", "172333.340000", "172334.830000", "172336.320000", "172337.810000", "172339.300000", "172340.790000", "172342.280000", "172343.770000", "172345.260000"],
      "ContentTime": ["171354.097000", "171354.100000", "171354.103000", "171354.105000", "171354.108000", "171354.110000", "171354.114000", "171414.456000", "171414.458000", "171414.461000", "171414.463000", "171414.466000", "171414.468000", "171414.471000", "171414.474000", "171414.476000", "171414.479000", "171414.481000", "171414.483000", "171414.486000", "171414.488000", "171414.495000", "171414.497000", "171414.500000", "171414.502000", "171414.505000", "171414.507000", "171434.112000", "171434.115000", "171434.117000", "171434.120000", "171434.122000", "171434.125000", "171434.127000", "171434.130000", "171434.133000", "171434.135000", "171434.137000", "171434.140000", "171434.143000", "171434.145000", "171434.148000", "171434.151000", "171434.153000", "171434.156000", "171434.158000", "171434.165000", "171454.111000", "171454.114000", "171454.117000", "171454.119000", "171454.122000", "171454.124000", "171454.127000", "171454.129000", "171454.132000", "171454.134000", "171454.137000", "171454.139000", "171454.142000", "171454.144000", "171454.147000", "171454.149000", "171454.152000", "171454.154000", "171454.157000", "171454.160000", "171454.162000", "171514.127000", "171514.130000", "171514.133000", "171514.135000", "171514.138000", "171514.140000", "171514.143000", "171514.145000", "171514.148000", "171514.150000", "171514.153000", "171514.155000", "171514.158000", "171514.160000", "171514.163000", "171514.165000", "171514.168000", "171514.170000", "171514.173000", "171514.175000", "171554.153000", "171554.156000", "171554.158000", "171554.161000", "171554.163000", "171554.166000", "171554.168000", "171554.171000", "171554.174000", "171554.176000", "171554.179000", "171554.181000", "171554.184000", "171554.186000", "171554.189000", "171554.192000", "171554.194000", "171554.197000", "171554.199000", "171554.202000", "171554.204000", "171554.207000", "171554.210000", "171554.223000", "171554.226000", "171554.228000", "171554.231000", "171554.233000", "171554.236000", "171554.238000", "171554.241000", "171554.243000", "171634.144000", "171634.147000", "171634.149000", "171634.152000", "171634.154000", "171634.157000", "171634.160000", "171634.162000", "171634.165000", "171634.167000", "171634.170000", "171634.172000", "171634.175000", "171634.178000", "171634.180000", "171634.183000", "171634.185000", "171634.188000", "171634.190000", "171634.193000", "171634.195000", "171634.198000", "171634.200000", "171634.203000", "171634.206000", "171634.208000", "171634.211000", "171714.145000", "171714.148000", "171714.151000", "171714.153000", "171714.156000", "171714.158000", "171714.161000", "171714.163000", "171714.166000", "171714.177000", "171714.179000", "171714.182000", "171714.184000", "171714.187000", "171714.190000", "171714.192000", "171714.195000", "171714.197000", "171714.200000", "171714.202000", "171714.205000", "171714.207000", "171714.210000", "171714.212000", "171714.215000", "171714.217000", "171714.220000", "171754.124000", "171754.127000", "171754.130000", "171754.132000", "171754.135000", "171754.137000", "171754.140000", "171754.142000", "171754.145000", "171754.147000", "171754.150000", "171754.153000", "171754.155000", "171754.158000", "171754.160000", "171754.163000", "171754.165000", "171754.168000", "171754.170000", "171754.173000", "171754.175000", "171754.178000", "171754.180000", "171754.183000", "171754.185000", "171754.188000", "171754.190000", "171834.139000", "171834.141000", "171834.144000", "171834.146000", "171834.156000", "171834.158000", "171834.161000", "171834.163000", "171834.166000", "171834.169000", "171834.171000", "171834.174000", "171834.176000", "171834.179000", "171834.181000", "171834.184000", "171834.186000", "171834.189000", "171834.191000", "171834.194000", "171834.197000", "171834.199000", "171834.202000", "171834.204000", "171834.207000", "171834.209000", "171914.151000", "171914.154000", "171914.156000", "171914.159000", "171914.161000", "171914.164000", "171914.167000", "171914.169000", "171914.172000", "171914.174000", "171914.177000", "171914.180000", "171914.182000", "171914.185000", "171914.187000", "171914.190000", "171914.193000", "171914.195000", "171914.198000", "171914.200000", "171914.203000", "171914.205000", "171914.208000", "171914.211000", "171914.213000", "171914.216000", "171914.219000", "171954.136000", "171954.138000", "171954.141000", "171954.143000", "171954.146000", "171954.149000", "171954.151000", "171954.154000", "171954.156000", "171954.159000", "171954.161000", "171954.164000", "171954.166000", "171954.169000", "171954.172000", "171954.174000", "171954.177000", "171954.179000", "171954.182000", "171954.184000", "171954.187000", "171954.189000", "171954.192000", "171954.194000", "171954.197000", "171954.199000", "171954.202000", "172034.132000", "172034.135000", "172034.137000", "172034.140000", "172034.143000", "172034.145000", "172034.148000", "172034.150000", "172034.153000", "172034.155000", "172034.158000", "172034.160000", "172034.163000", "172034.165000", "172034.168000", "172034.170000", "172034.173000", "172034.175000", "172034.178000", "172034.180000", "172034.183000", "172034.186000", "172034.188000", "172034.191000", "172034.193000", "172034.196000", "172034.198000", "172114.135000", "172114.138000", "172114.140000", "172114.143000", "172114.145000", "172114.148000", "172114.150000", "172114.153000", "172114.155000", "172114.158000", "172114.161000", "172114.163000", "172114.166000", "172114.168000", "172114.171000", "172114.173000", "172114.176000", "172114.178000", "172114.181000", "172114.183000", "172114.186000", "172114.189000", "172114.191000", "172114.194000", "172114.196000", "172114.199000", "172114.201000", "172154.137000", "172154.140000", "172154.143000", "172154.145000", "172154.148000", "172154.150000", "172154.153000", "172154.155000", "172154.158000", "172154.160000", "172154.163000", "172154.165000", "172154.168000", "172154.170000", "172154.173000", "172154.175000", "172154.178000", "172154.180000", "172154.183000", "172154.185000", "172154.188000", "172154.190000", "172154.193000", "172154.195000", "172154.198000", "172154.201000", "172154.203000", "172234.140000", "172234.142000", "172234.145000", "172234.148000", "172234.150000", "172234.153000", "172234.155000", "172234.158000", "172234.160000", "172234.163000", "172234.165000", "172234.168000", "172234.170000", "172234.173000", "172234.176000", "172234.178000", "172234.181000", "172234.183000", "172234.186000", "172234.188000", "172234.191000", "172234.193000", "172234.196000", "172234.198000", "172234.201000", "172234.203000", "172234.206000", "172314.149000", "172314.152000", "172314.154000", "172314.157000", "172314.159000", "172314.162000", "172314.164000", "172314.167000", "172314.169000", "172314.172000", "172314.175000", "172314.177000", "172314.180000", "172314.182000", "172314.185000", "172314.187000", "172314.190000", "172314.193000", "172314.195000", "172314.198000", "172314.200000", "172314.203000", "172314.205000", "172314.208000", "172314.210000", "172314.213000", "172334.102000", "172334.104000", "172334.107000", "172334.109000", "172334.112000", "172334.114000", "172334.117000", "172334.119000", "172334.122000", "172334.125000", "172334.127000", "172334.130000", "172334.132000", "172334.135000", "172348.073000", "172348.076000", "172348.079000", "172348.082000", "172348.085000", "172348.088000", "172348.090000", "172348.093000", "172348.095000"],
