{
  "AcquisitionMatrixPE": 104,
  "AcquisitionNumber": 1,
  "AcquisitionTime": "17:12:54.130000",
  "BandwidthPerPixelPhaseEncode": 17.17,
  "BaseResolution": 104,
  "BodyPartExamined": "BRAIN",
  "CoilCombinationMethod": "Sum of Squares",
  "ConsistencyInfo": "N4_VE11C_LATEST_20160120",
  "ConversionSoftware": "dcm2niix",
  "ConversionSoftwareVersion": "v1.0.20211006",
  "DerivedVendorReportedEchoSpacing": 0.000560011,
  "DeviceSerialNumber": "167006",
  "DwellTime": 2.1e-06,
  "EchoTime": 0.037,
  "EchoTrainLength": 104,
  "EffectiveEchoSpacing": 0.000560011,
  "FlipAngle": 52,
  "HeudiconvVersion": "0.10.0",
  "ImageComments": "Unaliased MB4/PE3/LB",
  "ImageOrientationPatientDICOM": [0.999812, -0.0176943, 0.00788655, 0.019372, 0.915563, -0.401707],
  "ImageOrientationText": "Tra>Cor(-23.7)>Sag(0.0)",
  "ImageType": [
    "ORIGINAL",
    "PRIMARY",
    "M",
    "MB",
    "ND",
    "MOSAIC"
],
  "ImagingFrequency": 123.259,
  "InPlanePhaseEncodingDirectionDICOM": "COL",
  "InstitutionAddress": "Chemin Queen-Mary 4565,Montreal,District,CA,H3W 1W5",
  "InstitutionName": "IUGM",
  "InstitutionalDepartmentName": "Department",
  "MRAcquisitionType": "2D",
  "MagneticFieldStrength": 3,
  "Manufacturer": "Siemens",
  "ManufacturersModelName": "Prisma_fit",
  "MatrixCoilMode": "SENSE",
  "Modality": "MR",
  "MultibandAccelerationFactor": 4,
  "PartialFourier": 1,
  "PatientPosition": "HFS",
  "PercentPhaseFOV": 100,
  "PercentSampling": 100,
  "PhaseEncodingDirection": "j",
  "PhaseEncodingSteps": 104,
  "PhaseResolution": 1,
  "PixelBandwidth": 2290,
  "ProcedureStepDescription": "games^mario",
  "ProtocolName": "func_task-mario_run-04",
  "PulseSequenceDetails": "%CustomerSeq%\\cmrr_mbep2d_bold",
  "ReceiveCoilActiveElements": "HC1-7;NC1,2",
  "ReceiveCoilName": "HeadNeck_64",
  "ReconMatrixPE": 104,
  "RepetitionTime": 1.49,
  "SAR": 0.0507666,
  "ScanOptions": "FS",
  "ScanningSequence": "EP",
  "SequenceName": "epfid2d1_104",
  "SequenceVariant": "SK\\SS",
  "SeriesDescription": "func_task-mario_run-04",
  "SeriesNumber": 19,
  "ShimSetting": [607, -7252, -8837, 384, -18, -342, 46, 15],
  "SliceThickness": 2,
  "SliceTiming": [0, 0.785, 0.0975, 0.8825, 0.195, 0.98, 0.295, 1.0775, 0.3925, 1.175, 0.49, 1.275, 0.5875, 1.3725, 0.685, 0, 0.785, 0.0975, 0.8825, 0.195, 0.98, 0.295, 1.0775, 0.3925, 1.175, 0.49, 1.275, 0.5875, 1.3725, 0.685, 0, 0.785, 0.0975, 0.8825, 0.195, 0.98, 0.295, 1.0775, 0.3925, 1.175, 0.49, 1.275, 0.5875, 1.3725, 0.685, 0, 0.785, 0.0975, 0.8825, 0.195, 0.98, 0.295, 1.0775, 0.3925, 1.175, 0.49, 1.275, 0.5875, 1.3725, 0.685],
  "SoftwareVersions": "syngo MR E11",
  "SpacingBetweenSlices": 2,
  "StationName": "MRC35049",
  "TaskName": "mario",
  "TotalReadoutTime": 0.0576811,
  "TxRefAmp": 269.125,
  "WipMemBlock": "96e046db-b8e6-4edc-9a12-f5b652a0bc65||Sequence: R016 ve11c/master r/e634e98; Dec 19 2017 11:00:25 by eja",
  "dcmmeta_affine": [
    [-1.9996247291564941, 0.03874397277832031, 0.00022539535711985081, 102.0731201171875],
    [0.03538863733410835, 1.83112633228302, -0.8035693764686584, -60.56233215332031],
    [0.015773098915815353, 0.8034146428108215, 1.8314683437347412, -69.34324645996094],
    [0.0, 0.0, 0.0, 1.0]
],
  "dcmmeta_reorient_transform": [
    [0.0, -1.0, 0.0, 103.0],
    [1.0, 0.0, 0.0, 0.0],
    [0.0, 0.0, 1.0, 0.0],
    [0.0, 0.0, 0.0, 1.0]
],
  "dcmmeta_shape": [104, 104, 60, 438],
  "dcmmeta_slice_dim": 2,
  "dcmmeta_version": 0.6,
  "global": {
    "const": {
      "AcquisitionMatrix": [104, 0, 0, 104],
      "AngioFlag": "N",
      "BitsAllocated": 16,
      "BitsStored": 16,
      "BodyPartExamined": "BRAIN",
      "Columns": 832,
      "EchoNumbers": 1,
      "EchoTime": 37.0,
      "EchoTrainLength": 104,
      "FlipAngle": 52.0,
      "HighBit": 15,
      "ImageOrientationPatient": [0.99981233911697, -0.0176943178868, 0.00788654956105, 0.01937198618347, 0.91556319479402, -0.4017073094803],
      "ImagePositionPatient": [-848.02993438982, -781.69222693687, 300.10997164853],
      "ImageType": [
        "ORIGINAL",
        "PRIMARY",
        "M",
        "MB",
        "ND",
        "MOSAIC"
],
      "ImagedNucleus": "1H",
      "ImagingFrequency": 123.258839,
      "InPlanePhaseEncodingDirection": "COL",
      "MRAcquisitionType": "2D",
      "MagneticFieldStrength": 3.0,
      "Manufacturer": "SIEMENS",
      "ManufacturerModelName": "Prisma_fit",
      "Modality": "MR",
      "NumberOfAverages": 1.0,
      "NumberOfPhaseEncodingSteps": 104,
      "PercentPhaseFieldOfView": 100.0,
      "PercentSampling": 100.0,
      "PerformedProcedureStepStartTime": "160641.834000",
      "PhotometricInterpretation": "MONOCHROME2",
      "PixelBandwidth": 2290.0,
      "PixelRepresentation": 0,
      "PixelSpacing": [2.0, 2.0],
      "ProtocolName": "func_task-mario_run-04",
      "RepetitionTime": 1490.0,
      "Rows": 832,
      "SAR": 0.05076664531333,
      "SamplesPerPixel": 1,
      "ScanOptions": "FS",
      "ScanningSequence": "EP",
      "SequenceName": "epfid2d1_104",
      "SequenceVariant": [
        "SK",
        "SS"
],
      "SeriesDescription": "func_task-mario_run-04",
      "SeriesNumber": 19,
      "SeriesTime": "171354.027000",
      "SliceLocation": -39.155457283984,
      "SliceThickness": 2.0,
      "SmallestImagePixelValue": 0,
      "SoftwareVersions": "syngo MR E11",
      "SpacingBetweenSlices": 1.9999999791012,
      "SpecificCharacterSet": "ISO_IR 100",
      "StudyID": "1",
      "StudyTime": "160641.755000",
      "TransmitCoilName": "Body",
      "VariableFlipAngleFlag": "N",
      "WindowCenterWidthExplanation": "Algo1",
      "dBdt": 0.0},
    "slices": {}
  },
  "time": {
    "samples": {
      "AcquisitionNumber": [1, 2, 3, 4, 5, 6, 7, 8, 9, 10, 11, 12, 13, 14, 15, 16, 17, 18, 19, 20, 21, 22, 23, 24, 25, 26, 27, 28, 29, 30, 31, 32, 33, 34, 35, 36, 37, 38, 39, 40, 41, 42, 43, 44, 45, 46, 47, 48, 49, 50, 51, 52, 53, 54, 55, 56, 57, 58, 59, 60, 61, 62, 63, 64, 65, 66, 67, 68, 69, 70, 71, 72, 73, 74, 75, 76, 77, 78, 79, 80, 81, 82, 83, 84, 85, 86, 87, 88, 89, 90, 91, 92, 93, 94, 95, 96, 97, 98, 99, 100, 101, 102, 103, 104, 105, 106, 107, 108, 109, 110, 111, 112, 113, 114, 115, 116, 117, 118, 119, 120, 121, 122, 123, 124, 125, 126, 127, 128, 129, 130, 131, 132, 133, 134, 135, 136, 137, 138, 139, 140, 141, 142, 143, 144, 145, 146, 147, 148, 149, 150, 151, 152, 153, 154, 155, 156, 157, 158, 159, 160, 161, 162, 163, 164, 165, 166, 167, 168, 169, 170, 171, 172, 173, 174, 175, 176, 177, 178, 179, 180, 181, 182, 183, 184, 185, 186, 187, 188, 189, 190, 191, 192, 193, 194, 195, 196, 197, 198, 199, 200, 201, 202, 203, 204, 205, 206, 207, 208, 209, 210, 211, 212, 213, 214, 215, 216, 217, 218, 219, 220, 221, 222, 223, 224, 225, 226, 227, 228, 229, 230, 231, 232, 233, 234, 235, 236, 237, 238, 239, 240, 241, 242, 243, 244, 245, 246, 247, 248, 249, 250, 251, 252, 253, 254, 255, 256, 257, 258, 259, 260, 261, 262, 263, 264, 265, 266, 267, 268, 269, 270, 271, 272, 273, 274, 275, 276, 277, 278, 279, 280, 281, 282, 283, 284, 285, 286, 287, 288, 289, 290, 291, 292, 293, 294, 295, 296, 297, 298, 299, 300, 301, 302, 303, 304, 305, 306, 307, 308, 309, 310, 311, 312, 313, 314, 315, 316, 317, 318, 319, 320, 321, 322, 323, 324, 325, 326, 327, 328, 329, 330, 331, 332, 333, 334, 335, 336, 337, 338, 339, 340, 341, 342, 343, 344, 345, 346, 347, 348, 349, 350, 351, 352, 353, 354, 355, 356, 357, 358, 359, 360, 361, 362, 363, 364, 365, 366, 367, 368, 369, 370, 371, 372, 373, 374, 375, 376, 377, 378, 379, 380, 381, 382, 383, 384, 385, 386, 387, 388, 389, 390, 391, 392, 393, 394, 395, 396, 397, 398, 399, 400, 401, 402, 403, 404, 405, 406, 407, 408, 409, 410, 411, 412, 413, 414, 415, 416, 417, 418, 419, 420, 421, 422, 423, 424, 425, 426, 427, 428, 429, 430, 431, 432, 433, 434, 435, 436, 437, 438],
      "AcquisitionTime": ["171254.130000", "171255.620000", "171257.110000", "171258.600000", "171300.090000", "171301.580000", "171303.070000", "171304.560000", "171306.050000", "171307.540000", "171309.030000", "171310.520000", "171312.010000", "171313.500000", "171314.990000", "171316.480000", "171317.970000", "171319.460000", "171320.950000", "171322.440000", "171323.930000", "171325.420000", "171326.910000", "171328.400000", "171329.890000", "171331.380000", "171332.870000", "171334.360000", "171335.850000", "171337.340000", "171338.830000", "171340.320000", "171341.810000", "171343.300000", "171344.790000", "171346.280000", "171347.770000", "171349.260000", "171350.750000", "171352.240000", "171353.730000", "171355.220000", "171356.710000", "171358.200000", "171359.690000", "171401.180000", "171402.670000", "171404.160000", "171405.650000", "171407.140000", "171408.630000", "171410.120000", "171411.610000", "171413.100000", "171414.590000", "171416.080000", "171417.570000", "171419.060000", "171420.550000", "171422.040000", "171423.530000", "171425.020000", "171426.510000", "171428.000000", "171429.490000", "171430.980000", "171432.470000", "171433.960000", "171435.450000", "171436.940000", "171438.430000", "171439.920000", "171441.410000", "171442.900000", "171444.390000", "171445.880000", "171447.370000", "171448.860000", "171450.350000", "171451.840000", "171453.330000", "171454.820000", "171456.310000", "171457.800000", "171459.290000", "171500.780000", "171502.270000", "171503.760000", "171505.250000", "171506.740000", "171508.230000", "171509.720000", "171511.210000", "171512.700000", "171514.190000", "171515.680000", "171517.170000", "171518.660000", "171520.150000", "171521.640000", "171523.130000", "171524.620000", "171526.110000", "171527.600000", "171529.090000", "171530.580000", "171532.070000", "171533.560000", "171535.050000", "171536.540000", "171538.030000", "171539.520000", "171541.010000", "171542.500000", "171543.990000", "171545.480000", "171546.970000", "171548.460000", "171549.950000", "171551.440000", "171552.930000", "171554.420000", "171555.910000", "171557.400000", "171558.890000", "171600.380000", "171601.870000", "171603.360000", "171604.850000", "171606.340000", "171607.830000", "171609.320000", "171610.810000", "171612.300000", "171613.790000", "171615.280000", "171616.770000", "171618.260000", "171619.750000", "171621.240000", "171622.730000", "171624.220000", "171625.710000", "171627.200000", "171628.690000", "171630.180000", "171631.670000", "171633.160000", "171634.650000", "171636.140000", "171637.630000", "171639.120000", "171640.610000", "171642.100000", "171643.590000", "171645.080000", "171646.570000", "171648.060000", "171649.550000", "171651.040000", "171652.530000", "171654.020000", "171655.510000", "171657.000000", "171658.490000", "171659.980000", "171701.470000", "171702.960000", "171704.450000", "171705.940000", "171707.430000", "171708.920000", "171710.410000", "171711.900000", "171713.390000", "171714.880000", "171716.370000", "171717.860000", "171719.350000", "171720.840000", "171722.330000", "171723.820000", "171725.310000", "171726.800000", "171728.290000", "171729.780000", "171731.270000", "171732.760000", "171734.250000", "171735.740000", "171737.230000", "171738.720000", "171740.210000", "171741.700000", "171743.190000", "171744.680000", "171746.170000", "171747.660000", "171749.150000", "171750.640000", "171752.130000", "171753.620000", "171755.110000", "171756.600000", "171758.090000", "171759.580000", "171801.070000", "171802.560000", "171804.050000", "171805.540000", "171807.030000", "171808.520000", "171810.010000", "171811.500000", "171812.990000", "171814.480000", "171815.970000", "171817.460000", "171818.950000", "171820.440000", "171821.930000", "171823.420000", "171824.910000", "171826.400000", "171827.890000", "171829.380000", "171830.870000", "171832.360000", "171833.850000", "171835.340000", "171836.830000", "171838.320000", "171839.810000", "171841.300000", "171842.790000", "171844.280000", "171845.770000", "171847.260000", "171848.750000", "171850.240000", "171851.730000", "171853.220000", "171854.710000", "171856.200000", "171857.690000", "171859.180000", "171900.670000", "171902.160000", "171903.650000", "171905.140000", "171906.630000", "171908.120000", "171909.610000", "171911.100000", "171912.590000", "171914.080000", "171915.570000", "171917.060000", "171918.550000", "171920.040000", "171921.530000", "171923.020000", "171924.510000", "171926.000000", "171927.490000", "171928.980000", "171930.470000", "171931.960000", "171933.450000", "171934.940000", "171936.430000", "171937.920000", "171939.410000", "171940.900000", "171942.390000", "171943.880000", "171945.370000", "171946.860000", "171948.350000", "171949.840000", "171951.330000", "171952.820000", "171954.310000", "171955.800000", "171957.290000", "171958.780000", "172000.270000", "172001.760000", "172003.250000", "172004.740000", "172006.230000", "172007.720000", "172009.210000", "172010.700000", "172012.190000", "172013.680000", "172015.170000", "172016.660000", "172018.150000", "172019.640000", "172021.130000", "172022.620000", "172024.110000", "172025.600000", "172027.090000", "172028.580000", "172030.070000", "172031.560000", "172033.050000", "172034.540000", "172036.030000", "172037.520000", "172039.010000", "172040.500000", "172041.990000", "172043.480000", "172044.970000", "172046.460000", "172047.950000", "172049.440000", "172050.930000", "172052.420000", "172053.910000", "172055.400000", "172056.890000", "172058.380000", "172059.870000", "172101.360000", "172102.850000", "172104.340000", "172105.830000", "172107.320000", "172108.810000", "172110.300000", "172111.790000", "172113.280000", "172114.770000", "172116.260000", "172117.750000", "172119.240000", "172120.730000", "172122.220000", "172123.710000", "172125.200000", "172126.690000", "172128.180000", "172129.670000", "172131.160000", "172132.650000", "172134.140000", "172135.630000", "172137.120000", "172138.610000", "172140.100000", "172141.590000", "172143.080000", "172144.570000", "172146.060000", "172147.550000", "172149.040000", "172150.530000", "172152.020000", "172153.510000", "172155.000000", "172156.490000", "172157.980000", "172159.470000", "172200.960000", "172202.450000", "172203.940000", "172205.430000", "172206.920000", "172208.410000", "172209.900000", "172211.390000", "172212.880000", "172214.370000", "172215.860000", "172217.350000", "172218.840000", "172220.330000", "172221.820000", "172223.310000", "172224.800000", "172226.290000", "172227.780000", "172229.270000", "172230.760000", "172232.250000", "172233.740000", "172235.230000", "172236.720000", "172238.210000", "172239.700000", "172241.190000", "172242.680000", "172244.170000", "172245.660000", "172247.150000", "172248.640000", "172250.130000", "172251.620000", "172253.110000", "172254.600000", "172256.090000", "172257.580000", "172259.070000", "172300.560000", "172302.050000", "172303.540000", "172305.030000", "172306.520000", "172308.010000", "172309.500000", "172310.990000", "172312.480000", "172313.970000", "172315.460000", "172316.950000", "172318.440000", "172319.930000", "172321.420000", "172322.910000", "172324.400000", "172325.890000", "172327.380000", "172328.870000", "172330.360000", "172331.850000", "172333.340000", "172334.830000", "172336.320000", "172337.810000", "172339.300000", "172340.790000", "172342.280000", "172343.770000", "172345.260000"],
      "ContentTime": ["171354.030000", "171354.034000", "171354.037000", "171354.041000", "171354.044000", "171354.047000", "171354.064000", "171413.994000", "171413.998000", "171414.002000", "171414.013000", "171414.016000", "171414.019000", "171414.023000", "171414.026000", "171414.030000", "171414.033000", "171414.036000", "171414.040000", "171414.043000", "171414.062000", "171414.065000", "171414.068000", "171414.072000", "171414.075000", "171414.078000", "171414.082000", "171433.994000", "171433.998000", "171434.002000", "171434.006000", "171434.009000", "171434.012000", "171434.016000", "171434.019000", "171434.023000", "171434.026000", "171434.029000", "171434.033000", "171434.036000", "171434.040000", "171434.043000", "171434.047000", "171434.050000", "171434.053000", "171434.057000", "171434.060000", "171453.994000", "171453.998000", "171454.004000", "171454.007000", "171454.011000", "171454.014000", "171454.017000", "171454.021000", "171454.024000", "171454.028000", "171454.031000", "171454.034000", "171454.038000", "171454.041000", "171454.045000", "171454.048000", "171454.051000", "171454.056000", "171454.059000", "171454.063000", "171454.066000", "171513.993000", "171513.997000", "171514.001000", "171514.005000", "171514.008000", "171514.012000", "171514.015000", "171514.018000", "171514.022000", "171514.025000", "171514.029000", "171514.032000", "171514.035000", "171514.048000", "171514.051000", "171514.055000", "171514.058000", "171514.062000", "171514.065000", "171514.068000", "171553.993000", "171553.997000", "171554.001000", "171554.005000", "171554.009000", "171554.012000", "171554.016000", "171554.019000", "171554.023000", "171554.026000", "171554.029000", "171554.033000", "171554.036000", "171554.040000", "171554.043000", "171554.047000", "171554.050000", "171554.054000", "171554.057000", "171554.060000", "171554.064000", "171554.067000", "171554.071000", "171554.074000", "171554.077000", "171554.081000", "171554.084000", "171554.087000", "171554.091000", "171554.094000", "171554.098000", "171554.101000", "171633.994000", "171633.998000", "171634.003000", "171634.006000", "171634.010000", "171634.013000", "171634.017000", "171634.020000", "171634.024000", "171634.027000", "171634.030000", "171634.034000", "171634.037000", "171634.041000", "171634.044000", "171634.048000", "171634.051000", "171634.055000", "171634.058000", "171634.061000", "171634.065000", "171634.068000", "171634.072000", "171634.075000", "171634.079000", "171634.082000", "171634.086000", "171713.994000", "171713.998000", "171714.002000", "171714.006000", "171714.009000", "171714.013000", "171714.016000", "171714.020000", "171714.023000", "171714.027000", "171714.030000", "171714.034000", "171714.037000", "171714.040000", "171714.044000", "171714.047000", "171714.051000", "171714.054000", "171714.057000", "171714.061000", "171714.064000", "171714.068000", "171714.071000", "171714.074000", "171714.078000", "171714.081000", "171714.085000", "171753.993000", "171753.997000", "171754.001000", "171754.005000", "171754.009000", "171754.012000", "171754.015000", "171754.019000", "171754.022000", "171754.026000", "171754.029000", "171754.033000", "171754.036000", "171754.040000", "171754.043000", "171754.047000", "171754.050000", "171754.054000", "171754.057000", "171754.061000", "171754.064000", "171754.067000", "171754.071000", "171754.074000", "171754.077000", "171754.081000", "171754.084000", "171833.995000", "171833.998000", "171834.002000", "171834.006000", "171834.009000", "171834.013000", "171834.016000", "171834.019000", "171834.023000", "171834.026000", "171834.030000", "171834.033000", "171834.037000", "171834.040000", "171834.044000", "171834.047000", "171834.050000", "171834.054000", "171834.065000", "171834.069000", "171834.080000", "171834.083000", "171834.087000", "171834.090000", "171834.094000", "171834.097000", "171913.994000", "171914.007000", "171914.011000", "171914.014000", "171914.017000", "171914.021000", "171914.024000", "171914.028000", "171914.031000", "171914.035000", "171914.038000", "171914.042000", "171914.045000", "171914.048000", "171914.052000", "171914.055000", "171914.059000", "171914.062000", "171914.065000", "171914.069000", "171914.072000", "171914.076000", "171914.079000", "171914.083000", "171914.086000", "171914.090000", "171914.093000", "171953.993000", "171953.997000", "171954.002000", "171954.005000", "171954.009000", "171954.012000", "171954.016000", "171954.019000", "171954.023000", "171954.026000", "171954.030000", "171954.033000", "171954.037000", "171954.040000", "171954.044000", "171954.047000", "171954.051000", "171954.054000", "171954.057000", "171954.061000", "171954.064000", "171954.068000", "171954.071000", "171954.074000", "171954.078000", "171954.081000", "171954.085000", "172033.993000", "172033.997000", "172034.001000", "172034.005000", "172034.008000", "172034.012000", "172034.015000", "172034.019000", "172034.022000", "172034.026000", "172034.029000", "172034.032000", "172034.036000", "172034.039000", "172034.043000", "172034.046000", "172034.050000", "172034.053000", "172034.056000", "172034.060000", "172034.063000", "172034.067000", "172034.070000", "172034.073000", "172034.077000", "172034.080000", "172034.083000", "172113.994000", "172113.998000", "172114.002000", "172114.006000", "172114.009000", "172114.013000", "172114.016000", "172114.020000", "172114.023000", "172114.027000", "172114.030000", "172114.033000", "172114.037000", "172114.040000", "172114.044000", "172114.047000", "172114.051000", "172114.054000", "172114.057000", "172114.061000", "172114.064000", "172114.068000", "172114.071000", "172114.075000", "172114.078000", "172114.081000", "172114.085000", "172153.995000", "172153.998000", "172154.003000", "172154.006000", "172154.010000", "172154.014000", "172154.017000", "172154.020000", "172154.024000", "172154.027000", "172154.031000", "172154.034000", "172154.038000", "172154.041000", "172154.044000", "172154.048000", "172154.051000", "172154.055000", "172154.058000", "172154.061000", "172154.065000", "172154.068000", "172154.072000", "172154.075000", "172154.078000", "172154.082000", "172154.085000", "172233.993000", "172233.997000", "172234.001000", "172234.006000", "172234.010000", "172234.013000", "172234.017000", "172234.020000", "172234.024000", "172234.028000", "172234.031000", "172234.034000", "172234.038000", "172234.041000", "172234.045000", "172234.048000", "172234.052000", "172234.055000", "172234.058000", "172234.062000", "172234.065000", "172234.069000", "172234.072000", "172234.075000", "172234.079000", "172234.082000", "172234.086000", "172313.994000", "172313.998000", "172314.001000", "172314.005000", "172314.008000", "172314.012000", "172314.015000", "172314.019000", "172314.022000", "172314.025000", "172314.029000", "172314.032000", "172314.050000", "172314.054000", "172314.058000", "172314.061000", "172314.064000", "172314.068000", "172314.071000", "172314.075000", "172314.078000", "172314.081000", "172314.085000", "172314.088000", "172314.092000", "172314.095000", "172333.995000", "172333.998000", "172334.003000", "172334.006000", "172334.010000", "172334.013000", "172334.016000", "172334.020000", "172334.023000", "172334.027000", "172334.030000", "172334.034000", "172334.037000", "172334.041000", "172348.004000", "172348.010000", "172348.014000", "172348.018000", "172348.022000", "172348.026000", "172348.030000", "172348.033000", "172348.037000"],
