{
  "AcquisitionMatrixPE": 104,
  "AcquisitionNumber": 1,
  "AcquisitionTime": "16:59:4.492500",
  "BandwidthPerPixelPhaseEncode": 17.17,
  "BaseResolution": 104,
  "BodyPartExamined": "BRAIN",
  "CoilCombinationMethod": "Sum of Squares",
  "ConsistencyInfo": "N4_VE11C_LATEST_20160120",
  "ConversionSoftware": "dcm2niix",
  "ConversionSoftwareVersion": "v1.0.20211006",
  "DerivedVendorReportedEchoSpacing": 0.000560011,
  "DeviceSerialNumber": "167006",
  "DwellTime": 2.1e-06,
  "EchoTime": 0.037,
  "EchoTime1": 0.037,
  "EchoTime2": 0.001,
  "EchoTrainLength": 104,
  "EffectiveEchoSpacing": 0.000560011,
  "FlipAngle": 52,
  "HeudiconvVersion": "0.10.0",
  "ImageComments": "Unaliased MB4/PE3/LB",
  "ImageOrientationPatientDICOM": [0.999812, -0.0176943, 0.00788655, 0.019372, 0.915563, -0.401707],
  "ImageOrientationText": "Tra>Cor(-23.7)>Sag(0.0)",
  "ImageType": [
    "ORIGINAL",
    "PRIMARY",
    "P",
    "MB",
    "ND",
    "MOSAIC",
    "PHASE"
],
  "ImagingFrequency": 123.259,
  "InPlanePhaseEncodingDirectionDICOM": "COL",
  "InstitutionAddress": "Chemin Queen-Mary 4565,Montreal,District,CA,H3W 1W5",
  "InstitutionName": "IUGM",
  "InstitutionalDepartmentName": "Department",
  "MRAcquisitionType": "2D",
  "MagneticFieldStrength": 3,
  "Manufacturer": "Siemens",
  "ManufacturersModelName": "Prisma_fit",
  "MatrixCoilMode": "SENSE",
  "Modality": "MR",
  "MultibandAccelerationFactor": 4,
  "PartialFourier": 1,
  "PatientPosition": "HFS",
  "PercentPhaseFOV": 100,
  "PercentSampling": 100,
  "PhaseEncodingDirection": "j",
  "PhaseEncodingSteps": 104,
  "PhaseResolution": 1,
  "PixelBandwidth": 2290,
  "ProcedureStepDescription": "games^mario",
  "ProtocolName": "func_task-mario_run-03",
  "PulseSequenceDetails": "%CustomerSeq%\\cmrr_mbep2d_bold",
  "ReceiveCoilActiveElements": "HC1-7;NC1,2",
  "ReceiveCoilName": "HeadNeck_64",
  "ReconMatrixPE": 104,
  "RepetitionTime": 1.49,
  "SAR": 0.0507666,
  "ScanOptions": "FS",
  "ScanningSequence": "EP",
  "SequenceName": "epfid2d1_104",
  "SequenceVariant": "SK\\SS",
  "SeriesDescription": "func_task-mario_run-03",
  "SeriesNumber": 17,
  "ShimSetting": [607, -7252, -8837, 384, -18, -342, 46, 15],
  "SliceThickness": 2,
  "SliceTiming": [0, 0.785, 0.1, 0.8825, 0.1975, 0.98, 0.295, 1.08, 0.3925, 1.1775, 0.49, 1.275, 0.59, 1.3725, 0.6875, 0, 0.785, 0.1, 0.8825, 0.1975, 0.98, 0.295, 1.08, 0.3925, 1.1775, 0.49, 1.275, 0.59, 1.3725, 0.6875, 0, 0.785, 0.1, 0.8825, 0.1975, 0.98, 0.295, 1.08, 0.3925, 1.1775, 0.49, 1.275, 0.59, 1.3725, 0.6875, 0, 0.785, 0.1, 0.8825, 0.1975, 0.98, 0.295, 1.08, 0.3925, 1.1775, 0.49, 1.275, 0.59, 1.3725, 0.6875],
  "SoftwareVersions": "syngo MR E11",
  "SpacingBetweenSlices": 2,
  "StationName": "MRC35049",
  "TaskName": "mario",
  "TotalReadoutTime": 0.0576811,
  "TxRefAmp": 269.125,
  "WipMemBlock": "acdf94d3-2336-4f4a-8a5b-49d915bd218d||Sequence: R016 ve11c/master r/e634e98; Dec 19 2017 11:00:25 by eja",
  "dcmmeta_affine": [
    [-1.9996247291564941, 0.03874397277832031, 0.00022539535711985081, 102.0731201171875],
    [0.03538863733410835, 1.83112633228302, -0.8035693764686584, -60.56233215332031],
    [0.015773098915815353, 0.8034146428108215, 1.8314683437347412, -69.34324645996094],
    [0.0, 0.0, 0.0, 1.0]
],
  "dcmmeta_reorient_transform": [
    [0.0, -1.0, 0.0, 103.0],
    [1.0, 0.0, 0.0, 0.0],
    [0.0, 0.0, 1.0, 0.0],
    [0.0, 0.0, 0.0, 1.0]
],
  "dcmmeta_shape": [104, 104, 60, 486],
  "dcmmeta_slice_dim": 2,
  "dcmmeta_version": 0.6,
  "global": {
    "const": {
      "AcquisitionMatrix": [104, 0, 0, 104],
      "AngioFlag": "N",
      "BitsAllocated": 16,
      "BitsStored": 16,
      "BodyPartExamined": "BRAIN",
      "Columns": 832,
      "EchoNumbers": 1,
      "EchoTime": 37.0,
      "EchoTrainLength": 104,
      "FlipAngle": 52.0,
      "HighBit": 15,
      "ImageOrientationPatient": [0.99981233911697, -0.0176943178868, 0.00788654956105, 0.01937198618347, 0.91556319479402, -0.4017073094803],
      "ImagePositionPatient": [-848.02993438982, -781.69222693687, 300.10997164853],
      "ImageType": [
        "ORIGINAL",
        "PRIMARY",
        "P",
        "MB",
        "ND",
        "MOSAIC"
],
      "ImagedNucleus": "1H",
      "ImagingFrequency": 123.258831,
      "InPlanePhaseEncodingDirection": "COL",
      "LargestImagePixelValue": 4095,
      "MRAcquisitionType": "2D",
      "MagneticFieldStrength": 3.0,
      "Manufacturer": "SIEMENS",
      "ManufacturerModelName": "Prisma_fit",
      "Modality": "MR",
      "NumberOfAverages": 1.0,
      "NumberOfPhaseEncodingSteps": 104,
      "PercentPhaseFieldOfView": 100.0,
      "PercentSampling": 100.0,
      "PerformedProcedureStepStartTime": "160641.834000",
      "PhotometricInterpretation": "MONOCHROME2",
      "PixelBandwidth": 2290.0,
      "PixelRepresentation": 0,
      "PixelSpacing": [2.0, 2.0],
      "ProtocolName": "func_task-mario_run-03",
      "RepetitionTime": 1490.0,
      "RescaleIntercept": -4096.0,
      "RescaleSlope": 2.0,
      "RescaleType": "US",
      "Rows": 832,
      "SAR": 0.05076664531333,
      "SamplesPerPixel": 1,
      "ScanOptions": "FS",
      "ScanningSequence": "EP",
      "SequenceName": "epfid2d1_104",
      "SequenceVariant": [
        "SK",
        "SS"
],
      "SeriesDescription": "func_task-mario_run-03",
      "SeriesNumber": 17,
      "SeriesTime": "170034.778000",
      "SliceLocation": -39.155457283984,
      "SliceThickness": 2.0,
      "SmallestImagePixelValue": 0,
      "SoftwareVersions": "syngo MR E11",
      "SpacingBetweenSlices": 1.9999999791012,
      "SpecificCharacterSet": "ISO_IR 100",
      "StudyID": "1",
      "StudyTime": "160641.755000",
      "TransmitCoilName": "Body",
      "VariableFlipAngleFlag": "N",
      "WindowCenterWidthExplanation": "Algo1",
      "dBdt": 0.0},
    "slices": {}
  },
  "time": {
    "samples": {
      "AcquisitionNumber": [1, 2, 3, 4, 5, 6, 7, 8, 9, 10, 11, 12, 13, 14, 15, 16, 17, 18, 19, 20, 21, 22, 23, 24, 25, 26, 27, 28, 29, 30, 31, 32, 33, 34, 35, 36, 37, 38, 39, 40, 41, 42, 43, 44, 45, 46, 47, 48, 49, 50, 51, 52, 53, 54, 55, 56, 57, 58, 59, 60, 61, 62, 63, 64, 65, 66, 67, 68, 69, 70, 71, 72, 73, 74, 75, 76, 77, 78, 79, 80, 81, 82, 83, 84, 85, 86, 87, 88, 89, 90, 91, 92, 93, 94, 95, 96, 97, 98, 99, 100, 101, 102, 103, 104, 105, 106, 107, 108, 109, 110, 111, 112, 113, 114, 115, 116, 117, 118, 119, 120, 121, 122, 123, 124, 125, 126, 127, 128, 129, 130, 131, 132, 133, 134, 135, 136, 137, 138, 139, 140, 141, 142, 143, 144, 145, 146, 147, 148, 149, 150, 151, 152, 153, 154, 155, 156, 157, 158, 159, 160, 161, 162, 163, 164, 165, 166, 167, 168, 169, 170, 171, 172, 173, 174, 175, 176, 177, 178, 179, 180, 181, 182, 183, 184, 185, 186, 187, 188, 189, 190, 191, 192, 193, 194, 195, 196, 197, 198, 199, 200, 201, 202, 203, 204, 205, 206, 207, 208, 209, 210, 211, 212, 213, 214, 215, 216, 217, 218, 219, 220, 221, 222, 223, 224, 225, 226, 227, 228, 229, 230, 231, 232, 233, 234, 235, 236, 237, 238, 239, 240, 241, 242, 243, 244, 245, 246, 247, 248, 249, 250, 251, 252, 253, 254, 255, 256, 257, 258, 259, 260, 261, 262, 263, 264, 265, 266, 267, 268, 269, 270, 271, 272, 273, 274, 275, 276, 277, 278, 279, 280, 281, 282, 283, 284, 285, 286, 287, 288, 289, 290, 291, 292, 293, 294, 295, 296, 297, 298, 299, 300, 301, 302, 303, 304, 305, 306, 307, 308, 309, 310, 311, 312, 313, 314, 315, 316, 317, 318, 319, 320, 321, 322, 323, 324, 325, 326, 327, 328, 329, 330, 331, 332, 333, 334, 335, 336, 337, 338, 339, 340, 341, 342, 343, 344, 345, 346, 347, 348, 349, 350, 351, 352, 353, 354, 355, 356, 357, 358, 359, 360, 361, 362, 363, 364, 365, 366, 367, 368, 369, 370, 371, 372, 373, 374, 375, 376, 377, 378, 379, 380, 381, 382, 383, 384, 385, 386, 387, 388, 389, 390, 391, 392, 393, 394, 395, 396, 397, 398, 399, 400, 401, 402, 403, 404, 405, 406, 407, 408, 409, 410, 411, 412, 413, 414, 415, 416, 417, 418, 419, 420, 421, 422, 423, 424, 425, 426, 427, 428, 429, 430, 431, 432, 433, 434, 435, 436, 437, 438, 439, 440, 441, 442, 443, 444, 445, 446, 447, 448, 449, 450, 451, 452, 453, 454, 455, 456, 457, 458, 459, 460, 461, 462, 463, 464, 465, 466, 467, 468, 469, 470, 471, 472, 473, 474, 475, 476, 477, 478, 479, 480, 481, 482, 483, 484, 485, 486],
      "AcquisitionTime": ["165904.492500", "165905.982500", "165907.472500", "165908.962500", "165910.452500", "165911.942500", "165913.432500", "165914.922500", "165916.412500", "165917.902500", "165919.392500", "165920.882500", "165922.372500", "165923.862500", "165925.352500", "165926.842500", "165928.332500", "165929.822500", "165931.312500", "165932.802500", "165934.292500", "165935.782500", "165937.272500", "165938.762500", "165940.252500", "165941.742500", "165943.232500", "165944.722500", "165946.212500", "165947.702500", "165949.192500", "165950.682500", "165952.172500", "165953.662500", "165955.152500", "165956.642500", "165958.132500", "165959.622500", "170001.112500", "170002.602500", "170004.092500", "170005.582500", "170007.072500", "170008.562500", "170010.052500", "170011.542500", "170013.032500", "170014.522500", "170016.012500", "170017.502500", "170018.992500", "170020.482500", "170021.972500", "170023.462500", "170024.952500", "170026.442500", "170027.932500", "170029.422500", "170030.912500", "170032.402500", "170033.892500", "170035.382500", "170036.872500", "170038.362500", "170039.852500", "170041.342500", "170042.832500", "170044.322500", "170045.812500", "170047.302500", "170048.792500", "170050.282500", "170051.772500", "170053.262500", "170054.752500", "170056.242500", "170057.732500", "170059.222500", "170100.712500", "170102.202500", "170103.692500", "170105.182500", "170106.672500", "170108.162500", "170109.652500", "170111.142500", "170112.632500", "170114.122500", "170115.612500", "170117.102500", "170118.592500", "170120.082500", "170121.572500", "170123.062500", "170124.552500", "170126.042500", "170127.532500", "170129.022500", "170130.512500", "170132.002500", "170133.492500", "170134.982500", "170136.472500", "170137.962500", "170139.452500", "170140.942500", "170142.432500", "170143.922500", "170145.412500", "170146.902500", "170148.392500", "170149.882500", "170151.372500", "170152.862500", "170154.352500", "170155.842500", "170157.332500", "170158.822500", "170200.312500", "170201.802500", "170203.292500", "170204.782500", "170206.272500", "170207.762500", "170209.252500", "170210.742500", "170212.232500", "170213.722500", "170215.212500", "170216.702500", "170218.192500", "170219.682500", "170221.172500", "170222.662500", "170224.152500", "170225.642500", "170227.132500", "170228.622500", "170230.112500", "170231.602500", "170233.092500", "170234.582500", "170236.072500", "170237.562500", "170239.052500", "170240.542500", "170242.032500", "170243.522500", "170245.012500", "170246.502500", "170247.992500", "170249.482500", "170250.972500", "170252.462500", "170253.952500", "170255.442500", "170256.932500", "170258.422500", "170259.912500", "170301.402500", "170302.892500", "170304.382500", "170305.872500", "170307.362500", "170308.852500", "170310.342500", "170311.832500", "170313.322500", "170314.812500", "170316.302500", "170317.792500", "170319.282500", "170320.772500", "170322.262500", "170323.752500", "170325.242500", "170326.732500", "170328.222500", "170329.712500", "170331.202500", "170332.692500", "170334.182500", "170335.672500", "170337.162500", "170338.652500", "170340.142500", "170341.632500", "170343.122500", "170344.612500", "170346.102500", "170347.592500", "170349.082500", "170350.572500", "170352.062500", "170353.552500", "170355.042500", "170356.532500", "170358.022500", "170359.512500", "170401.002500", "170402.492500", "170403.982500", "170405.472500", "170406.962500", "170408.452500", "170409.942500", "170411.432500", "170412.922500", "170414.412500", "170415.902500", "170417.392500", "170418.882500", "170420.372500", "170421.862500", "170423.352500", "170424.842500", "170426.332500", "170427.822500", "170429.312500", "170430.802500", "170432.292500", "170433.782500", "170435.272500", "170436.762500", "170438.252500", "170439.742500", "170441.232500", "170442.722500", "170444.212500", "170445.702500", "170447.192500", "170448.682500", "170450.172500", "170451.662500", "170453.152500", "170454.642500", "170456.132500", "170457.622500", "170459.112500", "170500.602500", "170502.092500", "170503.582500", "170505.072500", "170506.562500", "170508.052500", "170509.542500", "170511.032500", "170512.522500", "170514.012500", "170515.502500", "170516.992500", "170518.482500", "170519.972500", "170521.462500", "170522.952500", "170524.442500", "170525.932500", "170527.422500", "170528.912500", "170530.402500", "170531.892500", "170533.382500", "170534.872500", "170536.362500", "170537.852500", "170539.342500", "170540.832500", "170542.322500", "170543.812500", "170545.302500", "170546.792500", "170548.282500", "170549.772500", "170551.262500", "170552.752500", "170554.242500", "170555.732500", "170557.222500", "170558.712500", "170600.202500", "170601.692500", "170603.182500", "170604.672500", "170606.162500", "170607.652500", "170609.142500", "170610.632500", "170612.122500", "170613.612500", "170615.102500", "170616.592500", "170618.082500", "170619.572500", "170621.062500", "170622.552500", "170624.042500", "170625.532500", "170627.022500", "170628.512500", "170630.002500", "170631.492500", "170632.982500", "170634.472500", "170635.962500", "170637.452500", "170638.942500", "170640.432500", "170641.922500", "170643.412500", "170644.902500", "170646.392500", "170647.882500", "170649.372500", "170650.862500", "170652.352500", "170653.842500", "170655.332500", "170656.822500", "170658.312500", "170659.802500", "170701.292500", "170702.782500", "170704.272500", "170705.762500", "170707.252500", "170708.742500", "170710.232500", "170711.722500", "170713.212500", "170714.702500", "170716.192500", "170717.682500", "170719.172500", "170720.662500", "170722.152500", "170723.642500", "170725.132500", "170726.622500", "170728.112500", "170729.602500", "170731.092500", "170732.582500", "170734.072500", "170735.562500", "170737.052500", "170738.542500", "170740.032500", "170741.522500", "170743.012500", "170744.502500", "170745.992500", "170747.482500", "170748.972500", "170750.462500", "170751.952500", "170753.442500", "170754.932500", "170756.422500", "170757.912500", "170759.402500", "170800.892500", "170802.382500", "170803.872500", "170805.362500", "170806.852500", "170808.342500", "170809.832500", "170811.322500", "170812.812500", "170814.302500", "170815.792500", "170817.282500", "170818.772500", "170820.262500", "170821.752500", "170823.242500", "170824.732500", "170826.222500", "170827.712500", "170829.202500", "170830.692500", "170832.182500", "170833.672500", "170835.162500", "170836.652500", "170838.142500", "170839.632500", "170841.122500", "170842.612500", "170844.102500", "170845.592500", "170847.082500", "170848.572500", "170850.062500", "170851.552500", "170853.042500", "170854.532500", "170856.022500", "170857.512500", "170859.002500", "170900.492500", "170901.982500", "170903.472500", "170904.962500", "170906.452500", "170907.942500", "170909.432500", "170910.922500", "170912.412500", "170913.902500", "170915.392500", "170916.882500", "170918.372500", "170919.862500", "170921.352500", "170922.842500", "170924.332500", "170925.822500", "170927.312500", "170928.802500", "170930.292500", "170931.782500", "170933.272500", "170934.762500", "170936.252500", "170937.742500", "170939.232500", "170940.722500", "170942.212500", "170943.702500", "170945.192500", "170946.682500", "170948.172500", "170949.662500", "170951.152500", "170952.642500", "170954.132500", "170955.622500", "170957.112500", "170958.602500", "171000.092500", "171001.582500", "171003.072500", "171004.562500", "171006.052500", "171007.542500", "171009.032500", "171010.522500", "171012.012500", "171013.502500", "171014.992500", "171016.482500", "171017.972500", "171019.462500", "171020.952500", "171022.442500", "171023.932500", "171025.422500", "171026.912500", "171028.402500", "171029.892500", "171031.382500", "171032.872500", "171034.362500", "171035.852500", "171037.342500", "171038.832500", "171040.322500", "171041.812500", "171043.302500", "171044.792500", "171046.282500", "171047.772500", "171049.262500", "171050.752500", "171052.242500", "171053.732500", "171055.222500", "171056.712500", "171058.202500", "171059.692500", "171101.182500", "171102.672500", "171104.162500", "171105.652500", "171107.142500"],
      "ContentTime": ["170034.780000", "170034.783000", "170034.785000", "170034.788000", "170034.790000", "170034.793000", "170034.795000", "170034.798000", "170034.801000", "170034.803000", "170034.806000", "170034.808000", "170034.811000", "170034.813000", "170034.816000", "170034.818000", "170034.821000", "170034.823000", "170034.826000", "170034.829000", "170034.831000", "170034.833000", "170034.836000", "170034.839000", "170034.847000", "170034.850000", "170034.852000", "170034.855000", "170034.857000", "170034.860000", "170034.862000", "170034.865000", "170034.868000", "170034.870000", "170034.873000", "170034.875000", "170054.708000", "170054.711000", "170054.714000", "170054.716000", "170054.719000", "170054.721000", "170054.724000", "170054.726000", "170054.729000", "170054.731000", "170054.734000", "170054.736000", "170054.739000", "170054.741000", "170054.744000", "170054.746000", "170054.749000", "170054.751000", "170054.758000", "170054.775000", "170114.701000", "170114.704000", "170114.707000", "170114.709000", "170114.712000", "170114.715000", "170114.717000", "170114.720000", "170114.722000", "170114.725000", "170114.727000", "170114.730000", "170114.732000", "170114.735000", "170114.737000", "170114.740000", "170114.742000", "170114.745000", "170114.747000", "170114.750000", "170114.752000", "170134.678000", "170134.681000", "170134.683000", "170134.686000", "170134.688000", "170134.691000", "170134.694000", "170134.696000", "170134.699000", "170134.701000", "170134.704000", "170134.706000", "170134.709000", "170134.712000", "170134.714000", "170134.717000", "170134.719000", "170134.722000", "170134.724000", "170134.727000", "170214.726000", "170214.729000", "170214.731000", "170214.734000", "170214.736000", "170214.739000", "170214.742000", "170214.744000", "170214.747000", "170214.749000", "170214.752000", "170214.754000", "170214.757000", "170214.759000", "170214.762000", "170214.765000", "170214.767000", "170214.771000", "170214.773000", "170214.776000", "170214.779000", "170214.781000", "170214.784000", "170214.786000", "170214.789000", "170214.791000", "170214.794000", "170214.797000", "170214.799000", "170214.802000", "170254.711000", "170254.714000", "170254.716000", "170254.719000", "170254.721000", "170254.724000", "170254.727000", "170254.729000", "170254.732000", "170254.734000", "170254.737000", "170254.740000", "170254.742000", "170254.745000", "170254.747000", "170254.750000", "170254.752000", "170254.755000", "170254.757000", "170254.760000", "170254.763000", "170254.765000", "170254.768000", "170254.770000", "170254.773000", "170254.775000", "170254.778000", "170334.713000", "170334.715000", "170334.718000", "170334.721000", "170334.723000", "170334.726000", "170334.728000", "170334.731000", "170334.734000", "170334.736000", "170334.739000", "170334.741000", "170334.744000", "170334.747000", "170334.749000", "170334.752000", "170334.754000", "170334.757000", "170334.759000", "170334.762000", "170334.765000", "170334.767000", "170334.770000", "170334.773000", "170334.775000", "170334.778000", "170334.780000", "170414.726000", "170414.729000", "170414.737000", "170414.740000", "170414.742000", "170414.745000", "170414.748000", "170414.750000", "170414.753000", "170414.755000", "170414.758000", "170414.760000", "170414.763000", "170414.765000", "170414.768000", "170414.771000", "170414.773000", "170414.776000", "170414.778000", "170414.781000", "170414.784000", "170414.786000", "170414.789000", "170414.791000", "170414.794000", "170414.796000", "170454.717000", "170454.720000", "170454.723000", "170454.725000", "170454.728000", "170454.730000", "170454.733000", "170454.736000", "170454.738000", "170454.741000", "170454.743000", "170454.746000", "170454.748000", "170454.751000", "170454.753000", "170454.756000", "170454.758000", "170454.766000", "170454.842000", "170454.844000", "170454.847000", "170454.850000", "170454.852000", "170454.855000", "170454.857000", "170454.860000", "170454.862000", "170534.719000", "170534.722000", "170534.725000", "170534.727000", "170534.730000", "170534.732000", "170534.735000", "170534.737000", "170534.740000", "170534.742000", "170534.745000", "170534.747000", "170534.750000", "170534.753000", "170534.755000", "170534.758000", "170534.760000", "170534.763000", "170534.766000", "170534.768000", "170534.771000", "170534.773000", "170534.776000", "170534.778000", "170534.781000", "170534.783000", "170534.786000", "170614.705000", "170614.708000", "170614.710000", "170614.713000", "170614.716000", "170614.718000", "170614.721000", "170614.723000", "170614.726000", "170614.728000", "170614.731000", "170614.733000", "170614.736000", "170614.738000", "170614.741000", "170614.743000", "170614.746000", "170614.748000", "170614.751000", "170614.753000", "170614.756000", "170614.758000", "170614.761000", "170614.764000", "170614.766000", "170614.808000", "170614.810000", "170654.717000", "170654.720000", "170654.723000", "170654.725000", "170654.728000", "170654.730000", "170654.733000", "170654.735000", "170654.738000", "170654.741000", "170654.743000", "170654.746000", "170654.748000", "170654.751000", "170654.753000", "170654.756000", "170654.758000", "170654.761000", "170654.764000", "170654.766000", "170654.817000", "170654.820000", "170654.822000", "170654.825000", "170654.828000", "170654.830000", "170654.833000", "170734.718000", "170734.720000", "170734.723000", "170734.726000", "170734.728000", "170734.731000", "170734.744000", "170734.747000", "170734.749000", "170734.752000", "170734.754000", "170734.757000", "170734.759000", "170734.762000", "170734.765000", "170734.767000", "170734.830000", "170734.832000", "170734.835000", "170734.837000", "170734.840000", "170734.842000", "170734.845000", "170734.847000", "170734.850000", "170734.852000", "170734.855000", "170814.728000", "170814.731000", "170814.733000", "170814.736000", "170814.738000", "170814.741000", "170814.744000", "170814.746000", "170814.749000", "170814.751000", "170814.754000", "170814.756000", "170814.759000", "170814.761000", "170814.764000", "170814.766000", "170814.795000", "170814.797000", "170814.800000", "170814.803000", "170814.805000", "170814.808000", "170814.810000", "170814.813000", "170814.815000", "170814.818000", "170814.820000", "170854.708000", "170854.711000", "170854.714000", "170854.716000", "170854.719000", "170854.721000", "170854.724000", "170854.727000", "170854.729000", "170854.732000", "170854.734000", "170854.737000", "170854.739000", "170854.742000", "170854.744000", "170854.747000", "170854.749000", "170854.752000", "170854.754000", "170854.757000", "170854.759000", "170854.762000", "170854.764000", "170854.767000", "170854.808000", "170854.810000", "170934.711000", "170934.713000", "170934.716000", "170934.718000", "170934.721000", "170934.724000", "170934.726000", "170934.729000", "170934.731000", "170934.734000", "170934.737000", "170934.739000", "170934.742000", "170934.744000", "170934.747000", "170934.749000", "170934.752000", "170934.754000", "170934.757000", "170934.759000", "170934.762000", "170934.764000", "170934.767000", "170934.837000", "170934.839000", "170934.842000", "170934.844000", "171014.701000", "171014.704000", "171014.707000", "171014.709000", "171014.712000", "171014.715000", "171014.717000", "171014.720000", "171014.722000", "171014.725000", "171014.727000", "171014.730000", "171014.732000", "171014.735000", "171014.737000", "171014.740000", "171014.742000", "171014.745000", "171014.747000", "171014.750000", "171014.752000", "171014.755000", "171014.758000", "171014.760000", "171014.763000", "171014.765000", "171014.768000", "171054.716000", "171054.718000", "171054.721000", "171054.723000", "171054.726000", "171054.729000", "171054.731000", "171054.734000", "171054.736000", "171054.739000", "171054.741000", "171054.744000", "171054.746000", "171054.749000", "171054.751000", "171054.754000", "171054.756000", "171054.759000", "171054.762000", "171054.764000", "171054.767000", "171054.824000", "171054.826000", "171054.829000", "171054.832000", "171054.834000", "171054.837000", "171109.621000", "171109.623000", "171109.626000", "171109.629000", "171109.631000", "171109.634000", "171109.636000", "171109.639000", "171109.641000", "171109.644000"],
