{
  "AcquisitionMatrixPE": 104,
  "AcquisitionNumber": 1,
  "AcquisitionTime": "18:40:11.920000",
  "BandwidthPerPixelPhaseEncode": 17.17,
  "BaseResolution": 104,
  "BodyPartExamined": "BRAIN",
  "CoilCombinationMethod": "Sum of Squares",
  "ConsistencyInfo": "N4_VE11C_LATEST_20160120",
  "ConversionSoftware": "dcm2niix",
  "ConversionSoftwareVersion": "v1.0.20211006",
  "DerivedVendorReportedEchoSpacing": 0.000560011,
  "DeviceSerialNumber": "167006",
  "DwellTime": 2.1e-06,
  "EchoTime": 0.037,
  "EchoTime1": 0.037,
  "EchoTime2": 0.001,
  "EchoTrainLength": 104,
  "EffectiveEchoSpacing": 0.000560011,
  "FlipAngle": 52,
  "HeudiconvVersion": "0.5.3.post569+g418601f",
  "ImageComments": "Unaliased MB4/PE3/LB",
  "ImageOrientationPatientDICOM": [0.999486, -0.0318592, -0.00369391, 0.0282673, 0.929452, -0.367858],
  "ImageOrientationText": "Tra>Cor(-21.6)>Sag(-0.9)",
  "ImageType": [
    "ORIGINAL",
    "PRIMARY",
    "P",
    "MB",
    "ND",
    "MOSAIC",
    "PHASE"
],
  "ImagingFrequency": 123.259,
  "InPlanePhaseEncodingDirectionDICOM": "COL",
  "InstitutionAddress": "Chemin Queen-Mary 4565,Montreal,District,CA,H3W 1W5",
  "InstitutionName": "IUGM",
  "InstitutionalDepartmentName": "Department",
  "MRAcquisitionType": "2D",
  "MagneticFieldStrength": 3,
  "Manufacturer": "Siemens",
  "ManufacturersModelName": "Prisma_fit",
  "MatrixCoilMode": "SENSE",
  "Modality": "MR",
  "MultibandAccelerationFactor": 4,
  "PartialFourier": 1,
  "PatientPosition": "HFS",
  "PercentPhaseFOV": 100,
  "PercentSampling": 100,
  "PhaseEncodingDirection": "j",
  "PhaseEncodingSteps": 104,
  "PhaseResolution": 1,
  "PixelBandwidth": 2290,
  "ProcedureStepDescription": "games^mario",
  "ProtocolName": "func_task-mario_run-04",
  "PulseSequenceDetails": "%CustomerSeq%\\cmrr_mbep2d_bold",
  "ReceiveCoilActiveElements": "HC1-7;NC1,2",
  "ReceiveCoilName": "HeadNeck_64",
  "ReconMatrixPE": 104,
  "RepetitionTime": 1.49,
  "SAR": 0.0461531,
  "ScanOptions": "FS",
  "ScanningSequence": "EP",
  "SequenceName": "epfid2d1_104",
  "SequenceVariant": "SK\\SS",
  "SeriesDescription": "func_task-mario_run-04",
  "SeriesNumber": 20,
  "ShimSetting": [606, -7233, -8838, 405, 24, -354, 0, 34],
  "SliceThickness": 2,
  "SliceTiming": [0, 0.785, 0.0975, 0.8825, 0.195, 0.98, 0.295, 1.0775, 0.3925, 1.175, 0.49, 1.275, 0.5875, 1.3725, 0.685, 0, 0.785, 0.0975, 0.8825, 0.195, 0.98, 0.295, 1.0775, 0.3925, 1.175, 0.49, 1.275, 0.5875, 1.3725, 0.685, 0, 0.785, 0.0975, 0.8825, 0.195, 0.98, 0.295, 1.0775, 0.3925, 1.175, 0.49, 1.275, 0.5875, 1.3725, 0.685, 0, 0.785, 0.0975, 0.8825, 0.195, 0.98, 0.295, 1.0775, 0.3925, 1.175, 0.49, 1.275, 0.5875, 1.3725, 0.685],
  "SoftwareVersions": "syngo MR E11",
  "SpacingBetweenSlices": 2,
  "StationName": "MRC35049",
  "TaskName": "mario",
  "TotalReadoutTime": 0.0576811,
  "TxRefAmp": 253.537,
  "WipMemBlock": "dd1ea6fc-8802-4f8c-b26e-aad4182aaac8||Sequence: R016 ve11c/master r/e634e98; Dec 19 2017 11:00:25 by eja",
  "dcmmeta_affine": [
    [-1.9989711046218872, 0.05653464421629906, -0.030305949971079826, 101.89043426513672],
    [0.06371841579675674, 1.858904480934143, -0.7351285815238953, -64.46347045898438],
    [-0.007387818302959204, 0.735715925693512, 1.8597491979599, -72.52845764160156],
    [0.0, 0.0, 0.0, 1.0]
],
  "dcmmeta_reorient_transform": [
    [0.0, -1.0, 0.0, 103.0],
    [1.0, 0.0, 0.0, 0.0],
    [0.0, 0.0, 1.0, 0.0],
    [0.0, 0.0, 0.0, 1.0]
],
  "dcmmeta_shape": [104, 104, 60, 500],
  "dcmmeta_slice_dim": 2,
  "dcmmeta_version": 0.6,
  "global": {
    "const": {
      "AcquisitionMatrix": [104, 0, 0, 104],
      "AngioFlag": "N",
      "BitsAllocated": 16,
      "BitsStored": 16,
      "BodyPartExamined": "BRAIN",
      "Columns": 832,
      "EchoNumbers": 1,
      "EchoTime": 37.0,
      "EchoTrainLength": 104,
      "FlipAngle": 52.0,
      "HighBit": 15,
      "ImageOrientationPatient": [0.99948554060156, -0.0318592084671, -0.0036939090755, 0.02826732130904, 0.92945224411833, -0.3678579677667],
      "ImagePositionPatient": [-855.91758217802, -780.45142406394, 273.74004825146],
      "ImageType": [
        "ORIGINAL",
        "PRIMARY",
        "P",
        "MB",
        "ND",
        "MOSAIC"
],
      "ImagedNucleus": "1H",
      "ImagingFrequency": 123.25883,
      "InPlanePhaseEncodingDirection": "COL",
      "LargestImagePixelValue": 4095,
      "MRAcquisitionType": "2D",
      "MagneticFieldStrength": 3.0,
      "Manufacturer": "SIEMENS",
      "ManufacturerModelName": "Prisma_fit",
      "Modality": "MR",
      "NumberOfAverages": 1.0,
      "NumberOfPhaseEncodingSteps": 104,
      "PercentPhaseFieldOfView": 100.0,
      "PercentSampling": 100.0,
      "PerformedProcedureStepStartTime": "173041.189000",
      "PhotometricInterpretation": "MONOCHROME2",
      "PixelBandwidth": 2290.0,
      "PixelRepresentation": 0,
      "PixelSpacing": [2.0, 2.0],
      "ProtocolName": "func_task-mario_run-04",
      "RepetitionTime": 1490.0,
      "RescaleIntercept": -4096.0,
      "RescaleSlope": 2.0,
      "RescaleType": "US",
      "Rows": 832,
      "SAR": 0.04615312860801,
      "SamplesPerPixel": 1,
      "ScanOptions": "FS",
      "ScanningSequence": "EP",
      "SequenceName": "epfid2d1_104",
      "SequenceVariant": [
        "SK",
        "SS"
],
      "SeriesDescription": "func_task-mario_run-04",
      "SeriesNumber": 20,
      "SeriesTime": "184138.147000",
      "SliceLocation": -45.291849557539,
      "SliceThickness": 2.0,
      "SmallestImagePixelValue": 0,
      "SoftwareVersions": "syngo MR E11",
      "SpacingBetweenSlices": 1.9999999123349,
      "SpecificCharacterSet": "ISO_IR 100",
      "StudyID": "1",
      "StudyTime": "173041.137000",
      "TransmitCoilName": "Body",
      "VariableFlipAngleFlag": "N",
      "WindowCenterWidthExplanation": "Algo1",
      "dBdt": 0.0},
    "slices": {}
  },
  "time": {
    "samples": {
      "AcquisitionNumber": [1, 2, 3, 4, 5, 6, 7, 8, 9, 10, 11, 12, 13, 14, 15, 16, 17, 18, 19, 20, 21, 22, 23, 24, 25, 26, 27, 28, 29, 30, 31, 32, 33, 34, 35, 36, 37, 38, 39, 40, 41, 42, 43, 44, 45, 46, 47, 48, 49, 50, 51, 52, 53, 54, 55, 56, 57, 58, 59, 60, 61, 62, 63, 64, 65, 66, 67, 68, 69, 70, 71, 72, 73, 74, 75, 76, 77, 78, 79, 80, 81, 82, 83, 84, 85, 86, 87, 88, 89, 90, 91, 92, 93, 94, 95, 96, 97, 98, 99, 100, 101, 102, 103, 104, 105, 106, 107, 108, 109, 110, 111, 112, 113, 114, 115, 116, 117, 118, 119, 120, 121, 122, 123, 124, 125, 126, 127, 128, 129, 130, 131, 132, 133, 134, 135, 136, 137, 138, 139, 140, 141, 142, 143, 144, 145, 146, 147, 148, 149, 150, 151, 152, 153, 154, 155, 156, 157, 158, 159, 160, 161, 162, 163, 164, 165, 166, 167, 168, 169, 170, 171, 172, 173, 174, 175, 176, 177, 178, 179, 180, 181, 182, 183, 184, 185, 186, 187, 188, 189, 190, 191, 192, 193, 194, 195, 196, 197, 198, 199, 200, 201, 202, 203, 204, 205, 206, 207, 208, 209, 210, 211, 212, 213, 214, 215, 216, 217, 218, 219, 220, 221, 222, 223, 224, 225, 226, 227, 228, 229, 230, 231, 232, 233, 234, 235, 236, 237, 238, 239, 240, 241, 242, 243, 244, 245, 246, 247, 248, 249, 250, 251, 252, 253, 254, 255, 256, 257, 258, 259, 260, 261, 262, 263, 264, 265, 266, 267, 268, 269, 270, 271, 272, 273, 274, 275, 276, 277, 278, 279, 280, 281, 282, 283, 284, 285, 286, 287, 288, 289, 290, 291, 292, 293, 294, 295, 296, 297, 298, 299, 300, 301, 302, 303, 304, 305, 306, 307, 308, 309, 310, 311, 312, 313, 314, 315, 316, 317, 318, 319, 320, 321, 322, 323, 324, 325, 326, 327, 328, 329, 330, 331, 332, 333, 334, 335, 336, 337, 338, 339, 340, 341, 342, 343, 344, 345, 346, 347, 348, 349, 350, 351, 352, 353, 354, 355, 356, 357, 358, 359, 360, 361, 362, 363, 364, 365, 366, 367, 368, 369, 370, 371, 372, 373, 374, 375, 376, 377, 378, 379, 380, 381, 382, 383, 384, 385, 386, 387, 388, 389, 390, 391, 392, 393, 394, 395, 396, 397, 398, 399, 400, 401, 402, 403, 404, 405, 406, 407, 408, 409, 410, 411, 412, 413, 414, 415, 416, 417, 418, 419, 420, 421, 422, 423, 424, 425, 426, 427, 428, 429, 430, 431, 432, 433, 434, 435, 436, 437, 438, 439, 440, 441, 442, 443, 444, 445, 446, 447, 448, 449, 450, 451, 452, 453, 454, 455, 456, 457, 458, 459, 460, 461, 462, 463, 464, 465, 466, 467, 468, 469, 470, 471, 472, 473, 474, 475, 476, 477, 478, 479, 480, 481, 482, 483, 484, 485, 486, 487, 488, 489, 490, 491, 492, 493, 494, 495, 496, 497, 498, 499, 500],
      "AcquisitionTime": ["184011.920000", "184013.410000", "184014.900000", "184016.390000", "184017.880000", "184019.370000", "184020.860000", "184022.350000", "184023.840000", "184025.330000", "184026.820000", "184028.310000", "184029.800000", "184031.290000", "184032.780000", "184034.270000", "184035.760000", "184037.250000", "184038.740000", "184040.230000", "184041.720000", "184043.210000", "184044.700000", "184046.190000", "184047.680000", "184049.170000", "184050.660000", "184052.150000", "184053.640000", "184055.130000", "184056.620000", "184058.110000", "184059.600000", "184101.090000", "184102.580000", "184104.070000", "184105.560000", "184107.050000", "184108.540000", "184110.030000", "184111.520000", "184113.010000", "184114.500000", "184115.990000", "184117.480000", "184118.970000", "184120.460000", "184121.950000", "184123.440000", "184124.930000", "184126.420000", "184127.910000", "184129.400000", "184130.890000", "184132.380000", "184133.870000", "184135.360000", "184136.850000", "184138.340000", "184139.830000", "184141.320000", "184142.810000", "184144.300000", "184145.790000", "184147.280000", "184148.770000", "184150.260000", "184151.750000", "184153.240000", "184154.730000", "184156.220000", "184157.710000", "184159.200000", "184200.690000", "184202.180000", "184203.670000", "184205.160000", "184206.650000", "184208.140000", "184209.630000", "184211.120000", "184212.610000", "184214.100000", "184215.590000", "184217.080000", "184218.570000", "184220.060000", "184221.550000", "184223.040000", "184224.530000", "184226.020000", "184227.510000", "184229.000000", "184230.490000", "184231.980000", "184233.470000", "184234.960000", "184236.450000", "184237.940000", "184239.430000", "184240.920000", "184242.410000", "184243.900000", "184245.390000", "184246.880000", "184248.370000", "184249.860000", "184251.350000", "184252.840000", "184254.330000", "184255.820000", "184257.310000", "184258.800000", "184300.290000", "184301.780000", "184303.270000", "184304.760000", "184306.250000", "184307.740000", "184309.230000", "184310.720000", "184312.210000", "184313.700000", "184315.190000", "184316.680000", "184318.170000", "184319.660000", "184321.150000", "184322.640000", "184324.130000", "184325.620000", "184327.110000", "184328.600000", "184330.090000", "184331.580000", "184333.070000", "184334.560000", "184336.050000", "184337.540000", "184339.030000", "184340.520000", "184342.010000", "184343.500000", "184344.990000", "184346.480000", "184347.970000", "184349.460000", "184350.950000", "184352.440000", "184353.930000", "184355.420000", "184356.910000", "184358.400000", "184359.890000", "184401.380000", "184402.870000", "184404.360000", "184405.850000", "184407.340000", "184408.830000", "184410.320000", "184411.810000", "184413.300000", "184414.790000", "184416.280000", "184417.770000", "184419.260000", "184420.750000", "184422.240000", "184423.730000", "184425.220000", "184426.710000", "184428.200000", "184429.690000", "184431.180000", "184432.670000", "184434.160000", "184435.650000", "184437.140000", "184438.630000", "184440.120000", "184441.610000", "184443.100000", "184444.590000", "184446.080000", "184447.570000", "184449.060000", "184450.550000", "184452.040000", "184453.530000", "184455.020000", "184456.510000", "184458.000000", "184459.490000", "184500.980000", "184502.470000", "184503.960000", "184505.450000", "184506.940000", "184508.430000", "184509.920000", "184511.410000", "184512.900000", "184514.390000", "184515.880000", "184517.370000", "184518.860000", "184520.350000", "184521.840000", "184523.330000", "184524.820000", "184526.310000", "184527.800000", "184529.290000", "184530.780000", "184532.270000", "184533.760000", "184535.250000", "184536.740000", "184538.230000", "184539.720000", "184541.210000", "184542.700000", "184544.190000", "184545.680000", "184547.170000", "184548.660000", "184550.150000", "184551.640000", "184553.130000", "184554.620000", "184556.110000", "184557.600000", "184559.090000", "184600.580000", "184602.070000", "184603.560000", "184605.050000", "184606.540000", "184608.030000", "184609.520000", "184611.010000", "184612.500000", "184613.990000", "184615.480000", "184616.970000", "184618.460000", "184619.950000", "184621.440000", "184622.930000", "184624.420000", "184625.910000", "184627.400000", "184628.890000", "184630.380000", "184631.870000", "184633.360000", "184634.850000", "184636.340000", "184637.830000", "184639.320000", "184640.810000", "184642.300000", "184643.790000", "184645.280000", "184646.770000", "184648.260000", "184649.750000", "184651.240000", "184652.730000", "184654.220000", "184655.710000", "184657.200000", "184658.690000", "184700.180000", "184701.670000", "184703.160000", "184704.650000", "184706.140000", "184707.630000", "184709.120000", "184710.610000", "184712.100000", "184713.590000", "184715.080000", "184716.570000", "184718.060000", "184719.550000", "184721.040000", "184722.530000", "184724.020000", "184725.510000", "184727.000000", "184728.490000", "184729.980000", "184731.470000", "184732.960000", "184734.450000", "184735.940000", "184737.430000", "184738.920000", "184740.410000", "184741.900000", "184743.390000", "184744.880000", "184746.370000", "184747.860000", "184749.350000", "184750.840000", "184752.330000", "184753.820000", "184755.310000", "184756.800000", "184758.290000", "184759.780000", "184801.270000", "184802.760000", "184804.250000", "184805.740000", "184807.230000", "184808.720000", "184810.210000", "184811.700000", "184813.190000", "184814.680000", "184816.170000", "184817.660000", "184819.150000", "184820.640000", "184822.130000", "184823.620000", "184825.110000", "184826.600000", "184828.090000", "184829.580000", "184831.070000", "184832.560000", "184834.050000", "184835.540000", "184837.030000", "184838.520000", "184840.010000", "184841.500000", "184842.990000", "184844.480000", "184845.970000", "184847.460000", "184848.950000", "184850.440000", "184851.930000", "184853.420000", "184854.910000", "184856.400000", "184857.890000", "184859.380000", "184900.870000", "184902.360000", "184903.850000", "184905.340000", "184906.830000", "184908.320000", "184909.810000", "184911.300000", "184912.790000", "184914.280000", "184915.770000", "184917.260000", "184918.750000", "184920.240000", "184921.730000", "184923.220000", "184924.710000", "184926.200000", "184927.690000", "184929.180000", "184930.670000", "184932.160000", "184933.650000", "184935.140000", "184936.630000", "184938.120000", "184939.610000", "184941.100000", "184942.590000", "184944.080000", "184945.570000", "184947.060000", "184948.550000", "184950.040000", "184951.530000", "184953.020000", "184954.510000", "184956.000000", "184957.490000", "184958.980000", "185000.470000", "185001.960000", "185003.450000", "185004.940000", "185006.430000", "185007.920000", "185009.410000", "185010.900000", "185012.390000", "185013.880000", "185015.370000", "185016.860000", "185018.350000", "185019.840000", "185021.330000", "185022.820000", "185024.310000", "185025.800000", "185027.290000", "185028.780000", "185030.270000", "185031.760000", "185033.250000", "185034.740000", "185036.230000", "185037.720000", "185039.210000", "185040.700000", "185042.190000", "185043.680000", "185045.170000", "185046.660000", "185048.150000", "185049.640000", "185051.130000", "185052.620000", "185054.110000", "185055.600000", "185057.090000", "185058.580000", "185100.070000", "185101.560000", "185103.050000", "185104.540000", "185106.030000", "185107.520000", "185109.010000", "185110.500000", "185111.990000", "185113.480000", "185114.970000", "185116.460000", "185117.950000", "185119.440000", "185120.930000", "185122.420000", "185123.910000", "185125.400000", "185126.890000", "185128.380000", "185129.870000", "185131.360000", "185132.850000", "185134.340000", "185135.830000", "185137.320000", "185138.810000", "185140.300000", "185141.790000", "185143.280000", "185144.770000", "185146.260000", "185147.750000", "185149.240000", "185150.730000", "185152.220000", "185153.710000", "185155.200000", "185156.690000", "185158.180000", "185159.670000", "185201.160000", "185202.650000", "185204.140000", "185205.630000", "185207.120000", "185208.610000", "185210.100000", "185211.590000", "185213.080000", "185214.570000", "185216.060000", "185217.550000", "185219.040000", "185220.530000", "185222.020000", "185223.510000", "185225.000000", "185226.490000", "185227.980000", "185229.470000", "185230.960000", "185232.450000", "185233.940000", "185235.430000"],
      "ContentTime": ["184138.149000", "184138.152000", "184138.154000", "184138.157000", "184138.160000", "184138.162000", "184138.165000", "184138.167000", "184138.170000", "184138.174000", "184138.177000", "184138.179000", "184138.182000", "184138.184000", "184138.187000", "184138.189000", "184138.192000", "184138.195000", "184138.197000", "184138.200000", "184138.202000", "184138.205000", "184138.207000", "184138.210000", "184138.213000", "184138.215000", "184138.218000", "184138.220000", "184138.223000", "184138.225000", "184138.228000", "184138.230000", "184158.055000", "184158.058000", "184158.060000", "184158.063000", "184158.065000", "184158.068000", "184158.070000", "184158.073000", "184158.075000", "184158.078000", "184158.080000", "184158.083000", "184158.085000", "184158.088000", "184158.091000", "184158.093000", "184158.096000", "184158.098000", "184158.101000", "184158.103000", "184158.106000", "184218.048000", "184218.051000", "184218.053000", "184218.056000", "184218.059000", "184218.061000", "184218.064000", "184218.066000", "184218.069000", "184218.071000", "184218.074000", "184218.076000", "184218.079000", "184218.081000", "184218.084000", "184218.086000", "184218.089000", "184218.092000", "184218.094000", "184218.097000", "184238.047000", "184238.050000", "184238.053000", "184238.055000", "184238.058000", "184238.060000", "184238.063000", "184238.065000", "184238.068000", "184238.070000", "184238.073000", "184238.075000", "184238.078000", "184238.081000", "184238.083000", "184238.086000", "184238.088000", "184238.091000", "184238.094000", "184238.096000", "184318.112000", "184318.115000", "184318.118000", "184318.120000", "184318.123000", "184318.125000", "184318.128000", "184318.130000", "184318.133000", "184318.135000", "184318.138000", "184318.140000", "184318.143000", "184318.146000", "184318.148000", "184318.151000", "184318.153000", "184318.156000", "184318.158000", "184318.161000", "184318.163000", "184318.166000", "184318.168000", "184318.171000", "184318.173000", "184318.176000", "184318.178000", "184318.181000", "184318.184000", "184318.186000", "184318.189000", "184358.089000", "184358.092000", "184358.094000", "184358.097000", "184358.100000", "184358.102000", "184358.105000", "184358.107000", "184358.110000", "184358.112000", "184358.115000", "184358.117000", "184358.120000", "184358.122000", "184358.125000", "184358.127000", "184358.130000", "184358.133000", "184358.135000", "184358.138000", "184358.140000", "184358.143000", "184358.145000", "184358.148000", "184358.150000", "184358.153000", "184358.155000", "184438.099000", "184438.102000", "184438.105000", "184438.107000", "184438.110000", "184438.112000", "184438.115000", "184438.118000", "184438.120000", "184438.123000", "184438.125000", "184438.128000", "184438.130000", "184438.133000", "184438.135000", "184438.138000", "184438.140000", "184438.143000", "184438.145000", "184438.148000", "184438.151000", "184438.153000", "184438.156000", "184438.158000", "184438.161000", "184438.163000", "184438.166000", "184518.095000", "184518.098000", "184518.101000", "184518.103000", "184518.106000", "184518.109000", "184518.111000", "184518.114000", "184518.116000", "184518.119000", "184518.121000", "184518.124000", "184518.126000", "184518.129000", "184518.131000", "184518.134000", "184518.136000", "184518.139000", "184518.141000", "184518.144000", "184518.147000", "184518.149000", "184518.152000", "184518.154000", "184518.157000", "184518.159000", "184518.162000", "184558.079000", "184558.082000", "184558.085000", "184558.087000", "184558.090000", "184558.092000", "184558.095000", "184558.097000", "184558.100000", "184558.102000", "184558.105000", "184558.108000", "184558.110000", "184558.113000", "184558.115000", "184558.118000", "184558.120000", "184558.123000", "184558.125000", "184558.128000", "184558.130000", "184558.133000", "184558.136000", "184558.138000", "184558.141000", "184558.143000", "184638.094000", "184638.096000", "184638.099000", "184638.102000", "184638.104000", "184638.107000", "184638.109000", "184638.112000", "184638.115000", "184638.117000", "184638.120000", "184638.122000", "184638.125000", "184638.127000", "184638.130000", "184638.133000", "184638.135000", "184638.138000", "184638.141000", "184638.143000", "184638.146000", "184638.148000", "184638.151000", "184638.154000", "184638.156000", "184638.159000", "184638.161000", "184718.084000", "184718.087000", "184718.089000", "184718.092000", "184718.095000", "184718.097000", "184718.100000", "184718.102000", "184718.105000", "184718.108000", "184718.110000", "184718.113000", "184718.115000", "184718.118000", "184718.120000", "184718.123000", "184718.126000", "184718.128000", "184718.131000", "184718.133000", "184718.136000", "184718.138000", "184718.141000", "184718.143000", "184718.146000", "184718.148000", "184718.151000", "184758.080000", "184758.083000", "184758.086000", "184758.088000", "184758.091000", "184758.093000", "184758.096000", "184758.098000", "184758.101000", "184758.104000", "184758.107000", "184758.109000", "184758.112000", "184758.114000", "184758.117000", "184758.119000", "184758.122000", "184758.124000", "184758.127000", "184758.130000", "184758.132000", "184758.135000", "184758.137000", "184758.140000", "184758.142000", "184758.145000", "184758.147000", "184838.100000", "184838.103000", "184838.106000", "184838.109000", "184838.111000", "184838.114000", "184838.116000", "184838.119000", "184838.121000", "184838.124000", "184838.127000", "184838.129000", "184838.132000", "184838.134000", "184838.137000", "184838.140000", "184838.142000", "184838.145000", "184838.147000", "184838.150000", "184838.152000", "184838.155000", "184838.157000", "184838.160000", "184838.162000", "184838.165000", "184838.168000", "184918.531000", "184918.534000", "184918.536000", "184918.539000", "184918.541000", "184918.544000", "184918.546000", "184918.549000", "184918.551000", "184918.554000", "184918.557000", "184918.560000", "184918.564000", "184918.567000", "184918.569000", "184918.572000", "184918.575000", "184918.577000", "184918.580000", "184918.582000", "184918.585000", "184918.587000", "184918.590000", "184918.592000", "184918.595000", "184918.597000", "184918.600000", "184958.082000", "184958.085000", "184958.088000", "184958.090000", "184958.093000", "184958.095000", "184958.098000", "184958.100000", "184958.103000", "184958.105000", "184958.108000", "184958.123000", "184958.126000", "184958.128000", "184958.131000", "184958.133000", "184958.136000", "184958.139000", "184958.141000", "184958.144000", "184958.146000", "184958.149000", "184958.151000", "184958.154000", "184958.157000", "184958.159000", "184958.162000", "185038.074000", "185038.077000", "185038.080000", "185038.083000", "185038.086000", "185038.088000", "185038.091000", "185038.093000", "185038.096000", "185038.098000", "185038.101000", "185038.105000", "185038.107000", "185038.110000", "185038.112000", "185038.115000", "185038.117000", "185038.120000", "185038.122000", "185038.125000", "185038.128000", "185038.130000", "185038.133000", "185038.135000", "185038.138000", "185038.140000", "185118.083000", "185118.085000", "185118.088000", "185118.090000", "185118.093000", "185118.096000", "185118.098000", "185118.101000", "185118.103000", "185118.106000", "185118.108000", "185118.111000", "185118.113000", "185118.116000", "185118.118000", "185118.121000", "185118.123000", "185118.126000", "185118.129000", "185118.131000", "185118.134000", "185118.136000", "185118.139000", "185118.141000", "185118.144000", "185118.146000", "185118.149000", "185158.079000", "185158.082000", "185158.085000", "185158.087000", "185158.090000", "185158.092000", "185158.095000", "185158.098000", "185158.100000", "185158.103000", "185158.105000", "185158.108000", "185158.111000", "185158.113000", "185158.116000", "185158.118000", "185158.121000", "185158.124000", "185158.126000", "185158.129000", "185158.131000", "185158.134000", "185158.136000", "185158.139000", "185158.142000", "185158.144000", "185158.147000", "185238.083000", "185238.086000", "185238.088000", "185238.091000", "185238.093000", "185238.096000", "185238.098000", "185238.101000", "185238.104000", "185238.106000", "185238.109000", "185238.111000", "185238.114000", "185238.116000", "185238.119000", "185238.121000", "185238.124000", "185238.126000", "185238.129000", "185238.131000", "185238.134000", "185238.136000", "185238.139000", "185238.142000", "185238.144000", "185238.147000", "185238.149000"],
