{
  "AcquisitionMatrixPE": 104,
  "AcquisitionNumber": 1,
  "AcquisitionTime": "18:40:11.920000",
  "BandwidthPerPixelPhaseEncode": 17.17,
  "BaseResolution": 104,
  "BodyPartExamined": "BRAIN",
  "CoilCombinationMethod": "Sum of Squares",
  "ConsistencyInfo": "N4_VE11C_LATEST_20160120",
  "ConversionSoftware": "dcm2niix",
  "ConversionSoftwareVersion": "v1.0.20211006",
  "DerivedVendorReportedEchoSpacing": 0.000560011,
  "DeviceSerialNumber": "167006",
  "DwellTime": 2.1e-06,
  "EchoTime": 0.037,
  "EchoTrainLength": 104,
  "EffectiveEchoSpacing": 0.000560011,
  "FlipAngle": 52,
  "HeudiconvVersion": "0.5.3.post569+g418601f",
  "ImageComments": "Unaliased MB4/PE3/LB",
  "ImageOrientationPatientDICOM": [0.999486, -0.0318592, -0.00369391, 0.0282673, 0.929452, -0.367858],
  "ImageOrientationText": "Tra>Cor(-21.6)>Sag(-0.9)",
  "ImageType": [
    "ORIGINAL",
    "PRIMARY",
    "M",
    "MB",
    "ND",
    "MOSAIC"
],
  "ImagingFrequency": 123.259,
  "InPlanePhaseEncodingDirectionDICOM": "COL",
  "InstitutionAddress": "Chemin Queen-Mary 4565,Montreal,District,CA,H3W 1W5",
  "InstitutionName": "IUGM",
  "InstitutionalDepartmentName": "Department",
  "MRAcquisitionType": "2D",
  "MagneticFieldStrength": 3,
  "Manufacturer": "Siemens",
  "ManufacturersModelName": "Prisma_fit",
  "MatrixCoilMode": "SENSE",
  "Modality": "MR",
  "MultibandAccelerationFactor": 4,
  "PartialFourier": 1,
  "PatientPosition": "HFS",
  "PercentPhaseFOV": 100,
  "PercentSampling": 100,
  "PhaseEncodingDirection": "j",
  "PhaseEncodingSteps": 104,
  "PhaseResolution": 1,
  "PixelBandwidth": 2290,
  "ProcedureStepDescription": "games^mario",
  "ProtocolName": "func_task-mario_run-04",
  "PulseSequenceDetails": "%CustomerSeq%\\cmrr_mbep2d_bold",
  "ReceiveCoilActiveElements": "HC1-7;NC1,2",
  "ReceiveCoilName": "HeadNeck_64",
  "ReconMatrixPE": 104,
  "RepetitionTime": 1.49,
  "SAR": 0.0461531,
  "ScanOptions": "FS",
  "ScanningSequence": "EP",
  "SequenceName": "epfid2d1_104",
  "SequenceVariant": "SK\\SS",
  "SeriesDescription": "func_task-mario_run-04",
  "SeriesNumber": 19,
  "ShimSetting": [606, -7233, -8838, 405, 24, -354, 0, 34],
  "SliceThickness": 2,
  "SliceTiming": [0, 0.785, 0.0975, 0.8825, 0.195, 0.98, 0.295, 1.0775, 0.3925, 1.175, 0.49, 1.275, 0.5875, 1.3725, 0.685, 0, 0.785, 0.0975, 0.8825, 0.195, 0.98, 0.295, 1.0775, 0.3925, 1.175, 0.49, 1.275, 0.5875, 1.3725, 0.685, 0, 0.785, 0.0975, 0.8825, 0.195, 0.98, 0.295, 1.0775, 0.3925, 1.175, 0.49, 1.275, 0.5875, 1.3725, 0.685, 0, 0.785, 0.0975, 0.8825, 0.195, 0.98, 0.295, 1.0775, 0.3925, 1.175, 0.49, 1.275, 0.5875, 1.3725, 0.685],
  "SoftwareVersions": "syngo MR E11",
  "SpacingBetweenSlices": 2,
  "StationName": "MRC35049",
  "TaskName": "mario",
  "TotalReadoutTime": 0.0576811,
  "TxRefAmp": 253.537,
  "WipMemBlock": "dd1ea6fc-8802-4f8c-b26e-aad4182aaac8||Sequence: R016 ve11c/master r/e634e98; Dec 19 2017 11:00:25 by eja",
  "dcmmeta_affine": [
    [-1.9989711046218872, 0.05653464421629906, -0.030305949971079826, 101.89043426513672],
    [0.06371841579675674, 1.858904480934143, -0.7351285815238953, -64.46347045898438],
    [-0.007387818302959204, 0.735715925693512, 1.8597491979599, -72.52845764160156],
    [0.0, 0.0, 0.0, 1.0]
],
  "dcmmeta_reorient_transform": [
    [0.0, -1.0, 0.0, 103.0],
    [1.0, 0.0, 0.0, 0.0],
    [0.0, 0.0, 1.0, 0.0],
    [0.0, 0.0, 0.0, 1.0]
],
  "dcmmeta_shape": [104, 104, 60, 500],
  "dcmmeta_slice_dim": 2,
  "dcmmeta_version": 0.6,
  "global": {
    "const": {
      "AcquisitionMatrix": [104, 0, 0, 104],
      "AngioFlag": "N",
      "BitsAllocated": 16,
      "BitsStored": 16,
      "BodyPartExamined": "BRAIN",
      "Columns": 832,
      "EchoNumbers": 1,
      "EchoTime": 37.0,
      "EchoTrainLength": 104,
      "FlipAngle": 52.0,
      "HighBit": 15,
      "ImageOrientationPatient": [0.99948554060156, -0.0318592084671, -0.0036939090755, 0.02826732130904, 0.92945224411833, -0.3678579677667],
      "ImagePositionPatient": [-855.91758217802, -780.45142406394, 273.74004825146],
      "ImageType": [
        "ORIGINAL",
        "PRIMARY",
        "M",
        "MB",
        "ND",
        "MOSAIC"
],
      "ImagedNucleus": "1H",
      "ImagingFrequency": 123.25883,
      "InPlanePhaseEncodingDirection": "COL",
      "MRAcquisitionType": "2D",
      "MagneticFieldStrength": 3.0,
      "Manufacturer": "SIEMENS",
      "ManufacturerModelName": "Prisma_fit",
      "Modality": "MR",
      "NumberOfAverages": 1.0,
      "NumberOfPhaseEncodingSteps": 104,
      "PercentPhaseFieldOfView": 100.0,
      "PercentSampling": 100.0,
      "PerformedProcedureStepStartTime": "173041.189000",
      "PhotometricInterpretation": "MONOCHROME2",
      "PixelBandwidth": 2290.0,
      "PixelRepresentation": 0,
      "PixelSpacing": [2.0, 2.0],
      "ProtocolName": "func_task-mario_run-04",
      "RepetitionTime": 1490.0,
      "Rows": 832,
      "SAR": 0.04615312860801,
      "SamplesPerPixel": 1,
      "ScanOptions": "FS",
      "ScanningSequence": "EP",
      "SequenceName": "epfid2d1_104",
      "SequenceVariant": [
        "SK",
        "SS"
],
      "SeriesDescription": "func_task-mario_run-04",
      "SeriesNumber": 19,
      "SeriesTime": "184137.989000",
      "SliceLocation": -45.291849557539,
      "SliceThickness": 2.0,
      "SmallestImagePixelValue": 0,
      "SoftwareVersions": "syngo MR E11",
      "SpacingBetweenSlices": 1.9999999123349,
      "SpecificCharacterSet": "ISO_IR 100",
      "StudyID": "1",
      "StudyTime": "173041.137000",
      "TransmitCoilName": "Body",
      "VariableFlipAngleFlag": "N",
      "WindowCenterWidthExplanation": "Algo1",
      "dBdt": 0.0},
    "slices": {}
  },
  "time": {
    "samples": {
      "AcquisitionNumber": [1, 2, 3, 4, 5, 6, 7, 8, 9, 10, 11, 12, 13, 14, 15, 16, 17, 18, 19, 20, 21, 22, 23, 24, 25, 26, 27, 28, 29, 30, 31, 32, 33, 34, 35, 36, 37, 38, 39, 40, 41, 42, 43, 44, 45, 46, 47, 48, 49, 50, 51, 52, 53, 54, 55, 56, 57, 58, 59, 60, 61, 62, 63, 64, 65, 66, 67, 68, 69, 70, 71, 72, 73, 74, 75, 76, 77, 78, 79, 80, 81, 82, 83, 84, 85, 86, 87, 88, 89, 90, 91, 92, 93, 94, 95, 96, 97, 98, 99, 100, 101, 102, 103, 104, 105, 106, 107, 108, 109, 110, 111, 112, 113, 114, 115, 116, 117, 118, 119, 120, 121, 122, 123, 124, 125, 126, 127, 128, 129, 130, 131, 132, 133, 134, 135, 136, 137, 138, 139, 140, 141, 142, 143, 144, 145, 146, 147, 148, 149, 150, 151, 152, 153, 154, 155, 156, 157, 158, 159, 160, 161, 162, 163, 164, 165, 166, 167, 168, 169, 170, 171, 172, 173, 174, 175, 176, 177, 178, 179, 180, 181, 182, 183, 184, 185, 186, 187, 188, 189, 190, 191, 192, 193, 194, 195, 196, 197, 198, 199, 200, 201, 202, 203, 204, 205, 206, 207, 208, 209, 210, 211, 212, 213, 214, 215, 216, 217, 218, 219, 220, 221, 222, 223, 224, 225, 226, 227, 228, 229, 230, 231, 232, 233, 234, 235, 236, 237, 238, 239, 240, 241, 242, 243, 244, 245, 246, 247, 248, 249, 250, 251, 252, 253, 254, 255, 256, 257, 258, 259, 260, 261, 262, 263, 264, 265, 266, 267, 268, 269, 270, 271, 272, 273, 274, 275, 276, 277, 278, 279, 280, 281, 282, 283, 284, 285, 286, 287, 288, 289, 290, 291, 292, 293, 294, 295, 296, 297, 298, 299, 300, 301, 302, 303, 304, 305, 306, 307, 308, 309, 310, 311, 312, 313, 314, 315, 316, 317, 318, 319, 320, 321, 322, 323, 324, 325, 326, 327, 328, 329, 330, 331, 332, 333, 334, 335, 336, 337, 338, 339, 340, 341, 342, 343, 344, 345, 346, 347, 348, 349, 350, 351, 352, 353, 354, 355, 356, 357, 358, 359, 360, 361, 362, 363, 364, 365, 366, 367, 368, 369, 370, 371, 372, 373, 374, 375, 376, 377, 378, 379, 380, 381, 382, 383, 384, 385, 386, 387, 388, 389, 390, 391, 392, 393, 394, 395, 396, 397, 398, 399, 400, 401, 402, 403, 404, 405, 406, 407, 408, 409, 410, 411, 412, 413, 414, 415, 416, 417, 418, 419, 420, 421, 422, 423, 424, 425, 426, 427, 428, 429, 430, 431, 432, 433, 434, 435, 436, 437, 438, 439, 440, 441, 442, 443, 444, 445, 446, 447, 448, 449, 450, 451, 452, 453, 454, 455, 456, 457, 458, 459, 460, 461, 462, 463, 464, 465, 466, 467, 468, 469, 470, 471, 472, 473, 474, 475, 476, 477, 478, 479, 480, 481, 482, 483, 484, 485, 486, 487, 488, 489, 490, 491, 492, 493, 494, 495, 496, 497, 498, 499, 500],
      "AcquisitionTime": ["184011.920000", "184013.410000", "184014.900000", "184016.390000", "184017.880000", "184019.370000", "184020.860000", "184022.350000", "184023.840000", "184025.330000", "184026.820000", "184028.310000", "184029.800000", "184031.290000", "184032.780000", "184034.270000", "184035.760000", "184037.250000", "184038.740000", "184040.230000", "184041.720000", "184043.210000", "184044.700000", "184046.190000", "184047.680000", "184049.170000", "184050.660000", "184052.150000", "184053.640000", "184055.130000", "184056.620000", "184058.110000", "184059.600000", "184101.090000", "184102.580000", "184104.070000", "184105.560000", "184107.050000", "184108.540000", "184110.030000", "184111.520000", "184113.010000", "184114.500000", "184115.990000", "184117.480000", "184118.970000", "184120.460000", "184121.950000", "184123.440000", "184124.930000", "184126.420000", "184127.910000", "184129.400000", "184130.890000", "184132.380000", "184133.870000", "184135.360000", "184136.850000", "184138.340000", "184139.830000", "184141.320000", "184142.810000", "184144.300000", "184145.790000", "184147.280000", "184148.770000", "184150.260000", "184151.750000", "184153.240000", "184154.730000", "184156.220000", "184157.710000", "184159.200000", "184200.690000", "184202.180000", "184203.670000", "184205.160000", "184206.650000", "184208.140000", "184209.630000", "184211.120000", "184212.610000", "184214.100000", "184215.590000", "184217.080000", "184218.570000", "184220.060000", "184221.550000", "184223.040000", "184224.530000", "184226.020000", "184227.510000", "184229.000000", "184230.490000", "184231.980000", "184233.470000", "184234.960000", "184236.450000", "184237.940000", "184239.430000", "184240.920000", "184242.410000", "184243.900000", "184245.390000", "184246.880000", "184248.370000", "184249.860000", "184251.350000", "184252.840000", "184254.330000", "184255.820000", "184257.310000", "184258.800000", "184300.290000", "184301.780000", "184303.270000", "184304.760000", "184306.250000", "184307.740000", "184309.230000", "184310.720000", "184312.210000", "184313.700000", "184315.190000", "184316.680000", "184318.170000", "184319.660000", "184321.150000", "184322.640000", "184324.130000", "184325.620000", "184327.110000", "184328.600000", "184330.090000", "184331.580000", "184333.070000", "184334.560000", "184336.050000", "184337.540000", "184339.030000", "184340.520000", "184342.010000", "184343.500000", "184344.990000", "184346.480000", "184347.970000", "184349.460000", "184350.950000", "184352.440000", "184353.930000", "184355.420000", "184356.910000", "184358.400000", "184359.890000", "184401.380000", "184402.870000", "184404.360000", "184405.850000", "184407.340000", "184408.830000", "184410.320000", "184411.810000", "184413.300000", "184414.790000", "184416.280000", "184417.770000", "184419.260000", "184420.750000", "184422.240000", "184423.730000", "184425.220000", "184426.710000", "184428.200000", "184429.690000", "184431.180000", "184432.670000", "184434.160000", "184435.650000", "184437.140000", "184438.630000", "184440.120000", "184441.610000", "184443.100000", "184444.590000", "184446.080000", "184447.570000", "184449.060000", "184450.550000", "184452.040000", "184453.530000", "184455.020000", "184456.510000", "184458.000000", "184459.490000", "184500.980000", "184502.470000", "184503.960000", "184505.450000", "184506.940000", "184508.430000", "184509.920000", "184511.410000", "184512.900000", "184514.390000", "184515.880000", "184517.370000", "184518.860000", "184520.350000", "184521.840000", "184523.330000", "184524.820000", "184526.310000", "184527.800000", "184529.290000", "184530.780000", "184532.270000", "184533.760000", "184535.250000", "184536.740000", "184538.230000", "184539.720000", "184541.210000", "184542.700000", "184544.190000", "184545.680000", "184547.170000", "184548.660000", "184550.150000", "184551.640000", "184553.130000", "184554.620000", "184556.110000", "184557.600000", "184559.090000", "184600.580000", "184602.070000", "184603.560000", "184605.050000", "184606.540000", "184608.030000", "184609.520000", "184611.010000", "184612.500000", "184613.990000", "184615.480000", "184616.970000", "184618.460000", "184619.950000", "184621.440000", "184622.930000", "184624.420000", "184625.910000", "184627.400000", "184628.890000", "184630.380000", "184631.870000", "184633.360000", "184634.850000", "184636.340000", "184637.830000", "184639.320000", "184640.810000", "184642.300000", "184643.790000", "184645.280000", "184646.770000", "184648.260000", "184649.750000", "184651.240000", "184652.730000", "184654.220000", "184655.710000", "184657.200000", "184658.690000", "184700.180000", "184701.670000", "184703.160000", "184704.650000", "184706.140000", "184707.630000", "184709.120000", "184710.610000", "184712.100000", "184713.590000", "184715.080000", "184716.570000", "184718.060000", "184719.550000", "184721.040000", "184722.530000", "184724.020000", "184725.510000", "184727.000000", "184728.490000", "184729.980000", "184731.470000", "184732.960000", "184734.450000", "184735.940000", "184737.430000", "184738.920000", "184740.410000", "184741.900000", "184743.390000", "184744.880000", "184746.370000", "184747.860000", "184749.350000", "184750.840000", "184752.330000", "184753.820000", "184755.310000", "184756.800000", "184758.290000", "184759.780000", "184801.270000", "184802.760000", "184804.250000", "184805.740000", "184807.230000", "184808.720000", "184810.210000", "184811.700000", "184813.190000", "184814.680000", "184816.170000", "184817.660000", "184819.150000", "184820.640000", "184822.130000", "184823.620000", "184825.110000", "184826.600000", "184828.090000", "184829.580000", "184831.070000", "184832.560000", "184834.050000", "184835.540000", "184837.030000", "184838.520000", "184840.010000", "184841.500000", "184842.990000", "184844.480000", "184845.970000", "184847.460000", "184848.950000", "184850.440000", "184851.930000", "184853.420000", "184854.910000", "184856.400000", "184857.890000", "184859.380000", "184900.870000", "184902.360000", "184903.850000", "184905.340000", "184906.830000", "184908.320000", "184909.810000", "184911.300000", "184912.790000", "184914.280000", "184915.770000", "184917.260000", "184918.750000", "184920.240000", "184921.730000", "184923.220000", "184924.710000", "184926.200000", "184927.690000", "184929.180000", "184930.670000", "184932.160000", "184933.650000", "184935.140000", "184936.630000", "184938.120000", "184939.610000", "184941.100000", "184942.590000", "184944.080000", "184945.570000", "184947.060000", "184948.550000", "184950.040000", "184951.530000", "184953.020000", "184954.510000", "184956.000000", "184957.490000", "184958.980000", "185000.470000", "185001.960000", "185003.450000", "185004.940000", "185006.430000", "185007.920000", "185009.410000", "185010.900000", "185012.390000", "185013.880000", "185015.370000", "185016.860000", "185018.350000", "185019.840000", "185021.330000", "185022.820000", "185024.310000", "185025.800000", "185027.290000", "185028.780000", "185030.270000", "185031.760000", "185033.250000", "185034.740000", "185036.230000", "185037.720000", "185039.210000", "185040.700000", "185042.190000", "185043.680000", "185045.170000", "185046.660000", "185048.150000", "185049.640000", "185051.130000", "185052.620000", "185054.110000", "185055.600000", "185057.090000", "185058.580000", "185100.070000", "185101.560000", "185103.050000", "185104.540000", "185106.030000", "185107.520000", "185109.010000", "185110.500000", "185111.990000", "185113.480000", "185114.970000", "185116.460000", "185117.950000", "185119.440000", "185120.930000", "185122.420000", "185123.910000", "185125.400000", "185126.890000", "185128.380000", "185129.870000", "185131.360000", "185132.850000", "185134.340000", "185135.830000", "185137.320000", "185138.810000", "185140.300000", "185141.790000", "185143.280000", "185144.770000", "185146.260000", "185147.750000", "185149.240000", "185150.730000", "185152.220000", "185153.710000", "185155.200000", "185156.690000", "185158.180000", "185159.670000", "185201.160000", "185202.650000", "185204.140000", "185205.630000", "185207.120000", "185208.610000", "185210.100000", "185211.590000", "185213.080000", "185214.570000", "185216.060000", "185217.550000", "185219.040000", "185220.530000", "185222.020000", "185223.510000", "185225.000000", "185226.490000", "185227.980000", "185229.470000", "185230.960000", "185232.450000", "185233.940000", "185235.430000"],
      "ContentTime": ["184137.992000", "184138.002000", "184138.006000", "184138.009000", "184138.012000", "184138.016000", "184138.019000", "184138.023000", "184138.026000", "184138.030000", "184138.033000", "184138.036000", "184138.040000", "184138.043000", "184138.047000", "184138.050000", "184138.053000", "184138.057000", "184138.060000", "184138.063000", "184138.067000", "184138.070000", "184138.074000", "184138.077000", "184138.081000", "184138.084000", "184138.088000", "184138.091000", "184138.095000", "184138.098000", "184138.102000", "184138.109000", "184157.943000", "184157.947000", "184157.950000", "184157.954000", "184157.957000", "184157.960000", "184157.965000", "184157.968000", "184157.972000", "184157.975000", "184157.978000", "184157.982000", "184157.985000", "184157.988000", "184157.992000", "184157.995000", "184158.000000", "184158.003000", "184158.006000", "184158.010000", "184158.013000", "184217.943000", "184217.947000", "184217.950000", "184217.954000", "184217.957000", "184217.961000", "184217.965000", "184217.968000", "184217.971000", "184217.975000", "184217.978000", "184217.982000", "184217.985000", "184217.988000", "184217.992000", "184217.995000", "184218.000000", "184218.003000", "184218.006000", "184218.010000", "184237.942000", "184237.946000", "184237.949000", "184237.953000", "184237.956000", "184237.960000", "184237.963000", "184237.967000", "184237.970000", "184237.973000", "184237.977000", "184237.980000", "184237.984000", "184237.987000", "184237.991000", "184237.994000", "184237.997000", "184238.002000", "184238.005000", "184238.009000", "184317.942000", "184317.946000", "184317.949000", "184317.953000", "184317.956000", "184317.960000", "184317.963000", "184317.966000", "184317.970000", "184317.973000", "184317.977000", "184317.980000", "184317.983000", "184317.987000", "184318.007000", "184318.011000", "184318.014000", "184318.018000", "184318.021000", "184318.025000", "184318.028000", "184318.031000", "184318.035000", "184318.038000", "184318.042000", "184318.045000", "184318.048000", "184318.052000", "184318.055000", "184318.059000", "184318.062000", "184357.943000", "184357.947000", "184357.950000", "184357.954000", "184357.957000", "184357.961000", "184357.964000", "184357.967000", "184357.971000", "184357.974000", "184357.978000", "184357.981000", "184357.985000", "184357.988000", "184357.991000", "184357.995000", "184357.998000", "184358.003000", "184358.006000", "184358.009000", "184358.013000", "184358.016000", "184358.020000", "184358.023000", "184358.027000", "184358.030000", "184358.033000", "184437.943000", "184437.947000", "184437.951000", "184437.954000", "184437.957000", "184437.961000", "184437.964000", "184437.968000", "184437.971000", "184437.984000", "184437.987000", "184437.990000", "184437.994000", "184437.997000", "184438.002000", "184438.005000", "184438.016000", "184438.019000", "184438.023000", "184438.026000", "184438.030000", "184438.033000", "184438.036000", "184438.040000", "184438.043000", "184438.047000", "184438.050000", "184517.942000", "184517.946000", "184517.957000", "184517.961000", "184517.964000", "184517.968000", "184517.971000", "184517.975000", "184517.978000", "184517.981000", "184517.985000", "184517.988000", "184517.992000", "184517.995000", "184518.000000", "184518.003000", "184518.007000", "184518.010000", "184518.014000", "184518.017000", "184518.020000", "184518.024000", "184518.027000", "184518.031000", "184518.034000", "184518.038000", "184518.041000", "184557.943000", "184557.947000", "184557.951000", "184557.954000", "184557.957000", "184557.961000", "184557.964000", "184557.968000", "184557.971000", "184557.976000", "184557.980000", "184557.984000", "184557.988000", "184557.992000", "184557.996000", "184558.000000", "184558.003000", "184558.007000", "184558.010000", "184558.014000", "184558.017000", "184558.021000", "184558.024000", "184558.027000", "184558.031000", "184558.034000", "184637.943000", "184637.947000", "184637.951000", "184637.954000", "184637.957000", "184637.961000", "184637.964000", "184637.968000", "184637.971000", "184637.974000", "184637.978000", "184637.981000", "184637.985000", "184637.988000", "184637.991000", "184637.995000", "184638.008000", "184638.011000", "184638.015000", "184638.018000", "184638.022000", "184638.025000", "184638.029000", "184638.032000", "184638.036000", "184638.039000", "184638.043000", "184717.942000", "184717.946000", "184717.950000", "184717.953000", "184717.957000", "184717.960000", "184717.964000", "184717.967000", "184717.970000", "184717.974000", "184717.978000", "184717.981000", "184717.984000", "184717.988000", "184717.991000", "184717.995000", "184717.998000", "184718.003000", "184718.006000", "184718.009000", "184718.013000", "184718.016000", "184718.020000", "184718.023000", "184718.027000", "184718.030000", "184718.034000", "184757.942000", "184757.946000", "184757.950000", "184757.953000", "184757.956000", "184757.960000", "184757.963000", "184757.967000", "184757.970000", "184757.974000", "184757.977000", "184757.980000", "184757.984000", "184757.987000", "184757.991000", "184757.994000", "184758.005000", "184758.008000", "184758.011000", "184758.015000", "184758.018000", "184758.022000", "184758.025000", "184758.028000", "184758.032000", "184758.035000", "184758.039000", "184837.943000", "184837.947000", "184837.951000", "184837.954000", "184837.957000", "184837.961000", "184837.964000", "184837.968000", "184837.971000", "184837.975000", "184837.979000", "184837.982000", "184837.986000", "184837.989000", "184837.993000", "184837.996000", "184838.001000", "184838.004000", "184838.016000", "184838.020000", "184838.023000", "184838.026000", "184838.030000", "184838.033000", "184838.037000", "184838.040000", "184838.046000", "184917.944000", "184917.947000", "184917.951000", "184917.954000", "184917.958000", "184917.961000", "184917.965000", "184917.968000", "184917.971000", "184917.975000", "184917.978000", "184917.982000", "184917.985000", "184917.988000", "184917.992000", "184917.995000", "184918.000000", "184918.003000", "184918.007000", "184918.010000", "184918.013000", "184918.017000", "184918.020000", "184918.024000", "184918.027000", "184918.030000", "184918.034000", "184957.942000", "184957.946000", "184957.949000", "184957.953000", "184957.956000", "184957.960000", "184957.963000", "184957.967000", "184957.970000", "184957.973000", "184957.977000", "184957.980000", "184957.984000", "184957.987000", "184957.990000", "184957.994000", "184957.997000", "184958.002000", "184958.005000", "184958.009000", "184958.012000", "184958.015000", "184958.019000", "184958.022000", "184958.026000", "184958.029000", "184958.032000", "185037.943000", "185037.947000", "185037.951000", "185037.954000", "185037.957000", "185037.961000", "185037.965000", "185037.968000", "185037.972000", "185037.975000", "185037.979000", "185037.982000", "185037.985000", "185037.989000", "185037.992000", "185037.996000", "185038.000000", "185038.004000", "185038.007000", "185038.010000", "185038.014000", "185038.017000", "185038.021000", "185038.024000", "185038.028000", "185038.031000", "185117.944000", "185117.947000", "185117.951000", "185117.954000", "185117.958000", "185117.961000", "185117.964000", "185117.968000", "185117.971000", "185117.975000", "185117.978000", "185117.982000", "185117.985000", "185117.988000", "185117.992000", "185117.995000", "185118.000000", "185118.003000", "185118.007000", "185118.010000", "185118.013000", "185118.017000", "185118.020000", "185118.024000", "185118.027000", "185118.031000", "185118.034000", "185157.942000", "185157.946000", "185157.950000", "185157.953000", "185157.957000", "185157.960000", "185157.964000", "185157.967000", "185157.970000", "185157.974000", "185157.977000", "185157.981000", "185157.984000", "185157.988000", "185157.991000", "185157.995000", "185157.998000", "185158.003000", "185158.006000", "185158.010000", "185158.013000", "185158.016000", "185158.020000", "185158.023000", "185158.027000", "185158.030000", "185158.034000", "185237.930000", "185237.934000", "185237.937000", "185237.941000", "185237.944000", "185237.948000", "185237.951000", "185237.960000", "185237.964000", "185237.967000", "185237.970000", "185237.974000", "185237.977000", "185237.981000", "185237.984000", "185237.988000", "185237.991000", "185237.995000", "185237.998000", "185238.002000", "185238.006000", "185238.009000", "185238.013000", "185238.016000", "185238.020000", "185238.023000", "185238.026000"],
