{
  "AcquisitionMatrixPE": 104,
  "AcquisitionNumber": 1,
  "AcquisitionTime": "18:08:40.425000",
  "BandwidthPerPixelPhaseEncode": 17.17,
  "BaseResolution": 104,
  "BodyPartExamined": "BRAIN",
  "CoilCombinationMethod": "Sum of Squares",
  "ConsistencyInfo": "N4_VE11C_LATEST_20160120",
  "ConversionSoftware": "dcm2niix",
  "ConversionSoftwareVersion": "v1.0.20211006",
  "DerivedVendorReportedEchoSpacing": 0.000560011,
  "DeviceSerialNumber": "167006",
  "DwellTime": 2.1e-06,
  "EchoTime": 0.037,
  "EchoTrainLength": 104,
  "EffectiveEchoSpacing": 0.000560011,
  "FlipAngle": 52,
  "HeudiconvVersion": "0.5.3.post569+g418601f",
  "ImageComments": "Unaliased MB4/PE3/LB",
  "ImageOrientationPatientDICOM": [0.999486, -0.0318592, -0.00369391, 0.0282673, 0.929452, -0.367858],
  "ImageOrientationText": "Tra>Cor(-21.6)>Sag(-0.9)",
  "ImageType": [
    "ORIGINAL",
    "PRIMARY",
    "M",
    "MB",
    "ND",
    "MOSAIC"
],
  "ImagingFrequency": 123.259,
  "InPlanePhaseEncodingDirectionDICOM": "COL",
  "InstitutionAddress": "Chemin Queen-Mary 4565,Montreal,District,CA,H3W 1W5",
  "InstitutionName": "IUGM",
  "InstitutionalDepartmentName": "Department",
  "MRAcquisitionType": "2D",
  "MagneticFieldStrength": 3,
  "Manufacturer": "Siemens",
  "ManufacturersModelName": "Prisma_fit",
  "MatrixCoilMode": "SENSE",
  "Modality": "MR",
  "MultibandAccelerationFactor": 4,
  "PartialFourier": 1,
  "PatientPosition": "HFS",
  "PercentPhaseFOV": 100,
  "PercentSampling": 100,
  "PhaseEncodingDirection": "j",
  "PhaseEncodingSteps": 104,
  "PhaseResolution": 1,
  "PixelBandwidth": 2290,
  "ProcedureStepDescription": "games^mario",
  "ProtocolName": "func_task-mario_run-02",
  "PulseSequenceDetails": "%CustomerSeq%\\cmrr_mbep2d_bold",
  "ReceiveCoilActiveElements": "HC1-7;NC1,2",
  "ReceiveCoilName": "HeadNeck_64",
  "ReconMatrixPE": 104,
  "RepetitionTime": 1.49,
  "SAR": 0.0461531,
  "ScanOptions": "FS",
  "ScanningSequence": "EP",
  "SequenceName": "epfid2d1_104",
  "SequenceVariant": "SK\\SS",
  "SeriesDescription": "func_task-mario_run-02",
  "SeriesNumber": 13,
  "ShimSetting": [606, -7233, -8838, 405, 24, -354, 0, 34],
  "SliceThickness": 2,
  "SliceTiming": [0, 0.785, 0.1, 0.8825, 0.1975, 0.98, 0.295, 1.08, 0.3925, 1.1775, 0.49, 1.275, 0.59, 1.3725, 0.6875, 0, 0.785, 0.1, 0.8825, 0.1975, 0.98, 0.295, 1.08, 0.3925, 1.1775, 0.49, 1.275, 0.59, 1.3725, 0.6875, 0, 0.785, 0.1, 0.8825, 0.1975, 0.98, 0.295, 1.08, 0.3925, 1.1775, 0.49, 1.275, 0.59, 1.3725, 0.6875, 0, 0.785, 0.1, 0.8825, 0.1975, 0.98, 0.295, 1.08, 0.3925, 1.1775, 0.49, 1.275, 0.59, 1.3725, 0.6875],
  "SoftwareVersions": "syngo MR E11",
  "SpacingBetweenSlices": 2,
  "StationName": "MRC35049",
  "TaskName": "mario",
  "TotalReadoutTime": 0.0576811,
  "TxRefAmp": 253.537,
  "WipMemBlock": "f152cd36-7b57-45c7-928f-df4ace531cd8||Sequence: R016 ve11c/master r/e634e98; Dec 19 2017 11:00:25 by eja",
  "dcmmeta_affine": [
    [-1.9989711046218872, 0.05653464421629906, -0.030305949971079826, 101.89043426513672],
    [0.06371841579675674, 1.858904480934143, -0.7351285815238953, -64.46347045898438],
    [-0.007387818302959204, 0.735715925693512, 1.8597491979599, -72.52845764160156],
    [0.0, 0.0, 0.0, 1.0]
],
  "dcmmeta_reorient_transform": [
    [0.0, -1.0, 0.0, 103.0],
    [1.0, 0.0, 0.0, 0.0],
    [0.0, 0.0, 1.0, 0.0],
    [0.0, 0.0, 0.0, 1.0]
],
  "dcmmeta_shape": [104, 104, 60, 588],
  "dcmmeta_slice_dim": 2,
  "dcmmeta_version": 0.6,
  "global": {
    "const": {
      "AcquisitionMatrix": [104, 0, 0, 104],
      "AngioFlag": "N",
      "BitsAllocated": 16,
      "BitsStored": 16,
      "BodyPartExamined": "BRAIN",
      "Columns": 832,
      "EchoNumbers": 1,
      "EchoTime": 37.0,
      "EchoTrainLength": 104,
      "FlipAngle": 52.0,
      "HighBit": 15,
      "ImageOrientationPatient": [0.99948554060156, -0.0318592084671, -0.0036939090755, 0.02826732130904, 0.92945224411833, -0.3678579677667],
      "ImagePositionPatient": [-855.91758217802, -780.45142406394, 273.74004825146],
      "ImageType": [
        "ORIGINAL",
        "PRIMARY",
        "M",
        "MB",
        "ND",
        "MOSAIC"
],
      "ImagedNucleus": "1H",
      "ImagingFrequency": 123.258823,
      "InPlanePhaseEncodingDirection": "COL",
      "MRAcquisitionType": "2D",
      "MagneticFieldStrength": 3.0,
      "Manufacturer": "SIEMENS",
      "ManufacturerModelName": "Prisma_fit",
      "Modality": "MR",
      "NumberOfAverages": 1.0,
      "NumberOfPhaseEncodingSteps": 104,
      "PercentPhaseFieldOfView": 100.0,
      "PercentSampling": 100.0,
      "PerformedProcedureStepStartTime": "173041.189000",
      "PhotometricInterpretation": "MONOCHROME2",
      "PixelBandwidth": 2290.0,
      "PixelRepresentation": 0,
      "PixelSpacing": [2.0, 2.0],
      "ProtocolName": "func_task-mario_run-02",
      "RepetitionTime": 1490.0,
      "Rows": 832,
      "SAR": 0.04615312860801,
      "SamplesPerPixel": 1,
      "ScanOptions": "FS",
      "ScanningSequence": "EP",
      "SequenceName": "epfid2d1_104",
      "SequenceVariant": [
        "SK",
        "SS"
],
      "SeriesDescription": "func_task-mario_run-02",
      "SeriesNumber": 13,
      "SeriesTime": "181014.592000",
      "SliceLocation": -45.291849557539,
      "SliceThickness": 2.0,
      "SmallestImagePixelValue": 0,
      "SoftwareVersions": "syngo MR E11",
      "SpacingBetweenSlices": 1.9999999123349,
      "SpecificCharacterSet": "ISO_IR 100",
      "StudyID": "1",
      "StudyTime": "173041.137000",
      "TransmitCoilName": "Body",
      "VariableFlipAngleFlag": "N",
      "WindowCenterWidthExplanation": "Algo1",
      "dBdt": 0.0},
    "slices": {}
  },
  "time": {
    "samples": {
      "AcquisitionNumber": [1, 2, 3, 4, 5, 6, 7, 8, 9, 10, 11, 12, 13, 14, 15, 16, 17, 18, 19, 20, 21, 22, 23, 24, 25, 26, 27, 28, 29, 30, 31, 32, 33, 34, 35, 36, 37, 38, 39, 40, 41, 42, 43, 44, 45, 46, 47, 48, 49, 50, 51, 52, 53, 54, 55, 56, 57, 58, 59, 60, 61, 62, 63, 64, 65, 66, 67, 68, 69, 70, 71, 72, 73, 74, 75, 76, 77, 78, 79, 80, 81, 82, 83, 84, 85, 86, 87, 88, 89, 90, 91, 92, 93, 94, 95, 96, 97, 98, 99, 100, 101, 102, 103, 104, 105, 106, 107, 108, 109, 110, 111, 112, 113, 114, 115, 116, 117, 118, 119, 120, 121, 122, 123, 124, 125, 126, 127, 128, 129, 130, 131, 132, 133, 134, 135, 136, 137, 138, 139, 140, 141, 142, 143, 144, 145, 146, 147, 148, 149, 150, 151, 152, 153, 154, 155, 156, 157, 158, 159, 160, 161, 162, 163, 164, 165, 166, 167, 168, 169, 170, 171, 172, 173, 174, 175, 176, 177, 178, 179, 180, 181, 182, 183, 184, 185, 186, 187, 188, 189, 190, 191, 192, 193, 194, 195, 196, 197, 198, 199, 200, 201, 202, 203, 204, 205, 206, 207, 208, 209, 210, 211, 212, 213, 214, 215, 216, 217, 218, 219, 220, 221, 222, 223, 224, 225, 226, 227, 228, 229, 230, 231, 232, 233, 234, 235, 236, 237, 238, 239, 240, 241, 242, 243, 244, 245, 246, 247, 248, 249, 250, 251, 252, 253, 254, 255, 256, 257, 258, 259, 260, 261, 262, 263, 264, 265, 266, 267, 268, 269, 270, 271, 272, 273, 274, 275, 276, 277, 278, 279, 280, 281, 282, 283, 284, 285, 286, 287, 288, 289, 290, 291, 292, 293, 294, 295, 296, 297, 298, 299, 300, 301, 302, 303, 304, 305, 306, 307, 308, 309, 310, 311, 312, 313, 314, 315, 316, 317, 318, 319, 320, 321, 322, 323, 324, 325, 326, 327, 328, 329, 330, 331, 332, 333, 334, 335, 336, 337, 338, 339, 340, 341, 342, 343, 344, 345, 346, 347, 348, 349, 350, 351, 352, 353, 354, 355, 356, 357, 358, 359, 360, 361, 362, 363, 364, 365, 366, 367, 368, 369, 370, 371, 372, 373, 374, 375, 376, 377, 378, 379, 380, 381, 382, 383, 384, 385, 386, 387, 388, 389, 390, 391, 392, 393, 394, 395, 396, 397, 398, 399, 400, 401, 402, 403, 404, 405, 406, 407, 408, 409, 410, 411, 412, 413, 414, 415, 416, 417, 418, 419, 420, 421, 422, 423, 424, 425, 426, 427, 428, 429, 430, 431, 432, 433, 434, 435, 436, 437, 438, 439, 440, 441, 442, 443, 444, 445, 446, 447, 448, 449, 450, 451, 452, 453, 454, 455, 456, 457, 458, 459, 460, 461, 462, 463, 464, 465, 466, 467, 468, 469, 470, 471, 472, 473, 474, 475, 476, 477, 478, 479, 480, 481, 482, 483, 484, 485, 486, 487, 488, 489, 490, 491, 492, 493, 494, 495, 496, 497, 498, 499, 500, 501, 502, 503, 504, 505, 506, 507, 508, 509, 510, 511, 512, 513, 514, 515, 516, 517, 518, 519, 520, 521, 522, 523, 524, 525, 526, 527, 528, 529, 530, 531, 532, 533, 534, 535, 536, 537, 538, 539, 540, 541, 542, 543, 544, 545, 546, 547, 548, 549, 550, 551, 552, 553, 554, 555, 556, 557, 558, 559, 560, 561, 562, 563, 564, 565, 566, 567, 568, 569, 570, 571, 572, 573, 574, 575, 576, 577, 578, 579, 580, 581, 582, 583, 584, 585, 586, 587, 588],
      "AcquisitionTime": ["180840.425000", "180841.915000", "180843.405000", "180844.895000", "180846.385000", "180847.875000", "180849.365000", "180850.855000", "180852.345000", "180853.835000", "180855.325000", "180856.815000", "180858.305000", "180859.795000", "180901.285000", "180902.775000", "180904.265000", "180905.755000", "180907.245000", "180908.735000", "180910.225000", "180911.715000", "180913.205000", "180914.695000", "180916.185000", "180917.675000", "180919.165000", "180920.655000", "180922.145000", "180923.635000", "180925.125000", "180926.615000", "180928.105000", "180929.595000", "180931.085000", "180932.575000", "180934.065000", "180935.555000", "180937.045000", "180938.535000", "180940.025000", "180941.515000", "180943.005000", "180944.495000", "180945.985000", "180947.475000", "180948.965000", "180950.455000", "180951.945000", "180953.435000", "180954.925000", "180956.415000", "180957.905000", "180959.395000", "181000.885000", "181002.375000", "181003.865000", "181005.355000", "181006.845000", "181008.335000", "181009.825000", "181011.315000", "181012.805000", "181014.295000", "181015.785000", "181017.275000", "181018.765000", "181020.255000", "181021.745000", "181023.235000", "181024.725000", "181026.215000", "181027.705000", "181029.195000", "181030.685000", "181032.175000", "181033.665000", "181035.155000", "181036.645000", "181038.135000", "181039.625000", "181041.115000", "181042.605000", "181044.095000", "181045.585000", "181047.075000", "181048.565000", "181050.055000", "181051.545000", "181053.035000", "181054.525000", "181056.015000", "181057.505000", "181058.995000", "181100.485000", "181101.975000", "181103.465000", "181104.955000", "181106.445000", "181107.935000", "181109.425000", "181110.915000", "181112.405000", "181113.895000", "181115.385000", "181116.875000", "181118.365000", "181119.855000", "181121.345000", "181122.835000", "181124.325000", "181125.815000", "181127.305000", "181128.795000", "181130.285000", "181131.775000", "181133.265000", "181134.755000", "181136.245000", "181137.735000", "181139.225000", "181140.715000", "181142.205000", "181143.695000", "181145.185000", "181146.675000", "181148.165000", "181149.655000", "181151.145000", "181152.635000", "181154.125000", "181155.615000", "181157.105000", "181158.595000", "181200.085000", "181201.575000", "181203.065000", "181204.555000", "181206.045000", "181207.535000", "181209.025000", "181210.515000", "181212.005000", "181213.495000", "181214.985000", "181216.475000", "181217.965000", "181219.455000", "181220.945000", "181222.435000", "181223.925000", "181225.415000", "181226.905000", "181228.395000", "181229.885000", "181231.375000", "181232.865000", "181234.355000", "181235.845000", "181237.335000", "181238.825000", "181240.315000", "181241.805000", "181243.295000", "181244.785000", "181246.275000", "181247.765000", "181249.255000", "181250.745000", "181252.235000", "181253.725000", "181255.215000", "181256.705000", "181258.195000", "181259.685000", "181301.175000", "181302.665000", "181304.155000", "181305.645000", "181307.135000", "181308.625000", "181310.115000", "181311.605000", "181313.095000", "181314.585000", "181316.075000", "181317.565000", "181319.055000", "181320.545000", "181322.035000", "181323.525000", "181325.015000", "181326.505000", "181327.995000", "181329.485000", "181330.975000", "181332.465000", "181333.955000", "181335.445000", "181336.935000", "181338.425000", "181339.915000", "181341.405000", "181342.895000", "181344.385000", "181345.875000", "181347.365000", "181348.855000", "181350.345000", "181351.835000", "181353.325000", "181354.815000", "181356.305000", "181357.795000", "181359.285000", "181400.775000", "181402.265000", "181403.755000", "181405.245000", "181406.735000", "181408.225000", "181409.715000", "181411.205000", "181412.695000", "181414.185000", "181415.675000", "181417.165000", "181418.655000", "181420.145000", "181421.635000", "181423.125000", "181424.615000", "181426.105000", "181427.595000", "181429.085000", "181430.575000", "181432.065000", "181433.555000", "181435.045000", "181436.535000", "181438.025000", "181439.515000", "181441.005000", "181442.495000", "181443.985000", "181445.475000", "181446.965000", "181448.455000", "181449.945000", "181451.435000", "181452.925000", "181454.415000", "181455.905000", "181457.395000", "181458.885000", "181500.375000", "181501.865000", "181503.355000", "181504.845000", "181506.335000", "181507.825000", "181509.315000", "181510.805000", "181512.295000", "181513.785000", "181515.275000", "181516.765000", "181518.255000", "181519.745000", "181521.235000", "181522.725000", "181524.215000", "181525.705000", "181527.195000", "181528.685000", "181530.175000", "181531.665000", "181533.155000", "181534.645000", "181536.135000", "181537.625000", "181539.115000", "181540.605000", "181542.095000", "181543.585000", "181545.075000", "181546.565000", "181548.055000", "181549.545000", "181551.035000", "181552.525000", "181554.015000", "181555.505000", "181556.995000", "181558.485000", "181559.975000", "181601.465000", "181602.955000", "181604.445000", "181605.935000", "181607.425000", "181608.915000", "181610.405000", "181611.895000", "181613.385000", "181614.875000", "181616.365000", "181617.855000", "181619.345000", "181620.835000", "181622.325000", "181623.815000", "181625.305000", "181626.795000", "181628.285000", "181629.775000", "181631.265000", "181632.755000", "181634.245000", "181635.735000", "181637.225000", "181638.715000", "181640.205000", "181641.695000", "181643.185000", "181644.675000", "181646.165000", "181647.655000", "181649.145000", "181650.635000", "181652.125000", "181653.615000", "181655.105000", "181656.595000", "181658.085000", "181659.575000", "181701.065000", "181702.555000", "181704.045000", "181705.535000", "181707.025000", "181708.515000", "181710.005000", "181711.495000", "181712.985000", "181714.475000", "181715.965000", "181717.455000", "181718.945000", "181720.435000", "181721.925000", "181723.415000", "181724.905000", "181726.395000", "181727.885000", "181729.375000", "181730.865000", "181732.355000", "181733.845000", "181735.335000", "181736.825000", "181738.315000", "181739.805000", "181741.295000", "181742.785000", "181744.275000", "181745.765000", "181747.255000", "181748.745000", "181750.235000", "181751.725000", "181753.215000", "181754.705000", "181756.195000", "181757.685000", "181759.175000", "181800.665000", "181802.155000", "181803.645000", "181805.135000", "181806.625000", "181808.115000", "181809.605000", "181811.095000", "181812.585000", "181814.075000", "181815.565000", "181817.055000", "181818.545000", "181820.035000", "181821.525000", "181823.015000", "181824.505000", "181825.995000", "181827.485000", "181828.975000", "181830.465000", "181831.955000", "181833.445000", "181834.935000", "181836.425000", "181837.915000", "181839.405000", "181840.895000", "181842.385000", "181843.875000", "181845.365000", "181846.855000", "181848.345000", "181849.835000", "181851.325000", "181852.815000", "181854.305000", "181855.795000", "181857.285000", "181858.775000", "181900.265000", "181901.755000", "181903.245000", "181904.735000", "181906.225000", "181907.715000", "181909.205000", "181910.695000", "181912.185000", "181913.675000", "181915.165000", "181916.655000", "181918.145000", "181919.635000", "181921.125000", "181922.615000", "181924.105000", "181925.595000", "181927.085000", "181928.575000", "181930.065000", "181931.555000", "181933.045000", "181934.535000", "181936.025000", "181937.515000", "181939.005000", "181940.495000", "181941.985000", "181943.475000", "181944.965000", "181946.455000", "181947.945000", "181949.435000", "181950.925000", "181952.415000", "181953.905000", "181955.395000", "181956.885000", "181958.375000", "181959.865000", "182001.355000", "182002.845000", "182004.335000", "182005.825000", "182007.315000", "182008.805000", "182010.295000", "182011.785000", "182013.275000", "182014.765000", "182016.255000", "182017.745000", "182019.235000", "182020.725000", "182022.215000", "182023.705000", "182025.195000", "182026.685000", "182028.175000", "182029.665000", "182031.155000", "182032.645000", "182034.135000", "182035.625000", "182037.115000", "182038.605000", "182040.095000", "182041.585000", "182043.075000", "182044.565000", "182046.055000", "182047.545000", "182049.035000", "182050.525000", "182052.015000", "182053.505000", "182054.995000", "182056.485000", "182057.975000", "182059.465000", "182100.955000", "182102.445000", "182103.935000", "182105.425000", "182106.915000", "182108.405000", "182109.895000", "182111.385000", "182112.875000", "182114.365000", "182115.855000", "182117.345000", "182118.835000", "182120.325000", "182121.815000", "182123.305000", "182124.795000", "182126.285000", "182127.775000", "182129.265000", "182130.755000", "182132.245000", "182133.735000", "182135.225000", "182136.715000", "182138.205000", "182139.695000", "182141.185000", "182142.675000", "182144.165000", "182145.655000", "182147.145000", "182148.635000", "182150.125000", "182151.615000", "182153.105000", "182154.595000", "182156.085000", "182157.575000", "182159.065000", "182200.555000", "182202.045000", "182203.535000", "182205.025000", "182206.515000", "182208.005000", "182209.495000", "182210.985000", "182212.475000", "182213.965000", "182215.455000", "182216.945000", "182218.435000", "182219.925000", "182221.415000", "182222.905000", "182224.395000", "182225.885000", "182227.375000", "182228.865000", "182230.355000", "182231.845000", "182233.335000", "182234.825000", "182236.315000", "182237.805000", "182239.295000", "182240.785000", "182242.275000", "182243.765000", "182245.255000", "182246.745000", "182248.235000", "182249.725000", "182251.215000", "182252.705000", "182254.195000", "182255.685000", "182257.175000", "182258.665000", "182300.155000", "182301.645000", "182303.135000", "182304.625000", "182306.115000", "182307.605000", "182309.095000", "182310.585000", "182312.075000", "182313.565000", "182315.055000"],
      "ContentTime": ["181014.595000", "181014.599000", "181014.603000", "181014.606000", "181014.609000", "181014.613000", "181014.616000", "181014.620000", "181014.623000", "181014.626000", "181014.630000", "181014.633000", "181014.637000", "181014.640000", "181014.643000", "181014.647000", "181014.650000", "181014.653000", "181014.657000", "181014.660000", "181014.664000", "181014.667000", "181014.671000", "181014.683000", "181014.687000", "181014.690000", "181014.694000", "181014.697000", "181014.701000", "181014.704000", "181014.707000", "181014.711000", "181014.714000", "181014.718000", "181014.721000", "181014.724000", "181014.728000", "181014.731000", "181014.735000", "181034.547000", "181034.551000", "181034.554000", "181034.558000", "181034.561000", "181034.564000", "181034.568000", "181034.571000", "181034.575000", "181034.578000", "181034.581000", "181034.585000", "181034.588000", "181034.594000", "181034.598000", "181034.601000", "181034.604000", "181034.608000", "181034.611000", "181034.614000", "181054.547000", "181054.551000", "181054.554000", "181054.558000", "181054.561000", "181054.564000", "181054.568000", "181054.571000", "181054.575000", "181054.578000", "181054.581000", "181054.585000", "181054.588000", "181054.591000", "181054.595000", "181054.598000", "181054.602000", "181054.605000", "181054.608000", "181054.612000", "181114.547000", "181114.551000", "181114.554000", "181114.558000", "181114.561000", "181114.564000", "181114.568000", "181114.571000", "181114.575000", "181114.578000", "181114.581000", "181114.585000", "181114.588000", "181114.591000", "181114.595000", "181114.598000", "181114.602000", "181114.605000", "181114.608000", "181114.612000", "181154.547000", "181154.551000", "181154.555000", "181154.558000", "181154.562000", "181154.565000", "181154.568000", "181154.572000", "181154.575000", "181154.579000", "181154.582000", "181154.586000", "181154.589000", "181154.593000", "181154.596000", "181154.600000", "181154.603000", "181154.606000", "181154.610000", "181154.613000", "181154.617000", "181154.620000", "181154.624000", "181154.627000", "181154.631000", "181154.636000", "181154.641000", "181154.645000", "181154.649000", "181154.652000", "181234.547000", "181234.551000", "181234.554000", "181234.558000", "181234.561000", "181234.565000", "181234.568000", "181234.572000", "181234.575000", "181234.579000", "181234.582000", "181234.585000", "181234.589000", "181234.592000", "181234.596000", "181234.599000", "181234.602000", "181234.606000", "181234.609000", "181234.613000", "181234.616000", "181234.619000", "181234.623000", "181234.626000", "181234.629000", "181234.633000", "181234.636000", "181314.547000", "181314.551000", "181314.555000", "181314.570000", "181314.574000", "181314.577000", "181314.581000", "181314.584000", "181314.587000", "181314.591000", "181314.594000", "181314.598000", "181314.601000", "181314.605000", "181314.608000", "181314.611000", "181314.615000", "181314.618000", "181314.622000", "181314.625000", "181314.629000", "181314.632000", "181314.636000", "181314.639000", "181314.642000", "181314.646000", "181314.649000", "181354.548000", "181354.552000", "181354.556000", "181354.559000", "181354.562000", "181354.566000", "181354.569000", "181354.573000", "181354.576000", "181354.580000", "181354.583000", "181354.586000", "181354.590000", "181354.593000", "181354.596000", "181354.600000", "181354.603000", "181354.607000", "181354.610000", "181354.614000", "181354.617000", "181354.620000", "181354.624000", "181354.627000", "181354.630000", "181354.634000", "181354.637000", "181434.547000", "181434.551000", "181434.554000", "181434.558000", "181434.561000", "181434.565000", "181434.568000", "181434.572000", "181434.575000", "181434.578000", "181434.582000", "181434.585000", "181434.589000", "181434.592000", "181434.595000", "181434.599000", "181434.602000", "181434.606000", "181434.609000", "181434.612000", "181434.616000", "181434.619000", "181434.623000", "181434.626000", "181434.629000", "181434.633000", "181434.636000", "181514.547000", "181514.551000", "181514.559000", "181514.562000", "181514.565000", "181514.569000", "181514.573000", "181514.576000", "181514.580000", "181514.583000", "181514.587000", "181514.590000", "181514.593000", "181514.597000", "181514.600000", "181514.604000", "181514.607000", "181514.611000", "181514.614000", "181514.618000", "181514.621000", "181514.625000", "181514.628000", "181514.631000", "181514.635000", "181514.657000", "181514.660000", "181554.547000", "181554.551000", "181554.554000", "181554.558000", "181554.561000", "181554.564000", "181554.568000", "181554.571000", "181554.575000", "181554.578000", "181554.582000", "181554.585000", "181554.589000", "181554.592000", "181554.595000", "181554.599000", "181554.602000", "181554.606000", "181554.609000", "181554.612000", "181554.616000", "181554.619000", "181554.623000", "181554.626000", "181554.629000", "181554.633000", "181554.636000", "181634.547000", "181634.551000", "181634.555000", "181634.558000", "181634.561000", "181634.565000", "181634.568000", "181634.572000", "181634.575000", "181634.579000", "181634.582000", "181634.586000", "181634.589000", "181634.592000", "181634.596000", "181634.599000", "181634.603000", "181634.606000", "181634.610000", "181634.613000", "181634.617000", "181634.621000", "181634.624000", "181634.628000", "181634.631000", "181634.635000", "181714.547000", "181714.551000", "181714.555000", "181714.558000", "181714.562000", "181714.565000", "181714.568000", "181714.572000", "181714.575000", "181714.579000", "181714.582000", "181714.586000", "181714.589000", "181714.593000", "181714.596000", "181714.599000", "181714.603000", "181714.606000", "181714.610000", "181714.613000", "181714.616000", "181714.620000", "181714.623000", "181714.627000", "181714.630000", "181714.633000", "181714.637000", "181754.547000", "181754.551000", "181754.575000", "181754.578000", "181754.590000", "181754.594000", "181754.597000", "181754.600000", "181754.604000", "181754.607000", "181754.611000", "181754.614000", "181754.618000", "181754.621000", "181754.624000", "181754.628000", "181754.631000", "181754.635000", "181754.639000", "181754.642000", "181754.646000", "181754.649000", "181754.652000", "181754.656000", "181754.659000", "181754.663000", "181754.666000", "181834.548000", "181834.552000", "181834.555000", "181834.559000", "181834.562000", "181834.566000", "181834.571000", "181834.574000", "181834.578000", "181834.581000", "181834.585000", "181834.588000", "181834.591000", "181834.595000", "181834.598000", "181834.602000", "181834.605000", "181834.608000", "181834.612000", "181834.615000", "181834.619000", "181834.622000", "181834.625000", "181834.629000", "181834.632000", "181834.636000", "181834.639000", "181914.548000", "181914.551000", "181914.555000", "181914.558000", "181914.561000", "181914.565000", "181914.568000", "181914.572000", "181914.575000", "181914.579000", "181914.582000", "181914.585000", "181914.589000", "181914.592000", "181914.596000", "181914.599000", "181914.603000", "181914.606000", "181914.609000", "181914.613000", "181914.616000", "181914.619000", "181914.623000", "181914.626000", "181914.630000", "181914.633000", "181914.636000", "181954.547000", "181954.551000", "181954.554000", "181954.558000", "181954.561000", "181954.565000", "181954.568000", "181954.572000", "181954.575000", "181954.578000", "181954.582000", "181954.585000", "181954.589000", "181954.592000", "181954.595000", "181954.599000", "181954.617000", "181954.620000", "181954.624000", "181954.627000", "181954.631000", "181954.634000", "181954.637000", "181954.641000", "181954.644000", "181954.648000", "181954.651000", "182034.547000", "182034.551000", "182034.555000", "182034.558000", "182034.562000", "182034.565000", "182034.569000", "182034.572000", "182034.575000", "182034.579000", "182034.582000", "182034.586000", "182034.589000", "182034.593000", "182034.596000", "182034.599000", "182034.603000", "182034.606000", "182034.610000", "182034.613000", "182034.616000", "182034.620000", "182034.624000", "182034.627000", "182034.630000", "182034.634000", "182114.547000", "182114.551000", "182114.554000", "182114.558000", "182114.561000", "182114.565000", "182114.568000", "182114.572000", "182114.575000", "182114.579000", "182114.582000", "182114.585000", "182114.589000", "182114.592000", "182114.595000", "182114.599000", "182114.602000", "182114.606000", "182114.609000", "182114.613000", "182114.616000", "182114.619000", "182114.623000", "182114.626000", "182114.630000", "182114.633000", "182114.636000", "182154.547000", "182154.551000", "182154.555000", "182154.558000", "182154.561000", "182154.565000", "182154.568000", "182154.572000", "182154.575000", "182154.579000", "182154.582000", "182154.586000", "182154.589000", "182154.592000", "182154.596000", "182154.599000", "182154.603000", "182154.606000", "182154.609000", "182154.613000", "182154.616000", "182154.620000", "182154.623000", "182154.626000", "182154.643000", "182154.647000", "182154.650000", "182234.547000", "182234.551000", "182234.554000", "182234.558000", "182234.561000", "182234.565000", "182234.568000", "182234.571000", "182234.575000", "182234.578000", "182234.582000", "182234.585000", "182234.588000", "182234.592000", "182234.595000", "182234.599000", "182234.602000", "182234.606000", "182234.609000", "182234.613000", "182234.616000", "182234.619000", "182234.623000", "182234.626000", "182234.630000", "182234.633000", "182234.636000", "182314.547000", "182314.551000", "182314.555000", "182314.558000", "182314.561000", "182314.565000", "182314.569000", "182314.572000", "182314.575000", "182314.579000", "182314.582000", "182314.586000", "182314.589000", "182314.592000", "182314.596000", "182314.599000", "182314.603000", "182314.606000", "182314.609000", "182314.613000", "182314.616000", "182314.620000", "182314.623000", "182314.626000", "182314.630000", "182314.633000", "182314.637000", "182317.263000", "182317.266000"],
