{
  "AcquisitionMatrixPE": 104,
  "AcquisitionNumber": 1,
  "AcquisitionTime": "16:26:12.985000",
  "BandwidthPerPixelPhaseEncode": 17.17,
  "BaseResolution": 104,
  "BodyPartExamined": "BRAIN",
  "CoilCombinationMethod": "Sum of Squares",
  "ConsistencyInfo": "N4_VE11C_LATEST_20160120",
  "ConversionSoftware": "dcm2niix",
  "ConversionSoftwareVersion": "v1.0.20211006",
  "DerivedVendorReportedEchoSpacing": 0.000560011,
  "DeviceSerialNumber": "167006",
  "DwellTime": 2.1e-06,
  "EchoTime": 0.037,
  "EchoTrainLength": 104,
  "EffectiveEchoSpacing": 0.000560011,
  "FlipAngle": 52,
  "HeudiconvVersion": "0.10.0",
  "ImageComments": "Unaliased MB4/PE3/LB",
  "ImageOrientationPatientDICOM": [0.999218, -0.0383265, 0.0096779, 0.0394341, 0.94947, -0.311372],
  "ImageOrientationText": "Tra>Cor(-18.2)>Sag(-0.2)",
  "ImageType": [
    "ORIGINAL",
    "PRIMARY",
    "M",
    "MB",
    "ND",
    "MOSAIC"
],
  "ImagingFrequency": 123.259,
  "InPlanePhaseEncodingDirectionDICOM": "COL",
  "InstitutionAddress": "Chemin Queen-Mary 4565,Montreal,District,CA,H3W 1W5",
  "InstitutionName": "IUGM",
  "InstitutionalDepartmentName": "Department",
  "MRAcquisitionType": "2D",
  "MagneticFieldStrength": 3,
  "Manufacturer": "Siemens",
  "ManufacturersModelName": "Prisma_fit",
  "MatrixCoilMode": "SENSE",
  "Modality": "MR",
  "MultibandAccelerationFactor": 4,
  "PartialFourier": 1,
  "PatientPosition": "HFS",
  "PercentPhaseFOV": 100,
  "PercentSampling": 100,
  "PhaseEncodingDirection": "j",
  "PhaseEncodingSteps": 104,
  "PhaseResolution": 1,
  "PixelBandwidth": 2290,
  "ProcedureStepDescription": "games^mario",
  "ProtocolName": "func_task-mario_run-03",
  "PulseSequenceDetails": "%CustomerSeq%\\cmrr_mbep2d_bold",
  "ReceiveCoilActiveElements": "HC1-7;NC1,2",
  "ReceiveCoilName": "HeadNeck_64",
  "ReconMatrixPE": 104,
  "RepetitionTime": 1.49,
  "SAR": 0.0440264,
  "ScanOptions": "FS",
  "ScanningSequence": "EP",
  "SequenceName": "epfid2d1_104",
  "SequenceVariant": "SK\\SS",
  "SeriesDescription": "func_task-mario_run-03",
  "SeriesNumber": 16,
  "ShimSetting": [630, -7256, -8819, 582, 1, -224, -41, -28],
  "SliceThickness": 2,
  "SliceTiming": [0, 0.7825, 0.0975, 0.88, 0.195, 0.98, 0.2925, 1.0775, 0.39, 1.175, 0.49, 1.2725, 0.5875, 1.37, 0.685, 0, 0.7825, 0.0975, 0.88, 0.195, 0.98, 0.2925, 1.0775, 0.39, 1.175, 0.49, 1.2725, 0.5875, 1.37, 0.685, 0, 0.7825, 0.0975, 0.88, 0.195, 0.98, 0.2925, 1.0775, 0.39, 1.175, 0.49, 1.2725, 0.5875, 1.37, 0.685, 0, 0.7825, 0.0975, 0.88, 0.195, 0.98, 0.2925, 1.0775, 0.39, 1.175, 0.49, 1.2725, 0.5875, 1.37, 0.685],
  "SoftwareVersions": "syngo MR E11",
  "SpacingBetweenSlices": 2,
  "StationName": "MRC35049",
  "TaskName": "mario",
  "TotalReadoutTime": 0.0576811,
  "TxRefAmp": 244.929,
  "WipMemBlock": "ea5b54bd-3a7c-4631-8ac2-de6b46940a25||Sequence: R016 ve11c/master r/e634e98; Dec 19 2017 11:00:25 by eja",
  "dcmmeta_affine": [
    [-1.9984368085861206, 0.07886814326047897, -0.005489817354828119, 102.61856842041016],
    [0.07665295898914337, 1.8989393711090088, -0.623019814491272, -69.53951263427734],
    [0.01935579441487789, 0.6227432489395142, 1.9004778861999512, -63.41356658935547],
    [0.0, 0.0, 0.0, 1.0]
],
  "dcmmeta_reorient_transform": [
    [0.0, -1.0, 0.0, 103.0],
    [1.0, 0.0, 0.0, 0.0],
    [0.0, 0.0, 1.0, 0.0],
    [0.0, 0.0, 0.0, 1.0]
],
  "dcmmeta_shape": [104, 104, 60, 504],
  "dcmmeta_slice_dim": 2,
  "dcmmeta_version": 0.6,
  "global": {
    "const": {
      "AcquisitionMatrix": [104, 0, 0, 104],
      "AngioFlag": "N",
      "BitsAllocated": 16,
      "BitsStored": 16,
      "BodyPartExamined": "BRAIN",
      "Columns": 832,
      "EchoNumbers": 1,
      "EchoTime": 37.0,
      "EchoTrainLength": 104,
      "FlipAngle": 52.0,
      "HighBit": 15,
      "ImageOrientationPatient": [0.99921840421998, -0.0383264788353, 0.00967789688748, 0.03943407339175, 0.94946967305404, -0.3113716329507],
      "ImagePositionPatient": [-866.88098881055, -789.36348835907, 220.36202882819],
      "ImageType": [
        "ORIGINAL",
        "PRIMARY",
        "M",
        "MB",
        "ND",
        "MOSAIC"
],
      "ImagedNucleus": "1H",
      "ImagingFrequency": 123.258825,
      "InPlanePhaseEncodingDirection": "COL",
      "MRAcquisitionType": "2D",
      "MagneticFieldStrength": 3.0,
      "Manufacturer": "SIEMENS",
      "ManufacturerModelName": "Prisma_fit",
      "Modality": "MR",
      "NumberOfAverages": 1.0,
      "NumberOfPhaseEncodingSteps": 104,
      "PercentPhaseFieldOfView": 100.0,
      "PercentSampling": 100.0,
      "PerformedProcedureStepStartTime": "151632.683000",
      "PhotometricInterpretation": "MONOCHROME2",
      "PixelBandwidth": 2290.0,
      "PixelRepresentation": 0,
      "PixelSpacing": [2.0, 2.0],
      "ProtocolName": "func_task-mario_run-03",
      "RepetitionTime": 1490.0,
      "Rows": 832,
      "SAR": 0.044026387607,
      "SamplesPerPixel": 1,
      "ScanOptions": "FS",
      "ScanningSequence": "EP",
      "SequenceName": "epfid2d1_104",
      "SequenceVariant": [
        "SK",
        "SS"
],
      "SeriesDescription": "func_task-mario_run-03",
      "SeriesNumber": 16,
      "SeriesTime": "162711.444000",
      "SliceLocation": -38.877473662183,
      "SliceThickness": 2.0,
      "SmallestImagePixelValue": 0,
      "SoftwareVersions": "syngo MR E11",
      "SpacingBetweenSlices": 1.9999999605102,
      "SpecificCharacterSet": "ISO_IR 100",
      "StudyID": "1",
      "StudyTime": "151632.624000",
      "TransmitCoilName": "Body",
      "VariableFlipAngleFlag": "N",
      "WindowCenterWidthExplanation": "Algo1",
      "dBdt": 0.0},
    "slices": {}
  },
  "time": {
    "samples": {
      "AcquisitionNumber": [1, 2, 3, 4, 5, 6, 7, 8, 9, 10, 11, 12, 13, 14, 15, 16, 17, 18, 19, 20, 21, 22, 23, 24, 25, 26, 27, 28, 29, 30, 31, 32, 33, 34, 35, 36, 37, 38, 39, 40, 41, 42, 43, 44, 45, 46, 47, 48, 49, 50, 51, 52, 53, 54, 55, 56, 57, 58, 59, 60, 61, 62, 63, 64, 65, 66, 67, 68, 69, 70, 71, 72, 73, 74, 75, 76, 77, 78, 79, 80, 81, 82, 83, 84, 85, 86, 87, 88, 89, 90, 91, 92, 93, 94, 95, 96, 97, 98, 99, 100, 101, 102, 103, 104, 105, 106, 107, 108, 109, 110, 111, 112, 113, 114, 115, 116, 117, 118, 119, 120, 121, 122, 123, 124, 125, 126, 127, 128, 129, 130, 131, 132, 133, 134, 135, 136, 137, 138, 139, 140, 141, 142, 143, 144, 145, 146, 147, 148, 149, 150, 151, 152, 153, 154, 155, 156, 157, 158, 159, 160, 161, 162, 163, 164, 165, 166, 167, 168, 169, 170, 171, 172, 173, 174, 175, 176, 177, 178, 179, 180, 181, 182, 183, 184, 185, 186, 187, 188, 189, 190, 191, 192, 193, 194, 195, 196, 197, 198, 199, 200, 201, 202, 203, 204, 205, 206, 207, 208, 209, 210, 211, 212, 213, 214, 215, 216, 217, 218, 219, 220, 221, 222, 223, 224, 225, 226, 227, 228, 229, 230, 231, 232, 233, 234, 235, 236, 237, 238, 239, 240, 241, 242, 243, 244, 245, 246, 247, 248, 249, 250, 251, 252, 253, 254, 255, 256, 257, 258, 259, 260, 261, 262, 263, 264, 265, 266, 267, 268, 269, 270, 271, 272, 273, 274, 275, 276, 277, 278, 279, 280, 281, 282, 283, 284, 285, 286, 287, 288, 289, 290, 291, 292, 293, 294, 295, 296, 297, 298, 299, 300, 301, 302, 303, 304, 305, 306, 307, 308, 309, 310, 311, 312, 313, 314, 315, 316, 317, 318, 319, 320, 321, 322, 323, 324, 325, 326, 327, 328, 329, 330, 331, 332, 333, 334, 335, 336, 337, 338, 339, 340, 341, 342, 343, 344, 345, 346, 347, 348, 349, 350, 351, 352, 353, 354, 355, 356, 357, 358, 359, 360, 361, 362, 363, 364, 365, 366, 367, 368, 369, 370, 371, 372, 373, 374, 375, 376, 377, 378, 379, 380, 381, 382, 383, 384, 385, 386, 387, 388, 389, 390, 391, 392, 393, 394, 395, 396, 397, 398, 399, 400, 401, 402, 403, 404, 405, 406, 407, 408, 409, 410, 411, 412, 413, 414, 415, 416, 417, 418, 419, 420, 421, 422, 423, 424, 425, 426, 427, 428, 429, 430, 431, 432, 433, 434, 435, 436, 437, 438, 439, 440, 441, 442, 443, 444, 445, 446, 447, 448, 449, 450, 451, 452, 453, 454, 455, 456, 457, 458, 459, 460, 461, 462, 463, 464, 465, 466, 467, 468, 469, 470, 471, 472, 473, 474, 475, 476, 477, 478, 479, 480, 481, 482, 483, 484, 485, 486, 487, 488, 489, 490, 491, 492, 493, 494, 495, 496, 497, 498, 499, 500, 501, 502, 503, 504],
      "AcquisitionTime": ["162612.985000", "162614.475000", "162615.965000", "162617.455000", "162618.945000", "162620.435000", "162621.925000", "162623.415000", "162624.905000", "162626.395000", "162627.885000", "162629.375000", "162630.865000", "162632.355000", "162633.845000", "162635.335000", "162636.825000", "162638.315000", "162639.805000", "162641.295000", "162642.785000", "162644.275000", "162645.765000", "162647.255000", "162648.745000", "162650.235000", "162651.725000", "162653.215000", "162654.705000", "162656.195000", "162657.685000", "162659.175000", "162700.665000", "162702.155000", "162703.645000", "162705.135000", "162706.625000", "162708.115000", "162709.605000", "162711.095000", "162712.585000", "162714.075000", "162715.565000", "162717.055000", "162718.545000", "162720.035000", "162721.525000", "162723.015000", "162724.505000", "162725.995000", "162727.485000", "162728.975000", "162730.465000", "162731.955000", "162733.445000", "162734.935000", "162736.425000", "162737.915000", "162739.405000", "162740.895000", "162742.385000", "162743.875000", "162745.365000", "162746.855000", "162748.345000", "162749.835000", "162751.325000", "162752.815000", "162754.305000", "162755.795000", "162757.285000", "162758.775000", "162800.265000", "162801.755000", "162803.245000", "162804.735000", "162806.225000", "162807.715000", "162809.205000", "162810.695000", "162812.185000", "162813.675000", "162815.165000", "162816.655000", "162818.145000", "162819.635000", "162821.125000", "162822.615000", "162824.105000", "162825.595000", "162827.085000", "162828.575000", "162830.065000", "162831.555000", "162833.045000", "162834.535000", "162836.025000", "162837.515000", "162839.005000", "162840.495000", "162841.985000", "162843.475000", "162844.965000", "162846.455000", "162847.945000", "162849.435000", "162850.925000", "162852.415000", "162853.905000", "162855.395000", "162856.885000", "162858.375000", "162859.865000", "162901.355000", "162902.845000", "162904.335000", "162905.825000", "162907.315000", "162908.805000", "162910.295000", "162911.785000", "162913.275000", "162914.765000", "162916.255000", "162917.745000", "162919.235000", "162920.725000", "162922.215000", "162923.705000", "162925.195000", "162926.685000", "162928.175000", "162929.665000", "162931.155000", "162932.645000", "162934.135000", "162935.625000", "162937.115000", "162938.605000", "162940.095000", "162941.585000", "162943.075000", "162944.565000", "162946.055000", "162947.545000", "162949.035000", "162950.525000", "162952.015000", "162953.505000", "162954.995000", "162956.485000", "162957.975000", "162959.465000", "163000.955000", "163002.445000", "163003.935000", "163005.425000", "163006.915000", "163008.405000", "163009.895000", "163011.385000", "163012.875000", "163014.365000", "163015.855000", "163017.345000", "163018.835000", "163020.325000", "163021.815000", "163023.305000", "163024.795000", "163026.285000", "163027.775000", "163029.265000", "163030.755000", "163032.245000", "163033.735000", "163035.225000", "163036.715000", "163038.205000", "163039.695000", "163041.185000", "163042.675000", "163044.165000", "163045.655000", "163047.145000", "163048.635000", "163050.125000", "163051.615000", "163053.105000", "163054.595000", "163056.085000", "163057.575000", "163059.065000", "163100.555000", "163102.045000", "163103.535000", "163105.025000", "163106.515000", "163108.005000", "163109.495000", "163110.985000", "163112.475000", "163113.965000", "163115.455000", "163116.945000", "163118.435000", "163119.925000", "163121.415000", "163122.905000", "163124.395000", "163125.885000", "163127.375000", "163128.865000", "163130.355000", "163131.845000", "163133.335000", "163134.825000", "163136.315000", "163137.805000", "163139.295000", "163140.785000", "163142.275000", "163143.765000", "163145.255000", "163146.745000", "163148.235000", "163149.725000", "163151.215000", "163152.705000", "163154.195000", "163155.685000", "163157.175000", "163158.665000", "163200.155000", "163201.645000", "163203.135000", "163204.625000", "163206.115000", "163207.605000", "163209.095000", "163210.585000", "163212.075000", "163213.565000", "163215.055000", "163216.545000", "163218.035000", "163219.525000", "163221.015000", "163222.505000", "163223.995000", "163225.485000", "163226.975000", "163228.465000", "163229.955000", "163231.445000", "163232.935000", "163234.425000", "163235.915000", "163237.405000", "163238.895000", "163240.385000", "163241.875000", "163243.365000", "163244.855000", "163246.345000", "163247.835000", "163249.325000", "163250.815000", "163252.305000", "163253.795000", "163255.285000", "163256.775000", "163258.265000", "163259.755000", "163301.245000", "163302.735000", "163304.225000", "163305.715000", "163307.205000", "163308.695000", "163310.185000", "163311.675000", "163313.165000", "163314.655000", "163316.145000", "163317.635000", "163319.125000", "163320.615000", "163322.105000", "163323.595000", "163325.085000", "163326.575000", "163328.065000", "163329.555000", "163331.045000", "163332.535000", "163334.025000", "163335.515000", "163337.005000", "163338.495000", "163339.985000", "163341.475000", "163342.965000", "163344.455000", "163345.945000", "163347.435000", "163348.925000", "163350.415000", "163351.905000", "163353.395000", "163354.885000", "163356.375000", "163357.865000", "163359.355000", "163400.845000", "163402.335000", "163403.825000", "163405.315000", "163406.805000", "163408.295000", "163409.785000", "163411.275000", "163412.765000", "163414.255000", "163415.745000", "163417.235000", "163418.725000", "163420.215000", "163421.705000", "163423.195000", "163424.685000", "163426.175000", "163427.665000", "163429.155000", "163430.645000", "163432.135000", "163433.625000", "163435.115000", "163436.605000", "163438.095000", "163439.585000", "163441.075000", "163442.565000", "163444.055000", "163445.545000", "163447.035000", "163448.525000", "163450.015000", "163451.505000", "163452.995000", "163454.485000", "163455.975000", "163457.465000", "163458.955000", "163500.445000", "163501.935000", "163503.425000", "163504.915000", "163506.405000", "163507.895000", "163509.385000", "163510.875000", "163512.365000", "163513.855000", "163515.345000", "163516.835000", "163518.325000", "163519.815000", "163521.305000", "163522.795000", "163524.285000", "163525.775000", "163527.265000", "163528.755000", "163530.245000", "163531.735000", "163533.225000", "163534.715000", "163536.205000", "163537.695000", "163539.185000", "163540.675000", "163542.165000", "163543.655000", "163545.145000", "163546.635000", "163548.125000", "163549.615000", "163551.105000", "163552.595000", "163554.085000", "163555.575000", "163557.065000", "163558.555000", "163600.045000", "163601.535000", "163603.025000", "163604.515000", "163606.005000", "163607.495000", "163608.985000", "163610.475000", "163611.965000", "163613.455000", "163614.945000", "163616.435000", "163617.925000", "163619.415000", "163620.905000", "163622.395000", "163623.885000", "163625.375000", "163626.865000", "163628.355000", "163629.845000", "163631.335000", "163632.825000", "163634.315000", "163635.805000", "163637.295000", "163638.785000", "163640.275000", "163641.765000", "163643.255000", "163644.745000", "163646.235000", "163647.725000", "163649.215000", "163650.705000", "163652.195000", "163653.685000", "163655.175000", "163656.665000", "163658.155000", "163659.645000", "163701.135000", "163702.625000", "163704.115000", "163705.605000", "163707.095000", "163708.585000", "163710.075000", "163711.565000", "163713.055000", "163714.545000", "163716.035000", "163717.525000", "163719.015000", "163720.505000", "163721.995000", "163723.485000", "163724.975000", "163726.465000", "163727.955000", "163729.445000", "163730.935000", "163732.425000", "163733.915000", "163735.405000", "163736.895000", "163738.385000", "163739.875000", "163741.365000", "163742.855000", "163744.345000", "163745.835000", "163747.325000", "163748.815000", "163750.305000", "163751.795000", "163753.285000", "163754.775000", "163756.265000", "163757.755000", "163759.245000", "163800.735000", "163802.225000", "163803.715000", "163805.205000", "163806.695000", "163808.185000", "163809.675000", "163811.165000", "163812.655000", "163814.145000", "163815.635000", "163817.125000", "163818.615000", "163820.105000", "163821.595000", "163823.085000", "163824.575000", "163826.065000", "163827.555000", "163829.045000", "163830.535000", "163832.025000", "163833.515000", "163835.005000", "163836.495000", "163837.985000", "163839.475000", "163840.965000", "163842.455000"],
      "ContentTime": ["162711.447000", "162711.450000", "162711.454000", "162711.457000", "162711.460000", "162731.409000", "162731.413000", "162731.416000", "162731.419000", "162731.422000", "162731.426000", "162731.429000", "162731.432000", "162731.436000", "162731.439000", "162731.442000", "162731.446000", "162731.449000", "162731.452000", "162731.455000", "162731.459000", "162731.470000", "162731.473000", "162731.476000", "162731.479000", "162751.409000", "162751.413000", "162751.417000", "162751.420000", "162751.424000", "162751.428000", "162751.431000", "162751.435000", "162751.439000", "162751.443000", "162751.447000", "162751.450000", "162751.454000", "162751.457000", "162751.461000", "162751.464000", "162751.467000", "162751.471000", "162751.474000", "162751.477000", "162811.410000", "162811.414000", "162811.417000", "162811.420000", "162811.424000", "162811.427000", "162811.430000", "162811.434000", "162811.437000", "162811.441000", "162811.444000", "162811.447000", "162811.451000", "162811.454000", "162811.457000", "162811.460000", "162811.464000", "162811.467000", "162811.470000", "162811.474000", "162811.477000", "162831.410000", "162831.414000", "162831.417000", "162831.420000", "162831.424000", "162831.438000", "162831.441000", "162831.445000", "162831.448000", "162831.451000", "162831.455000", "162831.458000", "162831.461000", "162831.465000", "162831.468000", "162831.471000", "162831.475000", "162831.478000", "162831.481000", "162831.485000", "162851.410000", "162851.414000", "162851.417000", "162851.421000", "162851.424000", "162851.427000", "162851.431000", "162851.434000", "162851.437000", "162851.440000", "162851.444000", "162851.447000", "162851.450000", "162851.454000", "162851.457000", "162851.460000", "162851.464000", "162851.467000", "162851.470000", "162851.474000", "162931.410000", "162931.414000", "162931.417000", "162931.421000", "162931.424000", "162931.427000", "162931.431000", "162931.434000", "162931.437000", "162931.440000", "162931.444000", "162931.447000", "162931.450000", "162931.462000", "162931.465000", "162931.469000", "162931.472000", "162931.475000", "162931.479000", "162931.482000", "162931.485000", "162931.489000", "162931.492000", "162931.495000", "162931.499000", "162931.502000", "162931.505000", "163011.409000", "163011.413000", "163011.416000", "163011.419000", "163011.423000", "163011.426000", "163011.430000", "163011.433000", "163011.437000", "163011.440000", "163011.443000", "163011.447000", "163011.450000", "163011.454000", "163011.457000", "163011.460000", "163011.464000", "163011.467000", "163011.470000", "163011.473000", "163011.477000", "163011.480000", "163011.483000", "163011.493000", "163011.497000", "163011.501000", "163051.410000", "163051.414000", "163051.417000", "163051.421000", "163051.424000", "163051.427000", "163051.431000", "163051.434000", "163051.437000", "163051.441000", "163051.450000", "163051.453000", "163051.457000", "163051.460000", "163051.463000", "163051.466000", "163051.470000", "163051.473000", "163051.476000", "163051.480000", "163051.483000", "163051.486000", "163051.490000", "163051.493000", "163051.497000", "163051.500000", "163051.503000", "163131.410000", "163131.414000", "163131.418000", "163131.421000", "163131.424000", "163131.428000", "163131.431000", "163131.439000", "163131.443000", "163131.446000", "163131.450000", "163131.453000", "163131.456000", "163131.459000", "163131.463000", "163131.466000", "163131.470000", "163131.473000", "163131.476000", "163131.480000", "163131.483000", "163131.486000", "163131.490000", "163131.493000", "163131.496000", "163131.500000", "163131.503000", "163211.409000", "163211.413000", "163211.416000", "163211.420000", "163211.423000", "163211.426000", "163211.430000", "163211.433000", "163211.437000", "163211.440000", "163211.443000", "163211.446000", "163211.450000", "163211.453000", "163211.456000", "163211.460000", "163211.463000", "163211.467000", "163211.470000", "163211.473000", "163211.477000", "163211.480000", "163211.483000", "163211.486000", "163211.490000", "163211.493000", "163211.496000", "163251.410000", "163251.426000", "163251.429000", "163251.432000", "163251.436000", "163251.439000", "163251.443000", "163251.446000", "163251.449000", "163251.452000", "163251.456000", "163251.459000", "163251.463000", "163251.466000", "163251.469000", "163251.473000", "163251.476000", "163251.479000", "163251.483000", "163251.486000", "163251.489000", "163251.493000", "163251.496000", "163251.499000", "163251.503000", "163251.506000", "163251.509000", "163331.410000", "163331.414000", "163331.417000", "163331.421000", "163331.424000", "163331.428000", "163331.431000", "163331.434000", "163331.438000", "163331.441000", "163331.444000", "163331.448000", "163331.451000", "163331.455000", "163331.458000", "163331.461000", "163331.465000", "163331.468000", "163331.471000", "163331.475000", "163331.478000", "163331.481000", "163331.485000", "163331.488000", "163331.491000", "163331.495000", "163331.498000", "163411.410000", "163411.414000", "163411.417000", "163411.421000", "163411.424000", "163411.428000", "163411.431000", "163411.434000", "163411.438000", "163411.441000", "163411.445000", "163411.448000", "163411.451000", "163411.454000", "163411.458000", "163411.461000", "163411.465000", "163411.468000", "163411.471000", "163411.475000", "163411.478000", "163411.481000", "163411.485000", "163411.488000", "163411.491000", "163411.495000", "163411.498000", "163451.409000", "163451.413000", "163451.416000", "163451.420000", "163451.423000", "163451.426000", "163451.430000", "163451.433000", "163451.436000", "163451.440000", "163451.443000", "163451.446000", "163451.450000", "163451.453000", "163451.456000", "163451.459000", "163451.463000", "163451.466000", "163451.469000", "163451.473000", "163451.476000", "163451.480000", "163451.483000", "163451.486000", "163451.490000", "163451.494000", "163531.410000", "163531.414000", "163531.417000", "163531.432000", "163531.435000", "163531.439000", "163531.442000", "163531.465000", "163531.469000", "163531.472000", "163531.475000", "163531.479000", "163531.482000", "163531.485000", "163531.489000", "163531.492000", "163531.495000", "163531.499000", "163531.502000", "163531.505000", "163531.510000", "163531.514000", "163531.517000", "163531.520000", "163531.524000", "163531.527000", "163531.530000", "163611.410000", "163611.414000", "163611.417000", "163611.421000", "163611.424000", "163611.427000", "163611.437000", "163611.440000", "163611.443000", "163611.447000", "163611.450000", "163611.453000", "163611.457000", "163611.460000", "163611.463000", "163611.466000", "163611.470000", "163611.473000", "163611.476000", "163611.479000", "163611.483000", "163611.486000", "163611.489000", "163611.492000", "163611.496000", "163611.499000", "163611.502000", "163651.409000", "163651.413000", "163651.416000", "163651.420000", "163651.423000", "163651.426000", "163651.430000", "163651.433000", "163651.436000", "163651.440000", "163651.443000", "163651.446000", "163651.449000", "163651.453000", "163651.456000", "163651.459000", "163651.463000", "163651.466000", "163651.469000", "163651.473000", "163651.476000", "163651.479000", "163651.483000", "163651.486000", "163651.489000", "163651.492000", "163651.496000", "163731.410000", "163731.414000", "163731.417000", "163731.421000", "163731.424000", "163731.427000", "163731.431000", "163731.434000", "163731.437000", "163731.441000", "163731.444000", "163731.447000", "163731.451000", "163731.454000", "163731.464000", "163731.481000", "163731.484000", "163731.487000", "163731.491000", "163731.494000", "163731.497000", "163731.501000", "163731.504000", "163731.508000", "163731.511000", "163731.514000", "163731.518000", "163811.410000", "163811.414000", "163811.417000", "163811.421000", "163811.424000", "163811.427000", "163811.430000", "163811.434000", "163811.437000", "163811.440000", "163811.444000", "163811.447000", "163811.450000", "163811.454000", "163811.457000", "163811.460000", "163811.464000", "163811.467000", "163811.470000", "163811.474000", "163811.477000", "163811.480000", "163811.484000", "163811.487000", "163811.490000", "163811.494000", "163811.497000", "163845.062000", "163845.066000", "163845.069000", "163845.073000", "163845.076000", "163845.079000", "163845.083000", "163845.086000", "163845.090000", "163845.093000", "163845.096000", "163845.099000", "163845.103000", "163845.106000", "163845.110000", "163845.113000", "163845.116000", "163845.120000", "163845.123000", "163845.126000", "163845.130000", "163845.133000"],
