{
  "AcquisitionMatrixPE": 104,
  "AcquisitionNumber": 1,
  "AcquisitionTime": "16:00:25.315000",
  "BandwidthPerPixelPhaseEncode": 17.17,
  "BaseResolution": 104,
  "BodyPartExamined": "BRAIN",
  "CoilCombinationMethod": "Sum of Squares",
  "ConsistencyInfo": "N4_VE11C_LATEST_20160120",
  "ConversionSoftware": "dcm2niix",
  "ConversionSoftwareVersion": "v1.0.20211006",
  "DerivedVendorReportedEchoSpacing": 0.000560011,
  "DeviceSerialNumber": "167006",
  "DwellTime": 2.1e-06,
  "EchoTime": 0.037,
  "EchoTime1": 0.037,
  "EchoTime2": 0.001,
  "EchoTrainLength": 104,
  "EffectiveEchoSpacing": 0.000560011,
  "FlipAngle": 52,
  "HeudiconvVersion": "0.10.0",
  "ImageComments": "Unaliased MB4/PE3/LB",
  "ImageOrientationPatientDICOM": [0.999218, -0.0383265, 0.0096779, 0.0394341, 0.94947, -0.311372],
  "ImageOrientationText": "Tra>Cor(-18.2)>Sag(-0.2)",
  "ImageType": [
    "ORIGINAL",
    "PRIMARY",
    "P",
    "MB",
    "ND",
    "MOSAIC",
    "PHASE"
],
  "ImagingFrequency": 123.259,
  "InPlanePhaseEncodingDirectionDICOM": "COL",
  "InstitutionAddress": "Chemin Queen-Mary 4565,Montreal,District,CA,H3W 1W5",
  "InstitutionName": "IUGM",
  "InstitutionalDepartmentName": "Department",
  "MRAcquisitionType": "2D",
  "MagneticFieldStrength": 3,
  "Manufacturer": "Siemens",
  "ManufacturersModelName": "Prisma_fit",
  "MatrixCoilMode": "SENSE",
  "Modality": "MR",
  "MultibandAccelerationFactor": 4,
  "PartialFourier": 1,
  "PatientPosition": "HFS",
  "PercentPhaseFOV": 100,
  "PercentSampling": 100,
  "PhaseEncodingDirection": "j",
  "PhaseEncodingSteps": 104,
  "PhaseResolution": 1,
  "PixelBandwidth": 2290,
  "ProcedureStepDescription": "games^mario",
  "ProtocolName": "func_task-mario_run-01",
  "PulseSequenceDetails": "%CustomerSeq%\\cmrr_mbep2d_bold",
  "ReceiveCoilActiveElements": "HC1-7;NC1,2",
  "ReceiveCoilName": "HeadNeck_64",
  "ReconMatrixPE": 104,
  "RepetitionTime": 1.49,
  "SAR": 0.0440264,
  "ScanOptions": "FS",
  "ScanningSequence": "EP",
  "SequenceName": "epfid2d1_104",
  "SequenceVariant": "SK\\SS",
  "SeriesDescription": "func_task-mario_run-01",
  "SeriesNumber": 11,
  "ShimSetting": [630, -7256, -8819, 582, 1, -224, -41, -28],
  "SliceThickness": 2,
  "SliceTiming": [0, 0.7825, 0.0975, 0.88, 0.195, 0.98, 0.2925, 1.0775, 0.3925, 1.175, 0.49, 1.2725, 0.5875, 1.37, 0.685, 0, 0.7825, 0.0975, 0.88, 0.195, 0.98, 0.2925, 1.0775, 0.3925, 1.175, 0.49, 1.2725, 0.5875, 1.37, 0.685, 0, 0.7825, 0.0975, 0.88, 0.195, 0.98, 0.2925, 1.0775, 0.3925, 1.175, 0.49, 1.2725, 0.5875, 1.37, 0.685, 0, 0.7825, 0.0975, 0.88, 0.195, 0.98, 0.2925, 1.0775, 0.3925, 1.175, 0.49, 1.2725, 0.5875, 1.37, 0.685],
  "SoftwareVersions": "syngo MR E11",
  "SpacingBetweenSlices": 2,
  "StationName": "MRC35049",
  "TaskName": "mario",
  "TotalReadoutTime": 0.0576811,
  "TxRefAmp": 244.929,
  "WipMemBlock": "baa356be-631a-4134-8dec-f2b2543a4cb3||Sequence: R016 ve11c/master r/e634e98; Dec 19 2017 11:00:25 by eja",
  "dcmmeta_affine": [
    [-1.9984368085861206, 0.07886814326047897, -0.005489817354828119, 102.61856842041016],
    [0.07665295898914337, 1.8989393711090088, -0.623019814491272, -69.53951263427734],
    [0.01935579441487789, 0.6227432489395142, 1.9004778861999512, -63.41356658935547],
    [0.0, 0.0, 0.0, 1.0]
],
  "dcmmeta_reorient_transform": [
    [0.0, -1.0, 0.0, 103.0],
    [1.0, 0.0, 0.0, 0.0],
    [0.0, 0.0, 1.0, 0.0],
    [0.0, 0.0, 0.0, 1.0]
],
  "dcmmeta_shape": [104, 104, 60, 475],
  "dcmmeta_slice_dim": 2,
  "dcmmeta_version": 0.6,
  "global": {
    "const": {
      "AcquisitionMatrix": [104, 0, 0, 104],
      "AngioFlag": "N",
      "BitsAllocated": 16,
      "BitsStored": 16,
      "BodyPartExamined": "BRAIN",
      "Columns": 832,
      "EchoNumbers": 1,
      "EchoTime": 37.0,
      "EchoTrainLength": 104,
      "FlipAngle": 52.0,
      "HighBit": 15,
      "ImageOrientationPatient": [0.99921840421998, -0.0383264788353, 0.00967789688748, 0.03943407339175, 0.94946967305404, -0.3113716329507],
      "ImagePositionPatient": [-866.88098881055, -789.36348835907, 220.36202882819],
      "ImageType": [
        "ORIGINAL",
        "PRIMARY",
        "P",
        "MB",
        "ND",
        "MOSAIC"
],
      "ImagedNucleus": "1H",
      "ImagingFrequency": 123.258813,
      "InPlanePhaseEncodingDirection": "COL",
      "LargestImagePixelValue": 4095,
      "MRAcquisitionType": "2D",
      "MagneticFieldStrength": 3.0,
      "Manufacturer": "SIEMENS",
      "ManufacturerModelName": "Prisma_fit",
      "Modality": "MR",
      "NumberOfAverages": 1.0,
      "NumberOfPhaseEncodingSteps": 104,
      "PercentPhaseFieldOfView": 100.0,
      "PercentSampling": 100.0,
      "PerformedProcedureStepStartTime": "151632.683000",
      "PhotometricInterpretation": "MONOCHROME2",
      "PixelBandwidth": 2290.0,
      "PixelRepresentation": 0,
      "PixelSpacing": [2.0, 2.0],
      "ProtocolName": "func_task-mario_run-01",
      "RepetitionTime": 1490.0,
      "RescaleIntercept": -4096.0,
      "RescaleSlope": 2.0,
      "RescaleType": "US",
      "Rows": 832,
      "SAR": 0.044026387607,
      "SamplesPerPixel": 1,
      "ScanOptions": "FS",
      "ScanningSequence": "EP",
      "SequenceName": "epfid2d1_104",
      "SequenceVariant": [
        "SK",
        "SS"
],
      "SeriesDescription": "func_task-mario_run-01",
      "SeriesNumber": 11,
      "SeriesTime": "160148.297000",
      "SliceLocation": -38.877473662183,
      "SliceThickness": 2.0,
      "SmallestImagePixelValue": 0,
      "SoftwareVersions": "syngo MR E11",
      "SpacingBetweenSlices": 1.9999999605102,
      "SpecificCharacterSet": "ISO_IR 100",
      "StudyID": "1",
      "StudyTime": "151632.624000",
      "TransmitCoilName": "Body",
      "VariableFlipAngleFlag": "N",
      "WindowCenterWidthExplanation": "Algo1",
      "dBdt": 0.0},
    "slices": {}
  },
  "time": {
    "samples": {
      "AcquisitionNumber": [1, 2, 3, 4, 5, 6, 7, 8, 9, 10, 11, 12, 13, 14, 15, 16, 17, 18, 19, 20, 21, 22, 23, 24, 25, 26, 27, 28, 29, 30, 31, 32, 33, 34, 35, 36, 37, 38, 39, 40, 41, 42, 43, 44, 45, 46, 47, 48, 49, 50, 51, 52, 53, 54, 55, 56, 57, 58, 59, 60, 61, 62, 63, 64, 65, 66, 67, 68, 69, 70, 71, 72, 73, 74, 75, 76, 77, 78, 79, 80, 81, 82, 83, 84, 85, 86, 87, 88, 89, 90, 91, 92, 93, 94, 95, 96, 97, 98, 99, 100, 101, 102, 103, 104, 105, 106, 107, 108, 109, 110, 111, 112, 113, 114, 115, 116, 117, 118, 119, 120, 121, 122, 123, 124, 125, 126, 127, 128, 129, 130, 131, 132, 133, 134, 135, 136, 137, 138, 139, 140, 141, 142, 143, 144, 145, 146, 147, 148, 149, 150, 151, 152, 153, 154, 155, 156, 157, 158, 159, 160, 161, 162, 163, 164, 165, 166, 167, 168, 169, 170, 171, 172, 173, 174, 175, 176, 177, 178, 179, 180, 181, 182, 183, 184, 185, 186, 187, 188, 189, 190, 191, 192, 193, 194, 195, 196, 197, 198, 199, 200, 201, 202, 203, 204, 205, 206, 207, 208, 209, 210, 211, 212, 213, 214, 215, 216, 217, 218, 219, 220, 221, 222, 223, 224, 225, 226, 227, 228, 229, 230, 231, 232, 233, 234, 235, 236, 237, 238, 239, 240, 241, 242, 243, 244, 245, 246, 247, 248, 249, 250, 251, 252, 253, 254, 255, 256, 257, 258, 259, 260, 261, 262, 263, 264, 265, 266, 267, 268, 269, 270, 271, 272, 273, 274, 275, 276, 277, 278, 279, 280, 281, 282, 283, 284, 285, 286, 287, 288, 289, 290, 291, 292, 293, 294, 295, 296, 297, 298, 299, 300, 301, 302, 303, 304, 305, 306, 307, 308, 309, 310, 311, 312, 313, 314, 315, 316, 317, 318, 319, 320, 321, 322, 323, 324, 325, 326, 327, 328, 329, 330, 331, 332, 333, 334, 335, 336, 337, 338, 339, 340, 341, 342, 343, 344, 345, 346, 347, 348, 349, 350, 351, 352, 353, 354, 355, 356, 357, 358, 359, 360, 361, 362, 363, 364, 365, 366, 367, 368, 369, 370, 371, 372, 373, 374, 375, 376, 377, 378, 379, 380, 381, 382, 383, 384, 385, 386, 387, 388, 389, 390, 391, 392, 393, 394, 395, 396, 397, 398, 399, 400, 401, 402, 403, 404, 405, 406, 407, 408, 409, 410, 411, 412, 413, 414, 415, 416, 417, 418, 419, 420, 421, 422, 423, 424, 425, 426, 427, 428, 429, 430, 431, 432, 433, 434, 435, 436, 437, 438, 439, 440, 441, 442, 443, 444, 445, 446, 447, 448, 449, 450, 451, 452, 453, 454, 455, 456, 457, 458, 459, 460, 461, 462, 463, 464, 465, 466, 467, 468, 469, 470, 471, 472, 473, 474, 475],
      "AcquisitionTime": ["160025.315000", "160026.805000", "160028.295000", "160029.785000", "160031.275000", "160032.765000", "160034.255000", "160035.745000", "160037.235000", "160038.725000", "160040.215000", "160041.705000", "160043.195000", "160044.685000", "160046.175000", "160047.665000", "160049.155000", "160050.645000", "160052.135000", "160053.625000", "160055.115000", "160056.605000", "160058.095000", "160059.585000", "160101.075000", "160102.565000", "160104.055000", "160105.545000", "160107.035000", "160108.525000", "160110.015000", "160111.505000", "160112.995000", "160114.485000", "160115.975000", "160117.465000", "160118.955000", "160120.445000", "160121.935000", "160123.425000", "160124.915000", "160126.405000", "160127.895000", "160129.385000", "160130.875000", "160132.365000", "160133.855000", "160135.345000", "160136.835000", "160138.325000", "160139.815000", "160141.305000", "160142.795000", "160144.285000", "160145.775000", "160147.265000", "160148.755000", "160150.245000", "160151.735000", "160153.225000", "160154.715000", "160156.205000", "160157.695000", "160159.185000", "160200.675000", "160202.165000", "160203.655000", "160205.145000", "160206.635000", "160208.125000", "160209.615000", "160211.105000", "160212.595000", "160214.085000", "160215.575000", "160217.065000", "160218.555000", "160220.045000", "160221.535000", "160223.025000", "160224.515000", "160226.005000", "160227.495000", "160228.985000", "160230.475000", "160231.965000", "160233.455000", "160234.945000", "160236.435000", "160237.925000", "160239.415000", "160240.905000", "160242.395000", "160243.885000", "160245.375000", "160246.865000", "160248.355000", "160249.845000", "160251.335000", "160252.825000", "160254.315000", "160255.805000", "160257.295000", "160258.785000", "160300.275000", "160301.765000", "160303.255000", "160304.745000", "160306.235000", "160307.725000", "160309.215000", "160310.705000", "160312.195000", "160313.685000", "160315.175000", "160316.665000", "160318.155000", "160319.645000", "160321.135000", "160322.625000", "160324.115000", "160325.605000", "160327.095000", "160328.585000", "160330.075000", "160331.565000", "160333.055000", "160334.545000", "160336.035000", "160337.525000", "160339.015000", "160340.505000", "160341.995000", "160343.485000", "160344.975000", "160346.465000", "160347.955000", "160349.445000", "160350.935000", "160352.425000", "160353.915000", "160355.405000", "160356.895000", "160358.385000", "160359.875000", "160401.365000", "160402.855000", "160404.345000", "160405.835000", "160407.325000", "160408.815000", "160410.305000", "160411.795000", "160413.285000", "160414.775000", "160416.265000", "160417.755000", "160419.245000", "160420.735000", "160422.225000", "160423.715000", "160425.205000", "160426.695000", "160428.185000", "160429.675000", "160431.165000", "160432.655000", "160434.145000", "160435.635000", "160437.125000", "160438.615000", "160440.105000", "160441.595000", "160443.085000", "160444.575000", "160446.065000", "160447.555000", "160449.045000", "160450.535000", "160452.025000", "160453.515000", "160455.005000", "160456.495000", "160457.985000", "160459.475000", "160500.965000", "160502.455000", "160503.945000", "160505.435000", "160506.925000", "160508.415000", "160509.905000", "160511.395000", "160512.885000", "160514.375000", "160515.865000", "160517.355000", "160518.845000", "160520.335000", "160521.825000", "160523.315000", "160524.805000", "160526.295000", "160527.785000", "160529.275000", "160530.765000", "160532.255000", "160533.745000", "160535.235000", "160536.725000", "160538.215000", "160539.705000", "160541.195000", "160542.685000", "160544.175000", "160545.665000", "160547.155000", "160548.645000", "160550.135000", "160551.625000", "160553.115000", "160554.605000", "160556.095000", "160557.585000", "160559.075000", "160600.565000", "160602.055000", "160603.545000", "160605.035000", "160606.525000", "160608.015000", "160609.505000", "160610.995000", "160612.485000", "160613.975000", "160615.465000", "160616.955000", "160618.445000", "160619.935000", "160621.425000", "160622.915000", "160624.405000", "160625.895000", "160627.385000", "160628.875000", "160630.365000", "160631.855000", "160633.345000", "160634.835000", "160636.325000", "160637.815000", "160639.305000", "160640.795000", "160642.285000", "160643.775000", "160645.265000", "160646.755000", "160648.245000", "160649.735000", "160651.225000", "160652.715000", "160654.205000", "160655.695000", "160657.185000", "160658.675000", "160700.165000", "160701.655000", "160703.145000", "160704.635000", "160706.125000", "160707.615000", "160709.105000", "160710.595000", "160712.085000", "160713.575000", "160715.065000", "160716.555000", "160718.045000", "160719.535000", "160721.025000", "160722.515000", "160724.005000", "160725.495000", "160726.985000", "160728.475000", "160729.965000", "160731.455000", "160732.945000", "160734.435000", "160735.925000", "160737.415000", "160738.905000", "160740.395000", "160741.885000", "160743.375000", "160744.865000", "160746.355000", "160747.845000", "160749.335000", "160750.825000", "160752.315000", "160753.805000", "160755.295000", "160756.785000", "160758.275000", "160759.765000", "160801.255000", "160802.745000", "160804.235000", "160805.725000", "160807.215000", "160808.705000", "160810.195000", "160811.685000", "160813.175000", "160814.665000", "160816.155000", "160817.645000", "160819.135000", "160820.625000", "160822.115000", "160823.605000", "160825.095000", "160826.585000", "160828.075000", "160829.565000", "160831.055000", "160832.545000", "160834.035000", "160835.525000", "160837.015000", "160838.505000", "160839.995000", "160841.485000", "160842.975000", "160844.465000", "160845.955000", "160847.445000", "160848.935000", "160850.425000", "160851.915000", "160853.405000", "160854.895000", "160856.385000", "160857.875000", "160859.365000", "160900.855000", "160902.345000", "160903.835000", "160905.325000", "160906.815000", "160908.305000", "160909.795000", "160911.285000", "160912.775000", "160914.265000", "160915.755000", "160917.245000", "160918.735000", "160920.225000", "160921.715000", "160923.205000", "160924.695000", "160926.185000", "160927.675000", "160929.165000", "160930.655000", "160932.145000", "160933.635000", "160935.125000", "160936.615000", "160938.105000", "160939.595000", "160941.085000", "160942.575000", "160944.065000", "160945.555000", "160947.045000", "160948.535000", "160950.025000", "160951.515000", "160953.005000", "160954.495000", "160955.985000", "160957.475000", "160958.965000", "161000.455000", "161001.945000", "161003.435000", "161004.925000", "161006.415000", "161007.905000", "161009.395000", "161010.885000", "161012.375000", "161013.865000", "161015.355000", "161016.845000", "161018.335000", "161019.825000", "161021.315000", "161022.805000", "161024.295000", "161025.785000", "161027.275000", "161028.765000", "161030.255000", "161031.745000", "161033.235000", "161034.725000", "161036.215000", "161037.705000", "161039.195000", "161040.685000", "161042.175000", "161043.665000", "161045.155000", "161046.645000", "161048.135000", "161049.625000", "161051.115000", "161052.605000", "161054.095000", "161055.585000", "161057.075000", "161058.565000", "161100.055000", "161101.545000", "161103.035000", "161104.525000", "161106.015000", "161107.505000", "161108.995000", "161110.485000", "161111.975000", "161113.465000", "161114.955000", "161116.445000", "161117.935000", "161119.425000", "161120.915000", "161122.405000", "161123.895000", "161125.385000", "161126.875000", "161128.365000", "161129.855000", "161131.345000", "161132.835000", "161134.325000", "161135.815000", "161137.305000", "161138.795000", "161140.285000", "161141.775000", "161143.265000", "161144.755000", "161146.245000", "161147.735000", "161149.225000", "161150.715000", "161152.205000", "161153.695000", "161155.185000", "161156.675000", "161158.165000", "161159.655000", "161201.145000", "161202.635000", "161204.125000", "161205.615000", "161207.105000", "161208.595000", "161210.085000", "161211.575000"],
      "ContentTime": ["160148.299000", "160148.302000", "160148.304000", "160148.307000", "160148.309000", "160148.312000", "160148.314000", "160148.317000", "160148.319000", "160148.322000", "160148.331000", "160148.333000", "160148.336000", "160148.338000", "160148.341000", "160148.343000", "160148.346000", "160148.348000", "160148.350000", "160148.353000", "160148.355000", "160148.358000", "160148.360000", "160148.363000", "160148.365000", "160148.368000", "160148.370000", "160148.373000", "160208.239000", "160208.242000", "160208.244000", "160208.247000", "160208.249000", "160208.252000", "160208.254000", "160208.257000", "160208.271000", "160208.274000", "160208.276000", "160208.279000", "160208.281000", "160208.284000", "160208.286000", "160208.289000", "160208.291000", "160208.294000", "160208.296000", "160208.299000", "160228.215000", "160228.218000", "160228.220000", "160228.228000", "160228.231000", "160228.233000", "160228.236000", "160228.238000", "160228.241000", "160228.243000", "160228.246000", "160228.248000", "160228.251000", "160228.253000", "160228.256000", "160228.258000", "160228.261000", "160228.263000", "160228.266000", "160228.268000", "160248.248000", "160248.251000", "160248.254000", "160248.256000", "160248.259000", "160248.261000", "160248.264000", "160248.266000", "160248.269000", "160248.271000", "160248.274000", "160248.276000", "160248.279000", "160248.281000", "160248.284000", "160248.286000", "160248.289000", "160248.291000", "160248.294000", "160248.296000", "160308.215000", "160308.217000", "160308.220000", "160308.222000", "160308.225000", "160308.227000", "160308.237000", "160308.240000", "160308.242000", "160308.245000", "160308.247000", "160308.250000", "160308.252000", "160308.255000", "160308.257000", "160308.260000", "160308.262000", "160308.265000", "160308.267000", "160308.269000", "160348.256000", "160348.259000", "160348.262000", "160348.264000", "160348.267000", "160348.274000", "160348.276000", "160348.279000", "160348.281000", "160348.284000", "160348.286000", "160348.289000", "160348.291000", "160348.294000", "160348.296000", "160348.299000", "160348.301000", "160348.303000", "160348.306000", "160348.308000", "160348.311000", "160348.313000", "160348.316000", "160348.318000", "160348.321000", "160348.323000", "160348.326000", "160428.269000", "160428.272000", "160428.275000", "160428.277000", "160428.280000", "160428.282000", "160428.284000", "160428.287000", "160428.289000", "160428.292000", "160428.294000", "160428.297000", "160428.299000", "160428.302000", "160428.304000", "160428.307000", "160428.309000", "160428.312000", "160428.314000", "160428.317000", "160428.319000", "160428.322000", "160428.324000", "160428.327000", "160428.329000", "160428.332000", "160428.334000", "160508.242000", "160508.244000", "160508.247000", "160508.249000", "160508.252000", "160508.254000", "160508.257000", "160508.259000", "160508.262000", "160508.264000", "160508.267000", "160508.269000", "160508.272000", "160508.274000", "160508.277000", "160508.279000", "160508.282000", "160508.284000", "160508.287000", "160508.289000", "160508.292000", "160508.294000", "160508.297000", "160508.299000", "160508.302000", "160508.304000", "160508.307000", "160548.267000", "160548.270000", "160548.272000", "160548.275000", "160548.277000", "160548.280000", "160548.282000", "160548.285000", "160548.287000", "160548.290000", "160548.292000", "160548.295000", "160548.297000", "160548.300000", "160548.302000", "160548.305000", "160548.307000", "160548.310000", "160548.312000", "160548.315000", "160548.317000", "160548.320000", "160548.322000", "160548.324000", "160548.327000", "160548.330000", "160628.264000", "160628.266000", "160628.269000", "160628.271000", "160628.274000", "160628.276000", "160628.279000", "160628.281000", "160628.284000", "160628.295000", "160628.297000", "160628.300000", "160628.302000", "160628.305000", "160628.307000", "160628.310000", "160628.312000", "160628.314000", "160628.317000", "160628.319000", "160628.322000", "160628.324000", "160628.327000", "160628.329000", "160628.332000", "160628.334000", "160628.337000", "160708.261000", "160708.265000", "160708.268000", "160708.271000", "160708.273000", "160708.276000", "160708.278000", "160708.281000", "160708.283000", "160708.286000", "160708.288000", "160708.291000", "160708.293000", "160708.296000", "160708.298000", "160708.301000", "160708.303000", "160708.306000", "160708.308000", "160708.311000", "160708.313000", "160708.316000", "160708.318000", "160708.321000", "160708.324000", "160708.326000", "160708.329000", "160748.246000", "160748.249000", "160748.251000", "160748.254000", "160748.257000", "160748.259000", "160748.262000", "160748.264000", "160748.267000", "160748.269000", "160748.272000", "160748.274000", "160748.277000", "160748.279000", "160748.282000", "160748.284000", "160748.286000", "160748.289000", "160748.291000", "160748.294000", "160748.296000", "160748.299000", "160748.301000", "160748.304000", "160748.306000", "160748.309000", "160748.311000", "160828.259000", "160828.262000", "160828.265000", "160828.267000", "160828.270000", "160828.272000", "160828.275000", "160828.277000", "160828.280000", "160828.282000", "160828.285000", "160828.287000", "160828.290000", "160828.292000", "160828.294000", "160828.297000", "160828.299000", "160828.302000", "160828.304000", "160828.307000", "160828.309000", "160828.312000", "160828.314000", "160828.317000", "160828.319000", "160828.322000", "160828.324000", "160908.250000", "160908.253000", "160908.255000", "160908.258000", "160908.260000", "160908.263000", "160908.265000", "160908.268000", "160908.270000", "160908.273000", "160908.275000", "160908.278000", "160908.280000", "160908.283000", "160908.286000", "160908.289000", "160908.291000", "160908.294000", "160908.297000", "160908.299000", "160908.302000", "160908.304000", "160908.307000", "160908.309000", "160908.312000", "160908.314000", "160908.317000", "160948.259000", "160948.262000", "160948.264000", "160948.267000", "160948.269000", "160948.273000", "160948.275000", "160948.285000", "160948.288000", "160948.290000", "160948.293000", "160948.295000", "160948.298000", "160948.300000", "160948.303000", "160948.305000", "160948.308000", "160948.310000", "160948.313000", "160948.315000", "160948.318000", "160948.320000", "160948.323000", "160948.325000", "160948.328000", "160948.330000", "160948.333000", "161028.251000", "161028.254000", "161028.257000", "161028.259000", "161028.262000", "161028.264000", "161028.267000", "161028.269000", "161028.272000", "161028.274000", "161028.277000", "161028.279000", "161028.282000", "161028.284000", "161028.287000", "161028.289000", "161028.292000", "161028.295000", "161028.297000", "161028.300000", "161028.302000", "161028.304000", "161028.307000", "161028.309000", "161028.312000", "161028.314000", "161108.274000", "161108.276000", "161108.288000", "161108.290000", "161108.293000", "161108.295000", "161108.298000", "161108.300000", "161108.303000", "161108.305000", "161108.308000", "161108.310000", "161108.313000", "161108.316000", "161108.318000", "161108.321000", "161108.324000", "161108.326000", "161108.329000", "161108.332000", "161108.334000", "161108.337000", "161108.339000", "161108.342000", "161108.345000", "161108.348000", "161108.350000", "161148.256000", "161148.259000", "161148.261000", "161148.264000", "161148.266000", "161148.269000", "161148.271000", "161148.274000", "161148.276000", "161148.279000", "161148.281000", "161148.284000", "161148.286000", "161148.289000", "161148.291000", "161148.294000", "161148.296000", "161148.299000", "161148.301000", "161148.304000", "161148.306000", "161148.309000", "161148.311000", "161148.314000", "161148.316000", "161148.319000", "161148.321000", "161214.741000", "161214.744000", "161214.746000", "161214.749000", "161214.751000", "161214.754000", "161214.756000", "161214.759000", "161214.761000", "161214.764000", "161214.766000", "161214.769000", "161214.771000", "161214.774000", "161214.776000", "161214.779000", "161214.781000", "161214.783000"],
