{
  "AcquisitionMatrixPE": 104,
  "AcquisitionNumber": 1,
  "AcquisitionTime": "16:40:8.570000",
  "BandwidthPerPixelPhaseEncode": 17.17,
  "BaseResolution": 104,
  "BodyPartExamined": "BRAIN",
  "CoilCombinationMethod": "Sum of Squares",
  "ConsistencyInfo": "N4_VE11C_LATEST_20160120",
  "ConversionSoftware": "dcm2niix",
  "ConversionSoftwareVersion": "v1.0.20211006",
  "DerivedVendorReportedEchoSpacing": 0.000560011,
  "DeviceSerialNumber": "167006",
  "DwellTime": 2.1e-06,
  "EchoTime": 0.037,
  "EchoTime1": 0.037,
  "EchoTime2": 0.001,
  "EchoTrainLength": 104,
  "EffectiveEchoSpacing": 0.000560011,
  "FlipAngle": 52,
  "HeudiconvVersion": "0.10.0",
  "ImageComments": "Unaliased MB4/PE3/LB",
  "ImageOrientationPatientDICOM": [0.999218, -0.0383265, 0.0096779, 0.0394341, 0.94947, -0.311372],
  "ImageOrientationText": "Tra>Cor(-18.2)>Sag(-0.2)",
  "ImageType": [
    "ORIGINAL",
    "PRIMARY",
    "P",
    "MB",
    "ND",
    "MOSAIC",
    "PHASE"
],
  "ImagingFrequency": 123.259,
  "InPlanePhaseEncodingDirectionDICOM": "COL",
  "InstitutionAddress": "Chemin Queen-Mary 4565,Montreal,District,CA,H3W 1W5",
  "InstitutionName": "IUGM",
  "InstitutionalDepartmentName": "Department",
  "MRAcquisitionType": "2D",
  "MagneticFieldStrength": 3,
  "Manufacturer": "Siemens",
  "ManufacturersModelName": "Prisma_fit",
  "MatrixCoilMode": "SENSE",
  "Modality": "MR",
  "MultibandAccelerationFactor": 4,
  "PartialFourier": 1,
  "PatientPosition": "HFS",
  "PercentPhaseFOV": 100,
  "PercentSampling": 100,
  "PhaseEncodingDirection": "j",
  "PhaseEncodingSteps": 104,
  "PhaseResolution": 1,
  "PixelBandwidth": 2290,
  "ProcedureStepDescription": "games^mario",
  "ProtocolName": "func_task-mario_run-04",
  "PulseSequenceDetails": "%CustomerSeq%\\cmrr_mbep2d_bold",
  "ReceiveCoilActiveElements": "HC1-7;NC1,2",
  "ReceiveCoilName": "HeadNeck_64",
  "ReconMatrixPE": 104,
  "RepetitionTime": 1.49,
  "SAR": 0.0440264,
  "ScanOptions": "FS",
  "ScanningSequence": "EP",
  "SequenceName": "epfid2d1_104",
  "SequenceVariant": "SK\\SS",
  "SeriesDescription": "func_task-mario_run-04",
  "SeriesNumber": 20,
  "ShimSetting": [630, -7256, -8819, 582, 1, -224, -41, -28],
  "SliceThickness": 2,
  "SliceTiming": [0, 0.785, 0.0975, 0.8825, 0.1975, 0.98, 0.295, 1.0775, 0.3925, 1.1775, 0.49, 1.275, 0.5875, 1.3725, 0.6875, 0, 0.785, 0.0975, 0.8825, 0.1975, 0.98, 0.295, 1.0775, 0.3925, 1.1775, 0.49, 1.275, 0.5875, 1.3725, 0.6875, 0, 0.785, 0.0975, 0.8825, 0.1975, 0.98, 0.295, 1.0775, 0.3925, 1.1775, 0.49, 1.275, 0.5875, 1.3725, 0.6875, 0, 0.785, 0.0975, 0.8825, 0.1975, 0.98, 0.295, 1.0775, 0.3925, 1.1775, 0.49, 1.275, 0.5875, 1.3725, 0.6875],
  "SoftwareVersions": "syngo MR E11",
  "SpacingBetweenSlices": 2,
  "StationName": "MRC35049",
  "TaskName": "mario",
  "TotalReadoutTime": 0.0576811,
  "TxRefAmp": 244.929,
  "WipMemBlock": "bf338321-3ccc-41d4-859d-50339e938827||Sequence: R016 ve11c/master r/e634e98; Dec 19 2017 11:00:25 by eja",
  "dcmmeta_affine": [
    [-1.9984368085861206, 0.07886814326047897, -0.005489817354828119, 102.61856842041016],
    [0.07665295898914337, 1.8989393711090088, -0.623019814491272, -69.53951263427734],
    [0.01935579441487789, 0.6227432489395142, 1.9004778861999512, -63.41356658935547],
    [0.0, 0.0, 0.0, 1.0]
],
  "dcmmeta_reorient_transform": [
    [0.0, -1.0, 0.0, 103.0],
    [1.0, 0.0, 0.0, 0.0],
    [0.0, 0.0, 1.0, 0.0],
    [0.0, 0.0, 0.0, 1.0]
],
  "dcmmeta_shape": [104, 104, 60, 501],
  "dcmmeta_slice_dim": 2,
  "dcmmeta_version": 0.6,
  "global": {
    "const": {
      "AcquisitionMatrix": [104, 0, 0, 104],
      "AngioFlag": "N",
      "BitsAllocated": 16,
      "BitsStored": 16,
      "BodyPartExamined": "BRAIN",
      "Columns": 832,
      "EchoNumbers": 1,
      "EchoTime": 37.0,
      "EchoTrainLength": 104,
      "FlipAngle": 52.0,
      "HighBit": 15,
      "ImageOrientationPatient": [0.99921840421998, -0.0383264788353, 0.00967789688748, 0.03943407339175, 0.94946967305404, -0.3113716329507],
      "ImagePositionPatient": [-866.88098881055, -789.36348835907, 220.36202882819],
      "ImageType": [
        "ORIGINAL",
        "PRIMARY",
        "P",
        "MB",
        "ND",
        "MOSAIC"
],
      "ImagedNucleus": "1H",
      "ImagingFrequency": 123.25883,
      "InPlanePhaseEncodingDirection": "COL",
      "LargestImagePixelValue": 4095,
      "MRAcquisitionType": "2D",
      "MagneticFieldStrength": 3.0,
      "Manufacturer": "SIEMENS",
      "ManufacturerModelName": "Prisma_fit",
      "Modality": "MR",
      "NumberOfAverages": 1.0,
      "NumberOfPhaseEncodingSteps": 104,
      "PercentPhaseFieldOfView": 100.0,
      "PercentSampling": 100.0,
      "PerformedProcedureStepStartTime": "151632.683000",
      "PhotometricInterpretation": "MONOCHROME2",
      "PixelBandwidth": 2290.0,
      "PixelRepresentation": 0,
      "PixelSpacing": [2.0, 2.0],
      "ProtocolName": "func_task-mario_run-04",
      "RepetitionTime": 1490.0,
      "RescaleIntercept": -4096.0,
      "RescaleSlope": 2.0,
      "RescaleType": "US",
      "Rows": 832,
      "SAR": 0.044026387607,
      "SamplesPerPixel": 1,
      "ScanOptions": "FS",
      "ScanningSequence": "EP",
      "SequenceName": "epfid2d1_104",
      "SequenceVariant": [
        "SK",
        "SS"
],
      "SeriesDescription": "func_task-mario_run-04",
      "SeriesNumber": 20,
      "SeriesTime": "164128.305000",
      "SliceLocation": -38.877473662183,
      "SliceThickness": 2.0,
      "SmallestImagePixelValue": 0,
      "SoftwareVersions": "syngo MR E11",
      "SpacingBetweenSlices": 1.9999999605102,
      "SpecificCharacterSet": "ISO_IR 100",
      "StudyID": "1",
      "StudyTime": "151632.624000",
      "TransmitCoilName": "Body",
      "VariableFlipAngleFlag": "N",
      "WindowCenterWidthExplanation": "Algo1",
      "dBdt": 0.0},
    "slices": {}
  },
  "time": {
    "samples": {
      "AcquisitionNumber": [1, 2, 3, 4, 5, 6, 7, 8, 9, 10, 11, 12, 13, 14, 15, 16, 17, 18, 19, 20, 21, 22, 23, 24, 25, 26, 27, 28, 29, 30, 31, 32, 33, 34, 35, 36, 37, 38, 39, 40, 41, 42, 43, 44, 45, 46, 47, 48, 49, 50, 51, 52, 53, 54, 55, 56, 57, 58, 59, 60, 61, 62, 63, 64, 65, 66, 67, 68, 69, 70, 71, 72, 73, 74, 75, 76, 77, 78, 79, 80, 81, 82, 83, 84, 85, 86, 87, 88, 89, 90, 91, 92, 93, 94, 95, 96, 97, 98, 99, 100, 101, 102, 103, 104, 105, 106, 107, 108, 109, 110, 111, 112, 113, 114, 115, 116, 117, 118, 119, 120, 121, 122, 123, 124, 125, 126, 127, 128, 129, 130, 131, 132, 133, 134, 135, 136, 137, 138, 139, 140, 141, 142, 143, 144, 145, 146, 147, 148, 149, 150, 151, 152, 153, 154, 155, 156, 157, 158, 159, 160, 161, 162, 163, 164, 165, 166, 167, 168, 169, 170, 171, 172, 173, 174, 175, 176, 177, 178, 179, 180, 181, 182, 183, 184, 185, 186, 187, 188, 189, 190, 191, 192, 193, 194, 195, 196, 197, 198, 199, 200, 201, 202, 203, 204, 205, 206, 207, 208, 209, 210, 211, 212, 213, 214, 215, 216, 217, 218, 219, 220, 221, 222, 223, 224, 225, 226, 227, 228, 229, 230, 231, 232, 233, 234, 235, 236, 237, 238, 239, 240, 241, 242, 243, 244, 245, 246, 247, 248, 249, 250, 251, 252, 253, 254, 255, 256, 257, 258, 259, 260, 261, 262, 263, 264, 265, 266, 267, 268, 269, 270, 271, 272, 273, 274, 275, 276, 277, 278, 279, 280, 281, 282, 283, 284, 285, 286, 287, 288, 289, 290, 291, 292, 293, 294, 295, 296, 297, 298, 299, 300, 301, 302, 303, 304, 305, 306, 307, 308, 309, 310, 311, 312, 313, 314, 315, 316, 317, 318, 319, 320, 321, 322, 323, 324, 325, 326, 327, 328, 329, 330, 331, 332, 333, 334, 335, 336, 337, 338, 339, 340, 341, 342, 343, 344, 345, 346, 347, 348, 349, 350, 351, 352, 353, 354, 355, 356, 357, 358, 359, 360, 361, 362, 363, 364, 365, 366, 367, 368, 369, 370, 371, 372, 373, 374, 375, 376, 377, 378, 379, 380, 381, 382, 383, 384, 385, 386, 387, 388, 389, 390, 391, 392, 393, 394, 395, 396, 397, 398, 399, 400, 401, 402, 403, 404, 405, 406, 407, 408, 409, 410, 411, 412, 413, 414, 415, 416, 417, 418, 419, 420, 421, 422, 423, 424, 425, 426, 427, 428, 429, 430, 431, 432, 433, 434, 435, 436, 437, 438, 439, 440, 441, 442, 443, 444, 445, 446, 447, 448, 449, 450, 451, 452, 453, 454, 455, 456, 457, 458, 459, 460, 461, 462, 463, 464, 465, 466, 467, 468, 469, 470, 471, 472, 473, 474, 475, 476, 477, 478, 479, 480, 481, 482, 483, 484, 485, 486, 487, 488, 489, 490, 491, 492, 493, 494, 495, 496, 497, 498, 499, 500, 501],
      "AcquisitionTime": ["164008.570000", "164010.060000", "164011.550000", "164013.040000", "164014.530000", "164016.020000", "164017.510000", "164019.000000", "164020.490000", "164021.980000", "164023.470000", "164024.960000", "164026.450000", "164027.940000", "164029.430000", "164030.920000", "164032.410000", "164033.900000", "164035.390000", "164036.880000", "164038.370000", "164039.860000", "164041.350000", "164042.840000", "164044.330000", "164045.820000", "164047.310000", "164048.800000", "164050.290000", "164051.780000", "164053.270000", "164054.760000", "164056.250000", "164057.740000", "164059.230000", "164100.720000", "164102.210000", "164103.700000", "164105.190000", "164106.680000", "164108.170000", "164109.660000", "164111.150000", "164112.640000", "164114.130000", "164115.620000", "164117.110000", "164118.600000", "164120.090000", "164121.580000", "164123.070000", "164124.560000", "164126.050000", "164127.540000", "164129.030000", "164130.520000", "164132.010000", "164133.500000", "164134.990000", "164136.480000", "164137.970000", "164139.460000", "164140.950000", "164142.440000", "164143.930000", "164145.420000", "164146.910000", "164148.400000", "164149.890000", "164151.380000", "164152.870000", "164154.360000", "164155.850000", "164157.340000", "164158.830000", "164200.320000", "164201.810000", "164203.300000", "164204.790000", "164206.280000", "164207.770000", "164209.260000", "164210.750000", "164212.240000", "164213.730000", "164215.220000", "164216.710000", "164218.200000", "164219.690000", "164221.180000", "164222.670000", "164224.160000", "164225.650000", "164227.140000", "164228.630000", "164230.120000", "164231.610000", "164233.100000", "164234.590000", "164236.080000", "164237.570000", "164239.060000", "164240.550000", "164242.040000", "164243.530000", "164245.020000", "164246.510000", "164248.000000", "164249.490000", "164250.980000", "164252.470000", "164253.960000", "164255.450000", "164256.940000", "164258.430000", "164259.920000", "164301.410000", "164302.900000", "164304.390000", "164305.880000", "164307.370000", "164308.860000", "164310.350000", "164311.840000", "164313.330000", "164314.820000", "164316.310000", "164317.800000", "164319.290000", "164320.780000", "164322.270000", "164323.760000", "164325.250000", "164326.740000", "164328.230000", "164329.720000", "164331.210000", "164332.700000", "164334.190000", "164335.680000", "164337.170000", "164338.660000", "164340.150000", "164341.640000", "164343.130000", "164344.620000", "164346.110000", "164347.600000", "164349.090000", "164350.580000", "164352.070000", "164353.560000", "164355.050000", "164356.540000", "164358.030000", "164359.520000", "164401.010000", "164402.500000", "164403.990000", "164405.480000", "164406.970000", "164408.460000", "164409.950000", "164411.440000", "164412.930000", "164414.420000", "164415.910000", "164417.400000", "164418.890000", "164420.380000", "164421.870000", "164423.360000", "164424.850000", "164426.340000", "164427.830000", "164429.320000", "164430.810000", "164432.300000", "164433.790000", "164435.280000", "164436.770000", "164438.260000", "164439.750000", "164441.240000", "164442.730000", "164444.220000", "164445.710000", "164447.200000", "164448.690000", "164450.180000", "164451.670000", "164453.160000", "164454.650000", "164456.140000", "164457.630000", "164459.120000", "164500.610000", "164502.100000", "164503.590000", "164505.080000", "164506.570000", "164508.060000", "164509.550000", "164511.040000", "164512.530000", "164514.020000", "164515.510000", "164517.000000", "164518.490000", "164519.980000", "164521.470000", "164522.960000", "164524.450000", "164525.940000", "164527.430000", "164528.920000", "164530.410000", "164531.900000", "164533.390000", "164534.880000", "164536.370000", "164537.860000", "164539.350000", "164540.840000", "164542.330000", "164543.820000", "164545.310000", "164546.800000", "164548.290000", "164549.780000", "164551.270000", "164552.760000", "164554.250000", "164555.740000", "164557.230000", "164558.720000", "164600.210000", "164601.700000", "164603.190000", "164604.680000", "164606.170000", "164607.660000", "164609.150000", "164610.640000", "164612.130000", "164613.620000", "164615.110000", "164616.600000", "164618.090000", "164619.580000", "164621.070000", "164622.560000", "164624.050000", "164625.540000", "164627.030000", "164628.520000", "164630.010000", "164631.500000", "164632.990000", "164634.480000", "164635.970000", "164637.460000", "164638.950000", "164640.440000", "164641.930000", "164643.420000", "164644.910000", "164646.400000", "164647.890000", "164649.380000", "164650.870000", "164652.360000", "164653.850000", "164655.340000", "164656.830000", "164658.320000", "164659.810000", "164701.300000", "164702.790000", "164704.280000", "164705.770000", "164707.260000", "164708.750000", "164710.240000", "164711.730000", "164713.220000", "164714.710000", "164716.200000", "164717.690000", "164719.180000", "164720.670000", "164722.160000", "164723.650000", "164725.140000", "164726.630000", "164728.120000", "164729.610000", "164731.100000", "164732.590000", "164734.080000", "164735.570000", "164737.060000", "164738.550000", "164740.040000", "164741.530000", "164743.020000", "164744.510000", "164746.000000", "164747.490000", "164748.980000", "164750.470000", "164751.960000", "164753.450000", "164754.940000", "164756.430000", "164757.920000", "164759.410000", "164800.900000", "164802.390000", "164803.880000", "164805.370000", "164806.860000", "164808.350000", "164809.840000", "164811.330000", "164812.820000", "164814.310000", "164815.800000", "164817.290000", "164818.780000", "164820.270000", "164821.760000", "164823.250000", "164824.740000", "164826.230000", "164827.720000", "164829.210000", "164830.700000", "164832.190000", "164833.680000", "164835.170000", "164836.660000", "164838.150000", "164839.640000", "164841.130000", "164842.620000", "164844.110000", "164845.600000", "164847.090000", "164848.580000", "164850.070000", "164851.560000", "164853.050000", "164854.540000", "164856.030000", "164857.520000", "164859.010000", "164900.500000", "164901.990000", "164903.480000", "164904.970000", "164906.460000", "164907.950000", "164909.440000", "164910.930000", "164912.420000", "164913.910000", "164915.400000", "164916.890000", "164918.380000", "164919.870000", "164921.360000", "164922.850000", "164924.340000", "164925.830000", "164927.320000", "164928.810000", "164930.300000", "164931.790000", "164933.280000", "164934.770000", "164936.260000", "164937.750000", "164939.240000", "164940.730000", "164942.220000", "164943.710000", "164945.200000", "164946.690000", "164948.180000", "164949.670000", "164951.160000", "164952.650000", "164954.140000", "164955.630000", "164957.120000", "164958.610000", "165000.100000", "165001.590000", "165003.080000", "165004.570000", "165006.060000", "165007.550000", "165009.040000", "165010.530000", "165012.020000", "165013.510000", "165015.000000", "165016.490000", "165017.980000", "165019.470000", "165020.960000", "165022.450000", "165023.940000", "165025.430000", "165026.920000", "165028.410000", "165029.900000", "165031.390000", "165032.880000", "165034.370000", "165035.860000", "165037.350000", "165038.840000", "165040.330000", "165041.820000", "165043.310000", "165044.800000", "165046.290000", "165047.780000", "165049.270000", "165050.760000", "165052.250000", "165053.740000", "165055.230000", "165056.720000", "165058.210000", "165059.700000", "165101.190000", "165102.680000", "165104.170000", "165105.660000", "165107.150000", "165108.640000", "165110.130000", "165111.620000", "165113.110000", "165114.600000", "165116.090000", "165117.580000", "165119.070000", "165120.560000", "165122.050000", "165123.540000", "165125.030000", "165126.520000", "165128.010000", "165129.500000", "165130.990000", "165132.480000", "165133.970000", "165135.460000", "165136.950000", "165138.440000", "165139.930000", "165141.420000", "165142.910000", "165144.400000", "165145.890000", "165147.380000", "165148.870000", "165150.360000", "165151.850000", "165153.340000", "165154.830000", "165156.320000", "165157.810000", "165159.300000", "165200.790000", "165202.280000", "165203.770000", "165205.260000", "165206.750000", "165208.240000", "165209.730000", "165211.220000", "165212.710000", "165214.200000", "165215.690000", "165217.180000", "165218.670000", "165220.160000", "165221.650000", "165223.140000", "165224.630000", "165226.120000", "165227.610000", "165229.100000", "165230.590000", "165232.080000", "165233.570000"],
      "ContentTime": ["164128.307000", "164128.310000", "164128.313000", "164128.315000", "164128.318000", "164128.320000", "164128.323000", "164128.325000", "164128.328000", "164128.330000", "164128.333000", "164128.335000", "164128.338000", "164128.340000", "164128.343000", "164128.345000", "164128.348000", "164128.350000", "164128.353000", "164128.355000", "164128.358000", "164128.360000", "164128.363000", "164128.365000", "164128.368000", "164128.370000", "164148.225000", "164148.227000", "164148.230000", "164148.232000", "164148.235000", "164148.237000", "164148.240000", "164148.242000", "164148.245000", "164148.247000", "164148.250000", "164148.252000", "164148.255000", "164148.257000", "164148.260000", "164148.262000", "164148.271000", "164148.273000", "164148.276000", "164148.278000", "164208.223000", "164208.226000", "164208.228000", "164208.231000", "164208.233000", "164208.236000", "164208.238000", "164208.241000", "164208.243000", "164208.246000", "164208.248000", "164208.251000", "164208.253000", "164208.256000", "164208.258000", "164208.261000", "164208.263000", "164208.266000", "164208.268000", "164208.271000", "164228.229000", "164228.232000", "164228.234000", "164228.237000", "164228.239000", "164228.242000", "164228.244000", "164228.247000", "164228.249000", "164228.252000", "164228.254000", "164228.257000", "164228.259000", "164228.262000", "164228.264000", "164228.267000", "164228.269000", "164228.272000", "164228.283000", "164228.286000", "164228.288000", "164308.283000", "164308.286000", "164308.289000", "164308.291000", "164308.294000", "164308.296000", "164308.299000", "164308.301000", "164308.304000", "164308.306000", "164308.309000", "164308.311000", "164308.314000", "164308.316000", "164308.319000", "164308.321000", "164308.324000", "164308.326000", "164308.329000", "164308.331000", "164308.334000", "164308.336000", "164308.339000", "164308.341000", "164308.344000", "164308.346000", "164308.349000", "164308.351000", "164308.354000", "164308.356000", "164308.359000", "164308.361000", "164308.364000", "164348.256000", "164348.259000", "164348.268000", "164348.271000", "164348.273000", "164348.276000", "164348.278000", "164348.281000", "164348.283000", "164348.286000", "164348.288000", "164348.291000", "164348.293000", "164348.296000", "164348.298000", "164348.301000", "164348.303000", "164348.306000", "164348.308000", "164348.311000", "164348.313000", "164348.316000", "164348.318000", "164348.321000", "164348.323000", "164348.326000", "164348.328000", "164428.264000", "164428.267000", "164428.269000", "164428.272000", "164428.274000", "164428.277000", "164428.279000", "164428.282000", "164428.284000", "164428.287000", "164428.289000", "164428.292000", "164428.294000", "164428.297000", "164428.299000", "164428.310000", "164428.312000", "164428.315000", "164428.317000", "164428.320000", "164428.322000", "164428.325000", "164428.327000", "164428.330000", "164428.332000", "164428.335000", "164428.337000", "164508.250000", "164508.253000", "164508.255000", "164508.258000", "164508.260000", "164508.263000", "164508.265000", "164508.268000", "164508.270000", "164508.273000", "164508.275000", "164508.277000", "164508.280000", "164508.282000", "164508.285000", "164508.287000", "164508.290000", "164508.292000", "164508.295000", "164508.297000", "164508.300000", "164508.303000", "164508.305000", "164508.308000", "164508.310000", "164508.313000", "164548.257000", "164548.260000", "164548.262000", "164548.265000", "164548.267000", "164548.270000", "164548.272000", "164548.275000", "164548.277000", "164548.280000", "164548.282000", "164548.285000", "164548.287000", "164548.290000", "164548.292000", "164548.295000", "164548.297000", "164548.300000", "164548.302000", "164548.305000", "164548.307000", "164548.310000", "164548.312000", "164548.315000", "164548.317000", "164548.320000", "164548.322000", "164628.259000", "164628.262000", "164628.264000", "164628.267000", "164628.269000", "164628.272000", "164628.274000", "164628.277000", "164628.279000", "164628.282000", "164628.284000", "164628.287000", "164628.289000", "164628.292000", "164628.294000", "164628.297000", "164628.299000", "164628.302000", "164628.305000", "164628.307000", "164628.309000", "164628.312000", "164628.315000", "164628.317000", "164628.320000", "164628.322000", "164628.325000", "164708.245000", "164708.248000", "164708.250000", "164708.253000", "164708.256000", "164708.258000", "164708.261000", "164708.263000", "164708.266000", "164708.268000", "164708.271000", "164708.273000", "164708.276000", "164708.278000", "164708.281000", "164708.284000", "164708.286000", "164708.289000", "164708.291000", "164708.294000", "164708.296000", "164708.299000", "164708.301000", "164708.304000", "164708.306000", "164708.309000", "164708.311000", "164748.253000", "164748.256000", "164748.258000", "164748.261000", "164748.263000", "164748.266000", "164748.268000", "164748.271000", "164748.273000", "164748.276000", "164748.278000", "164748.281000", "164748.283000", "164748.286000", "164748.288000", "164748.291000", "164748.293000", "164748.296000", "164748.306000", "164748.308000", "164748.312000", "164748.314000", "164748.317000", "164748.319000", "164748.322000", "164748.324000", "164748.327000", "164828.272000", "164828.275000", "164828.278000", "164828.280000", "164828.283000", "164828.285000", "164828.288000", "164828.290000", "164828.293000", "164828.295000", "164828.298000", "164828.300000", "164828.303000", "164828.305000", "164828.308000", "164828.310000", "164828.313000", "164828.315000", "164828.318000", "164828.320000", "164828.323000", "164828.325000", "164828.328000", "164828.330000", "164828.333000", "164828.335000", "164828.338000", "164908.635000", "164908.638000", "164908.640000", "164908.643000", "164908.645000", "164908.648000", "164908.650000", "164908.653000", "164908.655000", "164908.658000", "164908.662000", "164908.665000", "164908.667000", "164908.670000", "164908.673000", "164908.675000", "164908.678000", "164908.680000", "164908.683000", "164908.685000", "164908.688000", "164908.690000", "164908.693000", "164908.695000", "164908.698000", "164908.700000", "164948.249000", "164948.252000", "164948.255000", "164948.257000", "164948.260000", "164948.262000", "164948.265000", "164948.267000", "164948.270000", "164948.272000", "164948.275000", "164948.277000", "164948.280000", "164948.282000", "164948.285000", "164948.287000", "164948.290000", "164948.292000", "164948.296000", "164948.299000", "164948.301000", "164948.304000", "164948.306000", "164948.309000", "164948.311000", "164948.314000", "164948.316000", "165028.269000", "165028.272000", "165028.274000", "165028.277000", "165028.279000", "165028.282000", "165028.285000", "165028.287000", "165028.289000", "165028.292000", "165028.295000", "165028.297000", "165028.299000", "165028.302000", "165028.304000", "165028.307000", "165028.309000", "165028.312000", "165028.314000", "165028.317000", "165028.319000", "165028.322000", "165028.324000", "165028.327000", "165028.329000", "165028.332000", "165028.334000", "165108.254000", "165108.257000", "165108.260000", "165108.262000", "165108.265000", "165108.267000", "165108.269000", "165108.272000", "165108.274000", "165108.277000", "165108.280000", "165108.282000", "165108.284000", "165108.287000", "165108.290000", "165108.292000", "165108.295000", "165108.297000", "165108.300000", "165108.302000", "165108.305000", "165108.307000", "165108.310000", "165108.312000", "165108.315000", "165108.317000", "165108.320000", "165148.252000", "165148.255000", "165148.258000", "165148.260000", "165148.263000", "165148.265000", "165148.268000", "165148.270000", "165148.273000", "165148.275000", "165148.278000", "165148.280000", "165148.283000", "165148.285000", "165148.288000", "165148.290000", "165148.293000", "165148.295000", "165148.298000", "165148.300000", "165148.303000", "165148.305000", "165148.308000", "165148.310000", "165148.313000", "165148.315000", "165148.318000", "165228.265000", "165228.268000", "165228.270000", "165228.273000", "165228.275000", "165228.278000", "165228.280000", "165228.283000", "165228.286000", "165228.288000", "165228.291000", "165228.293000", "165228.296000", "165228.298000", "165228.301000", "165228.303000", "165228.306000", "165228.308000", "165228.311000", "165228.313000", "165228.316000", "165228.318000", "165228.321000", "165228.323000", "165228.326000", "165228.328000", "165228.331000", "165236.562000", "165236.565000", "165236.567000", "165236.570000", "165236.572000"],
