{
  "AcquisitionMatrixPE": 104,
  "AcquisitionNumber": 1,
  "AcquisitionTime": "17:24:34.837500",
  "BandwidthPerPixelPhaseEncode": 17.17,
  "BaseResolution": 104,
  "BodyPartExamined": "BRAIN",
  "CoilCombinationMethod": "Sum of Squares",
  "ConsistencyInfo": "N4_VE11C_LATEST_20160120",
  "ConversionSoftware": "dcm2niix",
  "ConversionSoftwareVersion": "v1.0.20211006",
  "DerivedVendorReportedEchoSpacing": 0.000560011,
  "DeviceSerialNumber": "167006",
  "DwellTime": 2.1e-06,
  "EchoTime": 0.037,
  "EchoTime1": 0.037,
  "EchoTime2": 0.001,
  "EchoTrainLength": 104,
  "EffectiveEchoSpacing": 0.000560011,
  "FlipAngle": 52,
  "HeudiconvVersion": "0.10.0",
  "ImageComments": "Unaliased MB4/PE3/LB",
  "ImageOrientationPatientDICOM": [0.995598, 0.0926847, 0.013918, -0.0818531, 0.932194, -0.352583],
  "ImageOrientationText": "Tra>Cor(-20.5)>Sag(2.6)",
  "ImageType": [
    "ORIGINAL",
    "PRIMARY",
    "P",
    "MB",
    "ND",
    "MOSAIC",
    "PHASE"
],
  "ImagingFrequency": 123.259,
  "InPlanePhaseEncodingDirectionDICOM": "COL",
  "InstitutionAddress": "Chemin Queen-Mary 4565,Montreal,District,CA,H3W 1W5",
  "InstitutionName": "IUGM",
  "InstitutionalDepartmentName": "Department",
  "MRAcquisitionType": "2D",
  "MagneticFieldStrength": 3,
  "Manufacturer": "Siemens",
  "ManufacturersModelName": "Prisma_fit",
  "MatrixCoilMode": "SENSE",
  "Modality": "MR",
  "MultibandAccelerationFactor": 4,
  "PartialFourier": 1,
  "PatientPosition": "HFS",
  "PercentPhaseFOV": 100,
  "PercentSampling": 100,
  "PhaseEncodingDirection": "j",
  "PhaseEncodingSteps": 104,
  "PhaseResolution": 1,
  "PixelBandwidth": 2290,
  "ProcedureStepDescription": "games^mario",
  "ProtocolName": "func_task-mario_run-01",
  "PulseSequenceDetails": "%CustomerSeq%\\cmrr_mbep2d_bold",
  "ReceiveCoilActiveElements": "HC1-7;NC1,2",
  "ReceiveCoilName": "HeadNeck_64",
  "ReconMatrixPE": 104,
  "RepetitionTime": 1.49,
  "SAR": 0.0440505,
  "ScanOptions": "FS",
  "ScanningSequence": "EP",
  "SequenceName": "epfid2d1_104",
  "SequenceVariant": "SK\\SS",
  "SeriesDescription": "func_task-mario_run-01",
  "SeriesNumber": 11,
  "ShimSetting": [629, -7185, -8795, 653, 91, 3, -20, -27],
  "SliceThickness": 2,
  "SliceTiming": [0, 0.785, 0.1, 0.8825, 0.1975, 0.98, 0.295, 1.08, 0.3925, 1.1775, 0.49, 1.275, 0.59, 1.3725, 0.6875, 0, 0.785, 0.1, 0.8825, 0.1975, 0.98, 0.295, 1.08, 0.3925, 1.1775, 0.49, 1.275, 0.59, 1.3725, 0.6875, 0, 0.785, 0.1, 0.8825, 0.1975, 0.98, 0.295, 1.08, 0.3925, 1.1775, 0.49, 1.275, 0.59, 1.3725, 0.6875, 0, 0.785, 0.1, 0.8825, 0.1975, 0.98, 0.295, 1.08, 0.3925, 1.1775, 0.49, 1.275, 0.59, 1.3725, 0.6875],
  "SoftwareVersions": "syngo MR E11",
  "SpacingBetweenSlices": 2,
  "StationName": "MRC35049",
  "TaskName": "mario",
  "TotalReadoutTime": 0.0576811,
  "TxRefAmp": 265.039,
  "WipMemBlock": "40708513-8017-46ed-9fe5-512bea070bdd||Sequence: R016 ve11c/master r/e634e98; Dec 19 2017 11:00:25 by eja",
  "dcmmeta_affine": [
    [-1.9911965131759644, -0.1637062430381775, 0.09130663424730301, 111.4866714477539],
    [-0.1853693425655365, 1.8643872737884521, -0.6997844576835632, -49.785152435302734],
    [0.027835920453071594, 0.7051668763160706, 1.8713537454605103, -57.1501350402832],
    [0.0, 0.0, 0.0, 1.0]
],
  "dcmmeta_reorient_transform": [
    [0.0, -1.0, 0.0, 103.0],
    [1.0, 0.0, 0.0, 0.0],
    [0.0, 0.0, 1.0, 0.0],
    [0.0, 0.0, 0.0, 1.0]
],
  "dcmmeta_shape": [104, 104, 60, 479],
  "dcmmeta_slice_dim": 2,
  "dcmmeta_version": 0.6,
  "global": {
    "const": {
      "AcquisitionMatrix": [104, 0, 0, 104],
      "AngioFlag": "N",
      "BitsAllocated": 16,
      "BitsStored": 16,
      "BodyPartExamined": "BRAIN",
      "Columns": 832,
      "EchoNumbers": 1,
      "EchoTime": 37.0,
      "EchoTrainLength": 104,
      "FlipAngle": 52.0,
      "HighBit": 15,
      "ImageOrientationPatient": [0.99559823308906, 0.09268467319962, 0.01391796047628, -0.0818531190687, 0.93219364203113, -0.3525834378632],
      "ImagePositionPatient": [-759.83137173597, -888.35815158253, 262.03052046292],
      "ImageType": [
        "ORIGINAL",
        "PRIMARY",
        "P",
        "MB",
        "ND",
        "MOSAIC"
],
      "ImagedNucleus": "1H",
      "ImagingFrequency": 123.258848,
      "InPlanePhaseEncodingDirection": "COL",
      "LargestImagePixelValue": 4095,
      "MRAcquisitionType": "2D",
      "MagneticFieldStrength": 3.0,
      "Manufacturer": "SIEMENS",
      "ManufacturerModelName": "Prisma_fit",
      "Modality": "MR",
      "NumberOfAverages": 1.0,
      "NumberOfPhaseEncodingSteps": 104,
      "PercentPhaseFieldOfView": 100.0,
      "PercentSampling": 100.0,
      "PerformedProcedureStepStartTime": "170138.859000",
      "PhotometricInterpretation": "MONOCHROME2",
      "PixelBandwidth": 2290.0,
      "PixelRepresentation": 0,
      "PixelSpacing": [2.0, 2.0],
      "ProtocolName": "func_task-mario_run-01",
      "RepetitionTime": 1490.0,
      "RescaleIntercept": -4096.0,
      "RescaleSlope": 2.0,
      "RescaleType": "US",
      "Rows": 832,
      "SAR": 0.04405051560668,
      "SamplesPerPixel": 1,
      "ScanOptions": "FS",
      "ScanningSequence": "EP",
      "SequenceName": "epfid2d1_104",
      "SequenceVariant": [
        "SK",
        "SS"
],
      "SeriesDescription": "func_task-mario_run-01",
      "SeriesNumber": 11,
      "SeriesTime": "172553.065000",
      "SliceLocation": -30.964886339728,
      "SliceThickness": 2.0,
      "SmallestImagePixelValue": 0,
      "SoftwareVersions": "syngo MR E11",
      "SpacingBetweenSlices": 2.0000000256493,
      "SpecificCharacterSet": "ISO_IR 100",
      "StudyID": "1",
      "StudyTime": "170138.801000",
      "TransmitCoilName": "Body",
      "VariableFlipAngleFlag": "N",
      "WindowCenterWidthExplanation": "Algo1",
      "dBdt": 0.0},
    "slices": {}
  },
  "time": {
    "samples": {
      "AcquisitionNumber": [1, 2, 3, 4, 5, 6, 7, 8, 9, 10, 11, 12, 13, 14, 15, 16, 17, 18, 19, 20, 21, 22, 23, 24, 25, 26, 27, 28, 29, 30, 31, 32, 33, 34, 35, 36, 37, 38, 39, 40, 41, 42, 43, 44, 45, 46, 47, 48, 49, 50, 51, 52, 53, 54, 55, 56, 57, 58, 59, 60, 61, 62, 63, 64, 65, 66, 67, 68, 69, 70, 71, 72, 73, 74, 75, 76, 77, 78, 79, 80, 81, 82, 83, 84, 85, 86, 87, 88, 89, 90, 91, 92, 93, 94, 95, 96, 97, 98, 99, 100, 101, 102, 103, 104, 105, 106, 107, 108, 109, 110, 111, 112, 113, 114, 115, 116, 117, 118, 119, 120, 121, 122, 123, 124, 125, 126, 127, 128, 129, 130, 131, 132, 133, 134, 135, 136, 137, 138, 139, 140, 141, 142, 143, 144, 145, 146, 147, 148, 149, 150, 151, 152, 153, 154, 155, 156, 157, 158, 159, 160, 161, 162, 163, 164, 165, 166, 167, 168, 169, 170, 171, 172, 173, 174, 175, 176, 177, 178, 179, 180, 181, 182, 183, 184, 185, 186, 187, 188, 189, 190, 191, 192, 193, 194, 195, 196, 197, 198, 199, 200, 201, 202, 203, 204, 205, 206, 207, 208, 209, 210, 211, 212, 213, 214, 215, 216, 217, 218, 219, 220, 221, 222, 223, 224, 225, 226, 227, 228, 229, 230, 231, 232, 233, 234, 235, 236, 237, 238, 239, 240, 241, 242, 243, 244, 245, 246, 247, 248, 249, 250, 251, 252, 253, 254, 255, 256, 257, 258, 259, 260, 261, 262, 263, 264, 265, 266, 267, 268, 269, 270, 271, 272, 273, 274, 275, 276, 277, 278, 279, 280, 281, 282, 283, 284, 285, 286, 287, 288, 289, 290, 291, 292, 293, 294, 295, 296, 297, 298, 299, 300, 301, 302, 303, 304, 305, 306, 307, 308, 309, 310, 311, 312, 313, 314, 315, 316, 317, 318, 319, 320, 321, 322, 323, 324, 325, 326, 327, 328, 329, 330, 331, 332, 333, 334, 335, 336, 337, 338, 339, 340, 341, 342, 343, 344, 345, 346, 347, 348, 349, 350, 351, 352, 353, 354, 355, 356, 357, 358, 359, 360, 361, 362, 363, 364, 365, 366, 367, 368, 369, 370, 371, 372, 373, 374, 375, 376, 377, 378, 379, 380, 381, 382, 383, 384, 385, 386, 387, 388, 389, 390, 391, 392, 393, 394, 395, 396, 397, 398, 399, 400, 401, 402, 403, 404, 405, 406, 407, 408, 409, 410, 411, 412, 413, 414, 415, 416, 417, 418, 419, 420, 421, 422, 423, 424, 425, 426, 427, 428, 429, 430, 431, 432, 433, 434, 435, 436, 437, 438, 439, 440, 441, 442, 443, 444, 445, 446, 447, 448, 449, 450, 451, 452, 453, 454, 455, 456, 457, 458, 459, 460, 461, 462, 463, 464, 465, 466, 467, 468, 469, 470, 471, 472, 473, 474, 475, 476, 477, 478, 479],
      "AcquisitionTime": ["172434.837500", "172436.327500", "172437.817500", "172439.307500", "172440.797500", "172442.287500", "172443.777500", "172445.267500", "172446.757500", "172448.247500", "172449.737500", "172451.227500", "172452.717500", "172454.207500", "172455.697500", "172457.187500", "172458.677500", "172500.167500", "172501.657500", "172503.147500", "172504.637500", "172506.127500", "172507.617500", "172509.107500", "172510.597500", "172512.087500", "172513.577500", "172515.067500", "172516.557500", "172518.047500", "172519.537500", "172521.027500", "172522.517500", "172524.007500", "172525.497500", "172526.987500", "172528.477500", "172529.967500", "172531.457500", "172532.947500", "172534.437500", "172535.927500", "172537.417500", "172538.907500", "172540.397500", "172541.887500", "172543.377500", "172544.867500", "172546.357500", "172547.847500", "172549.337500", "172550.827500", "172552.317500", "172553.807500", "172555.297500", "172556.787500", "172558.277500", "172559.767500", "172601.257500", "172602.747500", "172604.237500", "172605.727500", "172607.217500", "172608.707500", "172610.197500", "172611.687500", "172613.177500", "172614.667500", "172616.157500", "172617.647500", "172619.137500", "172620.627500", "172622.117500", "172623.607500", "172625.097500", "172626.587500", "172628.077500", "172629.567500", "172631.057500", "172632.547500", "172634.037500", "172635.527500", "172637.017500", "172638.507500", "172639.997500", "172641.487500", "172642.977500", "172644.467500", "172645.957500", "172647.447500", "172648.937500", "172650.427500", "172651.917500", "172653.407500", "172654.897500", "172656.387500", "172657.877500", "172659.367500", "172700.857500", "172702.347500", "172703.837500", "172705.327500", "172706.817500", "172708.307500", "172709.797500", "172711.287500", "172712.777500", "172714.267500", "172715.757500", "172717.247500", "172718.737500", "172720.227500", "172721.717500", "172723.207500", "172724.697500", "172726.187500", "172727.677500", "172729.167500", "172730.657500", "172732.147500", "172733.637500", "172735.127500", "172736.617500", "172738.107500", "172739.597500", "172741.087500", "172742.577500", "172744.067500", "172745.557500", "172747.047500", "172748.537500", "172750.027500", "172751.517500", "172753.007500", "172754.497500", "172755.987500", "172757.477500", "172758.967500", "172800.457500", "172801.947500", "172803.437500", "172804.927500", "172806.417500", "172807.907500", "172809.397500", "172810.887500", "172812.377500", "172813.867500", "172815.357500", "172816.847500", "172818.337500", "172819.827500", "172821.317500", "172822.807500", "172824.297500", "172825.787500", "172827.277500", "172828.767500", "172830.257500", "172831.747500", "172833.237500", "172834.727500", "172836.217500", "172837.707500", "172839.197500", "172840.687500", "172842.177500", "172843.667500", "172845.157500", "172846.647500", "172848.137500", "172849.627500", "172851.117500", "172852.607500", "172854.097500", "172855.587500", "172857.077500", "172858.567500", "172900.057500", "172901.547500", "172903.037500", "172904.527500", "172906.017500", "172907.507500", "172908.997500", "172910.487500", "172911.977500", "172913.467500", "172914.957500", "172916.447500", "172917.937500", "172919.427500", "172920.917500", "172922.407500", "172923.897500", "172925.387500", "172926.877500", "172928.367500", "172929.857500", "172931.347500", "172932.837500", "172934.327500", "172935.817500", "172937.307500", "172938.797500", "172940.287500", "172941.777500", "172943.267500", "172944.757500", "172946.247500", "172947.737500", "172949.227500", "172950.717500", "172952.207500", "172953.697500", "172955.187500", "172956.677500", "172958.167500", "172959.657500", "173001.147500", "173002.637500", "173004.127500", "173005.617500", "173007.107500", "173008.597500", "173010.087500", "173011.577500", "173013.067500", "173014.557500", "173016.047500", "173017.537500", "173019.027500", "173020.517500", "173022.007500", "173023.497500", "173024.987500", "173026.477500", "173027.967500", "173029.457500", "173030.947500", "173032.437500", "173033.927500", "173035.417500", "173036.907500", "173038.397500", "173039.887500", "173041.377500", "173042.867500", "173044.357500", "173045.847500", "173047.337500", "173048.827500", "173050.317500", "173051.807500", "173053.297500", "173054.787500", "173056.277500", "173057.767500", "173059.257500", "173100.747500", "173102.237500", "173103.727500", "173105.217500", "173106.707500", "173108.197500", "173109.687500", "173111.177500", "173112.667500", "173114.157500", "173115.647500", "173117.137500", "173118.627500", "173120.117500", "173121.607500", "173123.097500", "173124.587500", "173126.077500", "173127.567500", "173129.057500", "173130.547500", "173132.037500", "173133.527500", "173135.017500", "173136.507500", "173137.997500", "173139.487500", "173140.977500", "173142.467500", "173143.957500", "173145.447500", "173146.937500", "173148.427500", "173149.917500", "173151.407500", "173152.897500", "173154.387500", "173155.877500", "173157.367500", "173158.857500", "173200.347500", "173201.837500", "173203.327500", "173204.817500", "173206.307500", "173207.797500", "173209.287500", "173210.777500", "173212.267500", "173213.757500", "173215.247500", "173216.737500", "173218.227500", "173219.717500", "173221.207500", "173222.697500", "173224.187500", "173225.677500", "173227.167500", "173228.657500", "173230.147500", "173231.637500", "173233.127500", "173234.617500", "173236.107500", "173237.597500", "173239.087500", "173240.577500", "173242.067500", "173243.557500", "173245.047500", "173246.537500", "173248.027500", "173249.517500", "173251.007500", "173252.497500", "173253.987500", "173255.477500", "173256.967500", "173258.457500", "173259.947500", "173301.437500", "173302.927500", "173304.417500", "173305.907500", "173307.397500", "173308.887500", "173310.377500", "173311.867500", "173313.357500", "173314.847500", "173316.337500", "173317.827500", "173319.317500", "173320.807500", "173322.297500", "173323.787500", "173325.277500", "173326.767500", "173328.257500", "173329.747500", "173331.237500", "173332.727500", "173334.217500", "173335.707500", "173337.197500", "173338.687500", "173340.177500", "173341.667500", "173343.157500", "173344.647500", "173346.137500", "173347.627500", "173349.117500", "173350.607500", "173352.097500", "173353.587500", "173355.077500", "173356.567500", "173358.057500", "173359.547500", "173401.037500", "173402.527500", "173404.017500", "173405.507500", "173406.997500", "173408.487500", "173409.977500", "173411.467500", "173412.957500", "173414.447500", "173415.937500", "173417.427500", "173418.917500", "173420.407500", "173421.897500", "173423.387500", "173424.877500", "173426.367500", "173427.857500", "173429.347500", "173430.837500", "173432.327500", "173433.817500", "173435.307500", "173436.797500", "173438.287500", "173439.777500", "173441.267500", "173442.757500", "173444.247500", "173445.737500", "173447.227500", "173448.717500", "173450.207500", "173451.697500", "173453.187500", "173454.677500", "173456.167500", "173457.657500", "173459.147500", "173500.637500", "173502.127500", "173503.617500", "173505.107500", "173506.597500", "173508.087500", "173509.577500", "173511.067500", "173512.557500", "173514.047500", "173515.537500", "173517.027500", "173518.517500", "173520.007500", "173521.497500", "173522.987500", "173524.477500", "173525.967500", "173527.457500", "173528.947500", "173530.437500", "173531.927500", "173533.417500", "173534.907500", "173536.397500", "173537.887500", "173539.377500", "173540.867500", "173542.357500", "173543.847500", "173545.337500", "173546.827500", "173548.317500", "173549.807500", "173551.297500", "173552.787500", "173554.277500", "173555.767500", "173557.257500", "173558.747500", "173600.237500", "173601.727500", "173603.217500", "173604.707500", "173606.197500", "173607.687500", "173609.177500", "173610.667500", "173612.157500", "173613.647500", "173615.137500", "173616.627500", "173618.117500", "173619.607500", "173621.097500", "173622.587500", "173624.077500", "173625.567500", "173627.057500"],
      "ContentTime": ["172553.067000", "172553.070000", "172553.072000", "172553.075000", "172553.077000", "172553.080000", "172553.082000", "172553.085000", "172553.087000", "172553.090000", "172553.092000", "172553.095000", "172553.097000", "172553.100000", "172553.102000", "172553.105000", "172553.107000", "172553.110000", "172553.112000", "172553.115000", "172553.117000", "172553.120000", "172553.122000", "172553.125000", "172613.030000", "172613.033000", "172613.035000", "172613.038000", "172613.040000", "172613.043000", "172613.045000", "172613.048000", "172613.050000", "172613.053000", "172613.056000", "172613.058000", "172613.061000", "172613.063000", "172613.067000", "172613.069000", "172613.073000", "172613.076000", "172613.079000", "172613.081000", "172633.029000", "172633.032000", "172633.034000", "172633.037000", "172633.039000", "172633.051000", "172633.053000", "172633.056000", "172633.058000", "172633.061000", "172633.063000", "172633.066000", "172633.068000", "172633.071000", "172633.073000", "172633.076000", "172633.078000", "172633.081000", "172633.083000", "172633.086000", "172633.088000", "172653.010000", "172653.012000", "172653.015000", "172653.017000", "172653.020000", "172653.022000", "172653.025000", "172653.027000", "172653.030000", "172653.032000", "172653.040000", "172653.042000", "172653.045000", "172653.047000", "172653.050000", "172653.052000", "172653.055000", "172653.057000", "172653.060000", "172653.062000", "172713.020000", "172713.023000", "172713.026000", "172713.028000", "172713.031000", "172713.033000", "172713.036000", "172713.038000", "172713.041000", "172713.043000", "172713.046000", "172713.048000", "172713.051000", "172713.053000", "172713.055000", "172713.058000", "172713.060000", "172713.063000", "172713.065000", "172713.068000", "172753.046000", "172753.048000", "172753.051000", "172753.053000", "172753.056000", "172753.058000", "172753.061000", "172753.063000", "172753.066000", "172753.076000", "172753.079000", "172753.082000", "172753.085000", "172753.088000", "172753.091000", "172753.102000", "172753.105000", "172753.108000", "172753.111000", "172753.113000", "172753.116000", "172753.119000", "172753.122000", "172753.126000", "172753.128000", "172753.131000", "172753.134000", "172833.053000", "172833.056000", "172833.058000", "172833.061000", "172833.063000", "172833.066000", "172833.069000", "172833.071000", "172833.074000", "172833.076000", "172833.079000", "172833.081000", "172833.084000", "172833.086000", "172833.089000", "172833.091000", "172833.094000", "172833.096000", "172833.099000", "172833.101000", "172833.104000", "172833.106000", "172833.109000", "172833.111000", "172833.114000", "172833.116000", "172833.119000", "172913.043000", "172913.046000", "172913.049000", "172913.051000", "172913.054000", "172913.056000", "172913.059000", "172913.061000", "172913.064000", "172913.066000", "172913.069000", "172913.072000", "172913.074000", "172913.077000", "172913.079000", "172913.082000", "172913.084000", "172913.087000", "172913.089000", "172913.092000", "172913.094000", "172913.097000", "172913.099000", "172913.102000", "172913.104000", "172913.107000", "172913.109000", "172953.046000", "172953.049000", "172953.051000", "172953.054000", "172953.057000", "172953.059000", "172953.062000", "172953.064000", "172953.067000", "172953.069000", "172953.072000", "172953.074000", "172953.077000", "172953.079000", "172953.082000", "172953.084000", "172953.087000", "172953.089000", "172953.092000", "172953.094000", "172953.097000", "172953.099000", "172953.102000", "172953.104000", "172953.107000", "172953.109000", "172953.112000", "173033.447000", "173033.450000", "173033.452000", "173033.455000", "173033.458000", "173033.460000", "173033.463000", "173033.465000", "173033.468000", "173033.470000", "173033.473000", "173033.475000", "173033.478000", "173033.480000", "173033.483000", "173033.485000", "173033.488000", "173033.490000", "173033.493000", "173033.495000", "173033.498000", "173033.500000", "173033.503000", "173033.505000", "173033.508000", "173033.510000", "173113.044000", "173113.048000", "173113.051000", "173113.053000", "173113.056000", "173113.058000", "173113.061000", "173113.063000", "173113.066000", "173113.068000", "173113.071000", "173113.073000", "173113.076000", "173113.078000", "173113.081000", "173113.083000", "173113.086000", "173113.088000", "173113.091000", "173113.093000", "173113.095000", "173113.098000", "173113.101000", "173113.104000", "173113.106000", "173113.109000", "173113.111000", "173153.041000", "173153.043000", "173153.046000", "173153.048000", "173153.051000", "173153.053000", "173153.056000", "173153.058000", "173153.061000", "173153.063000", "173153.066000", "173153.068000", "173153.071000", "173153.073000", "173153.076000", "173153.078000", "173153.081000", "173153.083000", "173153.086000", "173153.088000", "173153.091000", "173153.093000", "173153.096000", "173153.098000", "173153.101000", "173153.103000", "173153.106000", "173233.044000", "173233.046000", "173233.049000", "173233.051000", "173233.054000", "173233.056000", "173233.059000", "173233.061000", "173233.064000", "173233.067000", "173233.069000", "173233.072000", "173233.074000", "173233.077000", "173233.079000", "173233.082000", "173233.084000", "173233.087000", "173233.089000", "173233.092000", "173233.094000", "173233.097000", "173233.099000", "173233.102000", "173233.104000", "173233.107000", "173233.109000", "173313.040000", "173313.043000", "173313.045000", "173313.048000", "173313.050000", "173313.053000", "173313.062000", "173313.064000", "173313.067000", "173313.069000", "173313.072000", "173313.074000", "173313.077000", "173313.079000", "173313.082000", "173313.084000", "173313.087000", "173313.089000", "173313.092000", "173313.094000", "173313.097000", "173313.099000", "173313.102000", "173313.104000", "173313.107000", "173313.109000", "173313.112000", "173353.048000", "173353.051000", "173353.053000", "173353.056000", "173353.058000", "173353.061000", "173353.063000", "173353.066000", "173353.068000", "173353.071000", "173353.073000", "173353.076000", "173353.084000", "173353.086000", "173353.089000", "173353.091000", "173353.094000", "173353.096000", "173353.099000", "173353.101000", "173353.104000", "173353.106000", "173353.109000", "173353.111000", "173353.114000", "173353.116000", "173353.119000", "173433.051000", "173433.054000", "173433.061000", "173433.063000", "173433.066000", "173433.068000", "173433.071000", "173433.073000", "173433.076000", "173433.078000", "173433.081000", "173433.083000", "173433.086000", "173433.088000", "173433.091000", "173433.093000", "173433.096000", "173433.098000", "173433.101000", "173433.104000", "173433.106000", "173433.108000", "173433.111000", "173433.114000", "173433.116000", "173433.118000", "173433.121000", "173513.060000", "173513.064000", "173513.066000", "173513.069000", "173513.071000", "173513.074000", "173513.076000", "173513.079000", "173513.082000", "173513.084000", "173513.087000", "173513.089000", "173513.092000", "173513.094000", "173513.097000", "173513.099000", "173513.102000", "173513.104000", "173513.107000", "173513.109000", "173513.112000", "173513.114000", "173513.117000", "173513.119000", "173513.122000", "173513.124000", "173553.051000", "173553.053000", "173553.056000", "173553.058000", "173553.061000", "173553.063000", "173553.066000", "173553.068000", "173553.071000", "173553.073000", "173553.076000", "173553.078000", "173553.081000", "173553.084000", "173553.086000", "173553.088000", "173553.091000", "173553.094000", "173553.096000", "173553.099000", "173553.101000", "173553.104000", "173553.106000", "173553.109000", "173553.111000", "173553.114000", "173553.116000", "173629.620000", "173629.622000", "173629.625000", "173629.627000", "173629.630000", "173629.632000", "173629.635000", "173629.637000", "173629.640000", "173629.642000", "173629.645000", "173629.647000", "173629.650000", "173629.652000", "173629.654000", "173629.657000", "173629.660000", "173629.662000", "173629.664000", "173629.667000", "173629.670000", "173629.672000", "173629.674000", "173629.677000", "173629.680000"],
