{
  "AcquisitionMatrixPE": 104,
  "AcquisitionNumber": 1,
  "AcquisitionTime": "18:16:54.070000",
  "BandwidthPerPixelPhaseEncode": 17.17,
  "BaseResolution": 104,
  "BodyPartExamined": "BRAIN",
  "CoilCombinationMethod": "Sum of Squares",
  "ConsistencyInfo": "N4_VE11C_LATEST_20160120",
  "ConversionSoftware": "dcm2niix",
  "ConversionSoftwareVersion": "v1.0.20211006",
  "DerivedVendorReportedEchoSpacing": 0.000560011,
  "DeviceSerialNumber": "167006",
  "DwellTime": 2.1e-06,
  "EchoTime": 0.037,
  "EchoTrainLength": 104,
  "EffectiveEchoSpacing": 0.000560011,
  "FlipAngle": 52,
  "HeudiconvVersion": "0.10.0",
  "ImageComments": "Unaliased MB4/PE3/LB",
  "ImageOrientationPatientDICOM": [0.995598, 0.0926847, 0.013918, -0.0818531, 0.932194, -0.352583],
  "ImageOrientationText": "Tra>Cor(-20.5)>Sag(2.6)",
  "ImageType": [
    "ORIGINAL",
    "PRIMARY",
    "M",
    "MB",
    "ND",
    "MOSAIC"
],
  "ImagingFrequency": 123.259,
  "InPlanePhaseEncodingDirectionDICOM": "COL",
  "InstitutionAddress": "Chemin Queen-Mary 4565,Montreal,District,CA,H3W 1W5",
  "InstitutionName": "IUGM",
  "InstitutionalDepartmentName": "Department",
  "MRAcquisitionType": "2D",
  "MagneticFieldStrength": 3,
  "Manufacturer": "Siemens",
  "ManufacturersModelName": "Prisma_fit",
  "MatrixCoilMode": "SENSE",
  "Modality": "MR",
  "MultibandAccelerationFactor": 4,
  "PartialFourier": 1,
  "PatientPosition": "HFS",
  "PercentPhaseFOV": 100,
  "PercentSampling": 100,
  "PhaseEncodingDirection": "j",
  "PhaseEncodingSteps": 104,
  "PhaseResolution": 1,
  "PixelBandwidth": 2290,
  "ProcedureStepDescription": "games^mario",
  "ProtocolName": "func_task-mario_run-05",
  "PulseSequenceDetails": "%CustomerSeq%\\cmrr_mbep2d_bold",
  "ReceiveCoilActiveElements": "HC1-7;NC1,2",
  "ReceiveCoilName": "HeadNeck_64",
  "ReconMatrixPE": 104,
  "RepetitionTime": 1.49,
  "SAR": 0.0440505,
  "ScanOptions": "FS",
  "ScanningSequence": "EP",
  "SequenceName": "epfid2d1_104",
  "SequenceVariant": "SK\\SS",
  "SeriesDescription": "func_task-mario_run-05",
  "SeriesNumber": 22,
  "ShimSetting": [629, -7185, -8795, 653, 91, 3, -20, -27],
  "SliceThickness": 2,
  "SliceTiming": [0, 0.785, 0.1, 0.8825, 0.1975, 0.98, 0.295, 1.08, 0.3925, 1.1775, 0.49, 1.275, 0.59, 1.3725, 0.6875, 0, 0.785, 0.1, 0.8825, 0.1975, 0.98, 0.295, 1.08, 0.3925, 1.1775, 0.49, 1.275, 0.59, 1.3725, 0.6875, 0, 0.785, 0.1, 0.8825, 0.1975, 0.98, 0.295, 1.08, 0.3925, 1.1775, 0.49, 1.275, 0.59, 1.3725, 0.6875, 0, 0.785, 0.1, 0.8825, 0.1975, 0.98, 0.295, 1.08, 0.3925, 1.1775, 0.49, 1.275, 0.59, 1.3725, 0.6875],
  "SoftwareVersions": "syngo MR E11",
  "SpacingBetweenSlices": 2,
  "StationName": "MRC35049",
  "TaskName": "mario",
  "TotalReadoutTime": 0.0576811,
  "TxRefAmp": 265.039,
  "WipMemBlock": "808f6e8a-8209-4304-a60d-32fbb1f2bb09||Sequence: R016 ve11c/master r/e634e98; Dec 19 2017 11:00:25 by eja",
  "dcmmeta_affine": [
    [-1.9911965131759644, -0.1637062430381775, 0.09130663424730301, 111.4866714477539],
    [-0.1853693425655365, 1.8643872737884521, -0.6997844576835632, -49.785152435302734],
    [0.027835920453071594, 0.7051668763160706, 1.8713537454605103, -57.1501350402832],
    [0.0, 0.0, 0.0, 1.0]
],
  "dcmmeta_reorient_transform": [
    [0.0, -1.0, 0.0, 103.0],
    [1.0, 0.0, 0.0, 0.0],
    [0.0, 0.0, 1.0, 0.0],
    [0.0, 0.0, 0.0, 1.0]
],
  "dcmmeta_shape": [104, 104, 60, 441],
  "dcmmeta_slice_dim": 2,
  "dcmmeta_version": 0.6,
  "global": {
    "const": {
      "AcquisitionMatrix": [104, 0, 0, 104],
      "AngioFlag": "N",
      "BitsAllocated": 16,
      "BitsStored": 16,
      "BodyPartExamined": "BRAIN",
      "Columns": 832,
      "EchoNumbers": 1,
      "EchoTime": 37.0,
      "EchoTrainLength": 104,
      "FlipAngle": 52.0,
      "HighBit": 15,
      "ImageOrientationPatient": [0.99559823308906, 0.09268467319962, 0.01391796047628, -0.0818531190687, 0.93219364203113, -0.3525834378632],
      "ImagePositionPatient": [-759.83137173597, -888.35815158253, 262.03052046292],
      "ImageType": [
        "ORIGINAL",
        "PRIMARY",
        "M",
        "MB",
        "ND",
        "MOSAIC"
],
      "ImagedNucleus": "1H",
      "ImagingFrequency": 123.258873,
      "InPlanePhaseEncodingDirection": "COL",
      "MRAcquisitionType": "2D",
      "MagneticFieldStrength": 3.0,
      "Manufacturer": "SIEMENS",
      "ManufacturerModelName": "Prisma_fit",
      "Modality": "MR",
      "NumberOfAverages": 1.0,
      "NumberOfPhaseEncodingSteps": 104,
      "PercentPhaseFieldOfView": 100.0,
      "PercentSampling": 100.0,
      "PerformedProcedureStepStartTime": "170138.859000",
      "PhotometricInterpretation": "MONOCHROME2",
      "PixelBandwidth": 2290.0,
      "PixelRepresentation": 0,
      "PixelSpacing": [2.0, 2.0],
      "ProtocolName": "func_task-mario_run-05",
      "RepetitionTime": 1490.0,
      "Rows": 832,
      "SAR": 0.04405051560668,
      "SamplesPerPixel": 1,
      "ScanOptions": "FS",
      "ScanningSequence": "EP",
      "SequenceName": "epfid2d1_104",
      "SequenceVariant": [
        "SK",
        "SS"
],
      "SeriesDescription": "func_task-mario_run-05",
      "SeriesNumber": 22,
      "SeriesTime": "181815.603000",
      "SliceLocation": -30.964886339728,
      "SliceThickness": 2.0,
      "SmallestImagePixelValue": 0,
      "SoftwareVersions": "syngo MR E11",
      "SpacingBetweenSlices": 2.0000000256493,
      "SpecificCharacterSet": "ISO_IR 100",
      "StudyID": "1",
      "StudyTime": "170138.801000",
      "TransmitCoilName": "Body",
      "VariableFlipAngleFlag": "N",
      "WindowCenterWidthExplanation": "Algo1",
      "dBdt": 0.0},
    "slices": {}
  },
  "time": {
    "samples": {
      "AcquisitionNumber": [1, 2, 3, 4, 5, 6, 7, 8, 9, 10, 11, 12, 13, 14, 15, 16, 17, 18, 19, 20, 21, 22, 23, 24, 25, 26, 27, 28, 29, 30, 31, 32, 33, 34, 35, 36, 37, 38, 39, 40, 41, 42, 43, 44, 45, 46, 47, 48, 49, 50, 51, 52, 53, 54, 55, 56, 57, 58, 59, 60, 61, 62, 63, 64, 65, 66, 67, 68, 69, 70, 71, 72, 73, 74, 75, 76, 77, 78, 79, 80, 81, 82, 83, 84, 85, 86, 87, 88, 89, 90, 91, 92, 93, 94, 95, 96, 97, 98, 99, 100, 101, 102, 103, 104, 105, 106, 107, 108, 109, 110, 111, 112, 113, 114, 115, 116, 117, 118, 119, 120, 121, 122, 123, 124, 125, 126, 127, 128, 129, 130, 131, 132, 133, 134, 135, 136, 137, 138, 139, 140, 141, 142, 143, 144, 145, 146, 147, 148, 149, 150, 151, 152, 153, 154, 155, 156, 157, 158, 159, 160, 161, 162, 163, 164, 165, 166, 167, 168, 169, 170, 171, 172, 173, 174, 175, 176, 177, 178, 179, 180, 181, 182, 183, 184, 185, 186, 187, 188, 189, 190, 191, 192, 193, 194, 195, 196, 197, 198, 199, 200, 201, 202, 203, 204, 205, 206, 207, 208, 209, 210, 211, 212, 213, 214, 215, 216, 217, 218, 219, 220, 221, 222, 223, 224, 225, 226, 227, 228, 229, 230, 231, 232, 233, 234, 235, 236, 237, 238, 239, 240, 241, 242, 243, 244, 245, 246, 247, 248, 249, 250, 251, 252, 253, 254, 255, 256, 257, 258, 259, 260, 261, 262, 263, 264, 265, 266, 267, 268, 269, 270, 271, 272, 273, 274, 275, 276, 277, 278, 279, 280, 281, 282, 283, 284, 285, 286, 287, 288, 289, 290, 291, 292, 293, 294, 295, 296, 297, 298, 299, 300, 301, 302, 303, 304, 305, 306, 307, 308, 309, 310, 311, 312, 313, 314, 315, 316, 317, 318, 319, 320, 321, 322, 323, 324, 325, 326, 327, 328, 329, 330, 331, 332, 333, 334, 335, 336, 337, 338, 339, 340, 341, 342, 343, 344, 345, 346, 347, 348, 349, 350, 351, 352, 353, 354, 355, 356, 357, 358, 359, 360, 361, 362, 363, 364, 365, 366, 367, 368, 369, 370, 371, 372, 373, 374, 375, 376, 377, 378, 379, 380, 381, 382, 383, 384, 385, 386, 387, 388, 389, 390, 391, 392, 393, 394, 395, 396, 397, 398, 399, 400, 401, 402, 403, 404, 405, 406, 407, 408, 409, 410, 411, 412, 413, 414, 415, 416, 417, 418, 419, 420, 421, 422, 423, 424, 425, 426, 427, 428, 429, 430, 431, 432, 433, 434, 435, 436, 437, 438, 439, 440, 441],
      "AcquisitionTime": ["181654.070000", "181655.560000", "181657.050000", "181658.540000", "181700.030000", "181701.520000", "181703.010000", "181704.500000", "181705.990000", "181707.480000", "181708.970000", "181710.460000", "181711.950000", "181713.440000", "181714.930000", "181716.420000", "181717.910000", "181719.400000", "181720.890000", "181722.380000", "181723.870000", "181725.360000", "181726.850000", "181728.340000", "181729.830000", "181731.320000", "181732.810000", "181734.300000", "181735.790000", "181737.280000", "181738.770000", "181740.260000", "181741.750000", "181743.240000", "181744.730000", "181746.220000", "181747.710000", "181749.200000", "181750.690000", "181752.180000", "181753.670000", "181755.160000", "181756.650000", "181758.140000", "181759.630000", "181801.120000", "181802.610000", "181804.100000", "181805.590000", "181807.080000", "181808.570000", "181810.060000", "181811.550000", "181813.040000", "181814.530000", "181816.020000", "181817.510000", "181819.000000", "181820.490000", "181821.980000", "181823.470000", "181824.960000", "181826.450000", "181827.940000", "181829.430000", "181830.920000", "181832.410000", "181833.900000", "181835.390000", "181836.880000", "181838.370000", "181839.860000", "181841.350000", "181842.840000", "181844.330000", "181845.820000", "181847.310000", "181848.800000", "181850.290000", "181851.780000", "181853.270000", "181854.760000", "181856.250000", "181857.740000", "181859.230000", "181900.720000", "181902.210000", "181903.700000", "181905.190000", "181906.680000", "181908.170000", "181909.660000", "181911.150000", "181912.640000", "181914.130000", "181915.620000", "181917.110000", "181918.600000", "181920.090000", "181921.580000", "181923.070000", "181924.560000", "181926.050000", "181927.540000", "181929.030000", "181930.520000", "181932.010000", "181933.500000", "181934.990000", "181936.480000", "181937.970000", "181939.460000", "181940.950000", "181942.440000", "181943.930000", "181945.420000", "181946.910000", "181948.400000", "181949.890000", "181951.380000", "181952.870000", "181954.360000", "181955.850000", "181957.340000", "181958.830000", "182000.320000", "182001.810000", "182003.300000", "182004.790000", "182006.280000", "182007.770000", "182009.260000", "182010.750000", "182012.240000", "182013.730000", "182015.220000", "182016.710000", "182018.200000", "182019.690000", "182021.180000", "182022.670000", "182024.160000", "182025.650000", "182027.140000", "182028.630000", "182030.120000", "182031.610000", "182033.100000", "182034.590000", "182036.080000", "182037.570000", "182039.060000", "182040.550000", "182042.040000", "182043.530000", "182045.020000", "182046.510000", "182048.000000", "182049.490000", "182050.980000", "182052.470000", "182053.960000", "182055.450000", "182056.940000", "182058.430000", "182059.920000", "182101.410000", "182102.900000", "182104.390000", "182105.880000", "182107.370000", "182108.860000", "182110.350000", "182111.840000", "182113.330000", "182114.820000", "182116.310000", "182117.800000", "182119.290000", "182120.780000", "182122.270000", "182123.760000", "182125.250000", "182126.740000", "182128.230000", "182129.720000", "182131.210000", "182132.700000", "182134.190000", "182135.680000", "182137.170000", "182138.660000", "182140.150000", "182141.640000", "182143.130000", "182144.620000", "182146.110000", "182147.600000", "182149.090000", "182150.580000", "182152.070000", "182153.560000", "182155.050000", "182156.540000", "182158.030000", "182159.520000", "182201.010000", "182202.500000", "182203.990000", "182205.480000", "182206.970000", "182208.460000", "182209.950000", "182211.440000", "182212.930000", "182214.420000", "182215.910000", "182217.400000", "182218.890000", "182220.380000", "182221.870000", "182223.360000", "182224.850000", "182226.340000", "182227.830000", "182229.320000", "182230.810000", "182232.300000", "182233.790000", "182235.280000", "182236.770000", "182238.260000", "182239.750000", "182241.240000", "182242.730000", "182244.220000", "182245.710000", "182247.200000", "182248.690000", "182250.180000", "182251.670000", "182253.160000", "182254.650000", "182256.140000", "182257.630000", "182259.120000", "182300.610000", "182302.100000", "182303.590000", "182305.080000", "182306.570000", "182308.060000", "182309.550000", "182311.040000", "182312.530000", "182314.020000", "182315.510000", "182317.000000", "182318.490000", "182319.980000", "182321.470000", "182322.960000", "182324.450000", "182325.940000", "182327.430000", "182328.920000", "182330.410000", "182331.900000", "182333.390000", "182334.880000", "182336.370000", "182337.860000", "182339.350000", "182340.840000", "182342.330000", "182343.820000", "182345.310000", "182346.800000", "182348.290000", "182349.780000", "182351.270000", "182352.760000", "182354.250000", "182355.740000", "182357.230000", "182358.720000", "182400.210000", "182401.700000", "182403.190000", "182404.680000", "182406.170000", "182407.660000", "182409.150000", "182410.640000", "182412.130000", "182413.620000", "182415.110000", "182416.600000", "182418.090000", "182419.580000", "182421.070000", "182422.560000", "182424.050000", "182425.540000", "182427.030000", "182428.520000", "182430.010000", "182431.500000", "182432.990000", "182434.480000", "182435.970000", "182437.460000", "182438.950000", "182440.440000", "182441.930000", "182443.420000", "182444.910000", "182446.400000", "182447.890000", "182449.380000", "182450.870000", "182452.360000", "182453.850000", "182455.340000", "182456.830000", "182458.320000", "182459.810000", "182501.300000", "182502.790000", "182504.280000", "182505.770000", "182507.260000", "182508.750000", "182510.240000", "182511.730000", "182513.220000", "182514.710000", "182516.200000", "182517.690000", "182519.180000", "182520.670000", "182522.160000", "182523.650000", "182525.140000", "182526.630000", "182528.120000", "182529.610000", "182531.100000", "182532.590000", "182534.080000", "182535.570000", "182537.060000", "182538.550000", "182540.040000", "182541.530000", "182543.020000", "182544.510000", "182546.000000", "182547.490000", "182548.980000", "182550.470000", "182551.960000", "182553.450000", "182554.940000", "182556.430000", "182557.920000", "182559.410000", "182600.900000", "182602.390000", "182603.880000", "182605.370000", "182606.860000", "182608.350000", "182609.840000", "182611.330000", "182612.820000", "182614.310000", "182615.800000", "182617.290000", "182618.780000", "182620.270000", "182621.760000", "182623.250000", "182624.740000", "182626.230000", "182627.720000", "182629.210000", "182630.700000", "182632.190000", "182633.680000", "182635.170000", "182636.660000", "182638.150000", "182639.640000", "182641.130000", "182642.620000", "182644.110000", "182645.600000", "182647.090000", "182648.580000", "182650.070000", "182651.560000", "182653.050000", "182654.540000", "182656.030000", "182657.520000", "182659.010000", "182700.500000", "182701.990000", "182703.480000", "182704.970000", "182706.460000", "182707.950000", "182709.440000", "182710.930000", "182712.420000", "182713.910000", "182715.400000", "182716.890000", "182718.380000", "182719.870000", "182721.360000", "182722.850000", "182724.340000", "182725.830000", "182727.320000", "182728.810000", "182730.300000", "182731.790000", "182733.280000", "182734.770000", "182736.260000", "182737.750000", "182739.240000", "182740.730000", "182742.220000", "182743.710000", "182745.200000", "182746.690000", "182748.180000", "182749.670000"],
      "ContentTime": ["181815.606000", "181815.609000", "181815.613000", "181815.616000", "181815.620000", "181815.623000", "181815.626000", "181815.637000", "181815.641000", "181815.644000", "181815.647000", "181815.651000", "181815.654000", "181815.657000", "181815.660000", "181815.664000", "181815.667000", "181815.670000", "181815.674000", "181815.677000", "181815.680000", "181815.684000", "181815.687000", "181815.690000", "181815.693000", "181815.697000", "181815.700000", "181815.703000", "181835.565000", "181835.569000", "181835.572000", "181835.575000", "181835.579000", "181835.582000", "181835.585000", "181835.588000", "181835.592000", "181835.595000", "181835.598000", "181835.602000", "181835.605000", "181835.608000", "181835.612000", "181835.615000", "181835.618000", "181835.622000", "181835.625000", "181835.628000", "181835.631000", "181855.565000", "181855.569000", "181855.572000", "181855.575000", "181855.579000", "181855.582000", "181855.585000", "181855.588000", "181855.592000", "181855.595000", "181855.598000", "181855.602000", "181855.605000", "181855.608000", "181855.612000", "181855.615000", "181855.618000", "181855.622000", "181855.625000", "181855.628000", "181915.565000", "181915.569000", "181915.572000", "181915.586000", "181915.590000", "181915.593000", "181915.596000", "181915.599000", "181915.603000", "181915.606000", "181915.609000", "181915.613000", "181915.616000", "181915.619000", "181915.622000", "181915.626000", "181915.629000", "181915.632000", "181915.636000", "181915.639000", "181955.565000", "181955.569000", "181955.572000", "181955.575000", "181955.579000", "181955.582000", "181955.585000", "181955.589000", "181955.592000", "181955.595000", "181955.598000", "181955.602000", "181955.605000", "181955.608000", "181955.612000", "181955.615000", "181955.618000", "181955.621000", "181955.625000", "181955.628000", "181955.631000", "181955.635000", "181955.638000", "181955.641000", "181955.645000", "181955.648000", "181955.651000", "181955.654000", "181955.658000", "181955.661000", "181955.664000", "181955.668000", "182035.566000", "182035.570000", "182035.573000", "182035.577000", "182035.580000", "182035.583000", "182035.586000", "182035.590000", "182035.593000", "182035.597000", "182035.600000", "182035.603000", "182035.607000", "182035.610000", "182035.613000", "182035.617000", "182035.620000", "182035.623000", "182035.626000", "182035.630000", "182035.633000", "182035.637000", "182035.640000", "182035.643000", "182035.647000", "182035.650000", "182035.653000", "182115.565000", "182115.569000", "182115.572000", "182115.576000", "182115.579000", "182115.582000", "182115.586000", "182115.589000", "182115.592000", "182115.596000", "182115.599000", "182115.602000", "182115.606000", "182115.609000", "182115.612000", "182115.616000", "182115.619000", "182115.622000", "182115.626000", "182115.629000", "182115.632000", "182115.636000", "182115.639000", "182115.642000", "182115.646000", "182115.649000", "182115.652000", "182155.565000", "182155.569000", "182155.572000", "182155.575000", "182155.579000", "182155.582000", "182155.585000", "182155.589000", "182155.592000", "182155.595000", "182155.599000", "182155.602000", "182155.606000", "182155.609000", "182155.612000", "182155.616000", "182155.619000", "182155.622000", "182155.626000", "182155.629000", "182155.632000", "182155.636000", "182155.639000", "182155.642000", "182155.646000", "182155.649000", "182155.652000", "182235.565000", "182235.569000", "182235.572000", "182235.575000", "182235.579000", "182235.582000", "182235.585000", "182235.589000", "182235.592000", "182235.596000", "182235.599000", "182235.602000", "182235.605000", "182235.609000", "182235.612000", "182235.615000", "182235.619000", "182235.622000", "182235.626000", "182235.629000", "182235.632000", "182235.636000", "182235.639000", "182235.642000", "182235.646000", "182235.649000", "182235.652000", "182315.565000", "182315.569000", "182315.572000", "182315.576000", "182315.579000", "182315.582000", "182315.586000", "182315.589000", "182315.593000", "182315.596000", "182315.599000", "182315.603000", "182315.606000", "182315.609000", "182315.613000", "182315.616000", "182315.619000", "182315.623000", "182315.626000", "182315.629000", "182315.633000", "182315.636000", "182315.639000", "182315.643000", "182315.646000", "182315.649000", "182355.565000", "182355.569000", "182355.572000", "182355.576000", "182355.579000", "182355.582000", "182355.586000", "182355.589000", "182355.592000", "182355.596000", "182355.599000", "182355.603000", "182355.617000", "182355.621000", "182355.624000", "182355.627000", "182355.631000", "182355.634000", "182355.637000", "182355.641000", "182355.644000", "182355.647000", "182355.651000", "182355.654000", "182355.658000", "182355.661000", "182355.664000", "182435.565000", "182435.569000", "182435.572000", "182435.576000", "182435.579000", "182435.583000", "182435.586000", "182435.589000", "182435.593000", "182435.596000", "182435.599000", "182435.603000", "182435.606000", "182435.610000", "182435.613000", "182435.616000", "182435.620000", "182435.623000", "182435.626000", "182435.630000", "182435.633000", "182435.636000", "182435.640000", "182435.643000", "182435.646000", "182435.650000", "182435.653000", "182515.566000", "182515.570000", "182515.573000", "182515.577000", "182515.580000", "182515.583000", "182515.587000", "182515.590000", "182515.594000", "182515.597000", "182515.600000", "182515.604000", "182515.607000", "182515.610000", "182515.614000", "182515.617000", "182515.621000", "182515.624000", "182515.627000", "182515.636000", "182515.639000", "182515.643000", "182515.646000", "182515.649000", "182515.653000", "182515.656000", "182515.659000", "182555.565000", "182555.569000", "182555.572000", "182555.576000", "182555.579000", "182555.583000", "182555.586000", "182555.589000", "182555.592000", "182555.596000", "182555.599000", "182555.602000", "182555.606000", "182555.609000", "182555.612000", "182555.616000", "182555.619000", "182555.622000", "182555.626000", "182555.629000", "182555.632000", "182555.636000", "182555.639000", "182555.642000", "182555.645000", "182555.649000", "182555.665000", "182635.565000", "182635.569000", "182635.572000", "182635.576000", "182635.579000", "182635.582000", "182635.586000", "182635.589000", "182635.592000", "182635.596000", "182635.599000", "182635.603000", "182635.606000", "182635.609000", "182635.612000", "182635.616000", "182635.619000", "182635.622000", "182635.626000", "182635.629000", "182635.633000", "182635.636000", "182635.639000", "182635.643000", "182635.646000", "182635.649000", "182635.653000", "182715.566000", "182715.569000", "182715.573000", "182715.576000", "182715.580000", "182715.583000", "182715.586000", "182715.590000", "182715.593000", "182715.596000", "182715.600000", "182715.603000", "182715.606000", "182715.610000", "182715.613000", "182715.616000", "182715.620000", "182715.623000", "182715.626000", "182715.630000", "182715.633000", "182715.636000", "182715.639000", "182715.643000", "182715.646000", "182715.649000", "182752.323000", "182752.327000", "182752.330000", "182752.333000", "182752.337000", "182752.340000", "182752.343000", "182752.347000", "182752.350000", "182752.353000", "182752.357000", "182752.360000", "182752.363000", "182752.367000", "182752.370000", "182752.373000", "182752.376000", "182752.380000", "182752.383000", "182752.387000", "182752.390000", "182752.393000", "182752.396000", "182752.400000", "182752.403000"],
