{
  "AcquisitionMatrixPE": 104,
  "AcquisitionNumber": 1,
  "AcquisitionTime": "18:04:0.217500",
  "BandwidthPerPixelPhaseEncode": 17.17,
  "BaseResolution": 104,
  "BodyPartExamined": "BRAIN",
  "CoilCombinationMethod": "Sum of Squares",
  "ConsistencyInfo": "N4_VE11C_LATEST_20160120",
  "ConversionSoftware": "dcm2niix",
  "ConversionSoftwareVersion": "v1.0.20211006",
  "DerivedVendorReportedEchoSpacing": 0.000560011,
  "DeviceSerialNumber": "167006",
  "DwellTime": 2.1e-06,
  "EchoTime": 0.037,
  "EchoTime1": 0.037,
  "EchoTime2": 0.001,
  "EchoTrainLength": 104,
  "EffectiveEchoSpacing": 0.000560011,
  "FlipAngle": 52,
  "HeudiconvVersion": "0.10.0",
  "ImageComments": "Unaliased MB4/PE3/LB",
  "ImageOrientationPatientDICOM": [0.995598, 0.0926847, 0.013918, -0.0818531, 0.932194, -0.352583],
  "ImageOrientationText": "Tra>Cor(-20.5)>Sag(2.6)",
  "ImageType": [
    "ORIGINAL",
    "PRIMARY",
    "P",
    "MB",
    "ND",
    "MOSAIC",
    "PHASE"
],
  "ImagingFrequency": 123.259,
  "InPlanePhaseEncodingDirectionDICOM": "COL",
  "InstitutionAddress": "Chemin Queen-Mary 4565,Montreal,District,CA,H3W 1W5",
  "InstitutionName": "IUGM",
  "InstitutionalDepartmentName": "Department",
  "MRAcquisitionType": "2D",
  "MagneticFieldStrength": 3,
  "Manufacturer": "Siemens",
  "ManufacturersModelName": "Prisma_fit",
  "MatrixCoilMode": "SENSE",
  "Modality": "MR",
  "MultibandAccelerationFactor": 4,
  "PartialFourier": 1,
  "PatientPosition": "HFS",
  "PercentPhaseFOV": 100,
  "PercentSampling": 100,
  "PhaseEncodingDirection": "j",
  "PhaseEncodingSteps": 104,
  "PhaseResolution": 1,
  "PixelBandwidth": 2290,
  "ProcedureStepDescription": "games^mario",
  "ProtocolName": "func_task-mario_run-04",
  "PulseSequenceDetails": "%CustomerSeq%\\cmrr_mbep2d_bold",
  "ReceiveCoilActiveElements": "HC1-7;NC1,2",
  "ReceiveCoilName": "HeadNeck_64",
  "ReconMatrixPE": 104,
  "RepetitionTime": 1.49,
  "SAR": 0.0440505,
  "ScanOptions": "FS",
  "ScanningSequence": "EP",
  "SequenceName": "epfid2d1_104",
  "SequenceVariant": "SK\\SS",
  "SeriesDescription": "func_task-mario_run-04",
  "SeriesNumber": 20,
  "ShimSetting": [629, -7185, -8795, 653, 91, 3, -20, -27],
  "SliceThickness": 2,
  "SliceTiming": [0, 0.785, 0.1, 0.8825, 0.1975, 0.98, 0.295, 1.08, 0.3925, 1.1775, 0.49, 1.275, 0.59, 1.3725, 0.6875, 0, 0.785, 0.1, 0.8825, 0.1975, 0.98, 0.295, 1.08, 0.3925, 1.1775, 0.49, 1.275, 0.59, 1.3725, 0.6875, 0, 0.785, 0.1, 0.8825, 0.1975, 0.98, 0.295, 1.08, 0.3925, 1.1775, 0.49, 1.275, 0.59, 1.3725, 0.6875, 0, 0.785, 0.1, 0.8825, 0.1975, 0.98, 0.295, 1.08, 0.3925, 1.1775, 0.49, 1.275, 0.59, 1.3725, 0.6875],
  "SoftwareVersions": "syngo MR E11",
  "SpacingBetweenSlices": 2,
  "StationName": "MRC35049",
  "TaskName": "mario",
  "TotalReadoutTime": 0.0576811,
  "TxRefAmp": 265.039,
  "WipMemBlock": "33293379-aafc-4713-a61b-90d3f0564ab3||Sequence: R016 ve11c/master r/e634e98; Dec 19 2017 11:00:25 by eja",
  "dcmmeta_affine": [
    [-1.9911965131759644, -0.1637062430381775, 0.09130663424730301, 111.4866714477539],
    [-0.1853693425655365, 1.8643872737884521, -0.6997844576835632, -49.785152435302734],
    [0.027835920453071594, 0.7051668763160706, 1.8713537454605103, -57.1501350402832],
    [0.0, 0.0, 0.0, 1.0]
],
  "dcmmeta_reorient_transform": [
    [0.0, -1.0, 0.0, 103.0],
    [1.0, 0.0, 0.0, 0.0],
    [0.0, 0.0, 1.0, 0.0],
    [0.0, 0.0, 0.0, 1.0]
],
  "dcmmeta_shape": [104, 104, 60, 445],
  "dcmmeta_slice_dim": 2,
  "dcmmeta_version": 0.6,
  "global": {
    "const": {
      "AcquisitionMatrix": [104, 0, 0, 104],
      "AngioFlag": "N",
      "BitsAllocated": 16,
      "BitsStored": 16,
      "BodyPartExamined": "BRAIN",
      "Columns": 832,
      "EchoNumbers": 1,
      "EchoTime": 37.0,
      "EchoTrainLength": 104,
      "FlipAngle": 52.0,
      "HighBit": 15,
      "ImageOrientationPatient": [0.99559823308906, 0.09268467319962, 0.01391796047628, -0.0818531190687, 0.93219364203113, -0.3525834378632],
      "ImagePositionPatient": [-759.83137173597, -888.35815158253, 262.03052046292],
      "ImageType": [
        "ORIGINAL",
        "PRIMARY",
        "P",
        "MB",
        "ND",
        "MOSAIC"
],
      "ImagedNucleus": "1H",
      "ImagingFrequency": 123.258871,
      "InPlanePhaseEncodingDirection": "COL",
      "LargestImagePixelValue": 4095,
      "MRAcquisitionType": "2D",
      "MagneticFieldStrength": 3.0,
      "Manufacturer": "SIEMENS",
      "ManufacturerModelName": "Prisma_fit",
      "Modality": "MR",
      "NumberOfAverages": 1.0,
      "NumberOfPhaseEncodingSteps": 104,
      "PercentPhaseFieldOfView": 100.0,
      "PercentSampling": 100.0,
      "PerformedProcedureStepStartTime": "170138.859000",
      "PhotometricInterpretation": "MONOCHROME2",
      "PixelBandwidth": 2290.0,
      "PixelRepresentation": 0,
      "PixelSpacing": [2.0, 2.0],
      "ProtocolName": "func_task-mario_run-04",
      "RepetitionTime": 1490.0,
      "RescaleIntercept": -4096.0,
      "RescaleSlope": 2.0,
      "RescaleType": "US",
      "Rows": 832,
      "SAR": 0.04405051560668,
      "SamplesPerPixel": 1,
      "ScanOptions": "FS",
      "ScanningSequence": "EP",
      "SequenceName": "epfid2d1_104",
      "SequenceVariant": [
        "SK",
        "SS"
],
      "SeriesDescription": "func_task-mario_run-04",
      "SeriesNumber": 20,
      "SeriesTime": "180533.113000",
      "SliceLocation": -30.964886339728,
      "SliceThickness": 2.0,
      "SmallestImagePixelValue": 0,
      "SoftwareVersions": "syngo MR E11",
      "SpacingBetweenSlices": 2.0000000256493,
      "SpecificCharacterSet": "ISO_IR 100",
      "StudyID": "1",
      "StudyTime": "170138.801000",
      "TransmitCoilName": "Body",
      "VariableFlipAngleFlag": "N",
      "WindowCenterWidthExplanation": "Algo1",
      "dBdt": 0.0},
    "slices": {}
  },
  "time": {
    "samples": {
      "AcquisitionNumber": [1, 2, 3, 4, 5, 6, 7, 8, 9, 10, 11, 12, 13, 14, 15, 16, 17, 18, 19, 20, 21, 22, 23, 24, 25, 26, 27, 28, 29, 30, 31, 32, 33, 34, 35, 36, 37, 38, 39, 40, 41, 42, 43, 44, 45, 46, 47, 48, 49, 50, 51, 52, 53, 54, 55, 56, 57, 58, 59, 60, 61, 62, 63, 64, 65, 66, 67, 68, 69, 70, 71, 72, 73, 74, 75, 76, 77, 78, 79, 80, 81, 82, 83, 84, 85, 86, 87, 88, 89, 90, 91, 92, 93, 94, 95, 96, 97, 98, 99, 100, 101, 102, 103, 104, 105, 106, 107, 108, 109, 110, 111, 112, 113, 114, 115, 116, 117, 118, 119, 120, 121, 122, 123, 124, 125, 126, 127, 128, 129, 130, 131, 132, 133, 134, 135, 136, 137, 138, 139, 140, 141, 142, 143, 144, 145, 146, 147, 148, 149, 150, 151, 152, 153, 154, 155, 156, 157, 158, 159, 160, 161, 162, 163, 164, 165, 166, 167, 168, 169, 170, 171, 172, 173, 174, 175, 176, 177, 178, 179, 180, 181, 182, 183, 184, 185, 186, 187, 188, 189, 190, 191, 192, 193, 194, 195, 196, 197, 198, 199, 200, 201, 202, 203, 204, 205, 206, 207, 208, 209, 210, 211, 212, 213, 214, 215, 216, 217, 218, 219, 220, 221, 222, 223, 224, 225, 226, 227, 228, 229, 230, 231, 232, 233, 234, 235, 236, 237, 238, 239, 240, 241, 242, 243, 244, 245, 246, 247, 248, 249, 250, 251, 252, 253, 254, 255, 256, 257, 258, 259, 260, 261, 262, 263, 264, 265, 266, 267, 268, 269, 270, 271, 272, 273, 274, 275, 276, 277, 278, 279, 280, 281, 282, 283, 284, 285, 286, 287, 288, 289, 290, 291, 292, 293, 294, 295, 296, 297, 298, 299, 300, 301, 302, 303, 304, 305, 306, 307, 308, 309, 310, 311, 312, 313, 314, 315, 316, 317, 318, 319, 320, 321, 322, 323, 324, 325, 326, 327, 328, 329, 330, 331, 332, 333, 334, 335, 336, 337, 338, 339, 340, 341, 342, 343, 344, 345, 346, 347, 348, 349, 350, 351, 352, 353, 354, 355, 356, 357, 358, 359, 360, 361, 362, 363, 364, 365, 366, 367, 368, 369, 370, 371, 372, 373, 374, 375, 376, 377, 378, 379, 380, 381, 382, 383, 384, 385, 386, 387, 388, 389, 390, 391, 392, 393, 394, 395, 396, 397, 398, 399, 400, 401, 402, 403, 404, 405, 406, 407, 408, 409, 410, 411, 412, 413, 414, 415, 416, 417, 418, 419, 420, 421, 422, 423, 424, 425, 426, 427, 428, 429, 430, 431, 432, 433, 434, 435, 436, 437, 438, 439, 440, 441, 442, 443, 444, 445],
      "AcquisitionTime": ["180400.217500", "180401.707500", "180403.197500", "180404.687500", "180406.177500", "180407.667500", "180409.157500", "180410.647500", "180412.137500", "180413.627500", "180415.117500", "180416.607500", "180418.097500", "180419.587500", "180421.077500", "180422.567500", "180424.057500", "180425.547500", "180427.037500", "180428.527500", "180430.017500", "180431.507500", "180432.997500", "180434.487500", "180435.977500", "180437.467500", "180438.957500", "180440.447500", "180441.937500", "180443.427500", "180444.917500", "180446.407500", "180447.897500", "180449.387500", "180450.877500", "180452.367500", "180453.857500", "180455.347500", "180456.837500", "180458.327500", "180459.817500", "180501.307500", "180502.797500", "180504.287500", "180505.777500", "180507.267500", "180508.757500", "180510.247500", "180511.737500", "180513.227500", "180514.717500", "180516.207500", "180517.697500", "180519.187500", "180520.677500", "180522.167500", "180523.657500", "180525.147500", "180526.637500", "180528.127500", "180529.617500", "180531.107500", "180532.597500", "180534.087500", "180535.577500", "180537.067500", "180538.557500", "180540.047500", "180541.537500", "180543.027500", "180544.517500", "180546.007500", "180547.497500", "180548.987500", "180550.477500", "180551.967500", "180553.457500", "180554.947500", "180556.437500", "180557.927500", "180559.417500", "180600.907500", "180602.397500", "180603.887500", "180605.377500", "180606.867500", "180608.357500", "180609.847500", "180611.337500", "180612.827500", "180614.317500", "180615.807500", "180617.297500", "180618.787500", "180620.277500", "180621.767500", "180623.257500", "180624.747500", "180626.237500", "180627.727500", "180629.217500", "180630.707500", "180632.197500", "180633.687500", "180635.177500", "180636.667500", "180638.157500", "180639.647500", "180641.137500", "180642.627500", "180644.117500", "180645.607500", "180647.097500", "180648.587500", "180650.077500", "180651.567500", "180653.057500", "180654.547500", "180656.037500", "180657.527500", "180659.017500", "180700.507500", "180701.997500", "180703.487500", "180704.977500", "180706.467500", "180707.957500", "180709.447500", "180710.937500", "180712.427500", "180713.917500", "180715.407500", "180716.897500", "180718.387500", "180719.877500", "180721.367500", "180722.857500", "180724.347500", "180725.837500", "180727.327500", "180728.817500", "180730.307500", "180731.797500", "180733.287500", "180734.777500", "180736.267500", "180737.757500", "180739.247500", "180740.737500", "180742.227500", "180743.717500", "180745.207500", "180746.697500", "180748.187500", "180749.677500", "180751.167500", "180752.657500", "180754.147500", "180755.637500", "180757.127500", "180758.617500", "180800.107500", "180801.597500", "180803.087500", "180804.577500", "180806.067500", "180807.557500", "180809.047500", "180810.537500", "180812.027500", "180813.517500", "180815.007500", "180816.497500", "180817.987500", "180819.477500", "180820.967500", "180822.457500", "180823.947500", "180825.437500", "180826.927500", "180828.417500", "180829.907500", "180831.397500", "180832.887500", "180834.377500", "180835.867500", "180837.357500", "180838.847500", "180840.337500", "180841.827500", "180843.317500", "180844.807500", "180846.297500", "180847.787500", "180849.277500", "180850.767500", "180852.257500", "180853.747500", "180855.237500", "180856.727500", "180858.217500", "180859.707500", "180901.197500", "180902.687500", "180904.177500", "180905.667500", "180907.157500", "180908.647500", "180910.137500", "180911.627500", "180913.117500", "180914.607500", "180916.097500", "180917.587500", "180919.077500", "180920.567500", "180922.057500", "180923.547500", "180925.037500", "180926.527500", "180928.017500", "180929.507500", "180930.997500", "180932.487500", "180933.977500", "180935.467500", "180936.957500", "180938.447500", "180939.937500", "180941.427500", "180942.917500", "180944.407500", "180945.897500", "180947.387500", "180948.877500", "180950.367500", "180951.857500", "180953.347500", "180954.837500", "180956.327500", "180957.817500", "180959.307500", "181000.797500", "181002.287500", "181003.777500", "181005.267500", "181006.757500", "181008.247500", "181009.737500", "181011.227500", "181012.717500", "181014.207500", "181015.697500", "181017.187500", "181018.677500", "181020.167500", "181021.657500", "181023.147500", "181024.637500", "181026.127500", "181027.617500", "181029.107500", "181030.597500", "181032.087500", "181033.577500", "181035.067500", "181036.557500", "181038.047500", "181039.537500", "181041.027500", "181042.517500", "181044.007500", "181045.497500", "181046.987500", "181048.477500", "181049.967500", "181051.457500", "181052.947500", "181054.437500", "181055.927500", "181057.417500", "181058.907500", "181100.397500", "181101.887500", "181103.377500", "181104.867500", "181106.357500", "181107.847500", "181109.337500", "181110.827500", "181112.317500", "181113.807500", "181115.297500", "181116.787500", "181118.277500", "181119.767500", "181121.257500", "181122.747500", "181124.237500", "181125.727500", "181127.217500", "181128.707500", "181130.197500", "181131.687500", "181133.177500", "181134.667500", "181136.157500", "181137.647500", "181139.137500", "181140.627500", "181142.117500", "181143.607500", "181145.097500", "181146.587500", "181148.077500", "181149.567500", "181151.057500", "181152.547500", "181154.037500", "181155.527500", "181157.017500", "181158.507500", "181159.997500", "181201.487500", "181202.977500", "181204.467500", "181205.957500", "181207.447500", "181208.937500", "181210.427500", "181211.917500", "181213.407500", "181214.897500", "181216.387500", "181217.877500", "181219.367500", "181220.857500", "181222.347500", "181223.837500", "181225.327500", "181226.817500", "181228.307500", "181229.797500", "181231.287500", "181232.777500", "181234.267500", "181235.757500", "181237.247500", "181238.737500", "181240.227500", "181241.717500", "181243.207500", "181244.697500", "181246.187500", "181247.677500", "181249.167500", "181250.657500", "181252.147500", "181253.637500", "181255.127500", "181256.617500", "181258.107500", "181259.597500", "181301.087500", "181302.577500", "181304.067500", "181305.557500", "181307.047500", "181308.537500", "181310.027500", "181311.517500", "181313.007500", "181314.497500", "181315.987500", "181317.477500", "181318.967500", "181320.457500", "181321.947500", "181323.437500", "181324.927500", "181326.417500", "181327.907500", "181329.397500", "181330.887500", "181332.377500", "181333.867500", "181335.357500", "181336.847500", "181338.337500", "181339.827500", "181341.317500", "181342.807500", "181344.297500", "181345.787500", "181347.277500", "181348.767500", "181350.257500", "181351.747500", "181353.237500", "181354.727500", "181356.217500", "181357.707500", "181359.197500", "181400.687500", "181402.177500", "181403.667500", "181405.157500", "181406.647500", "181408.137500", "181409.627500", "181411.117500", "181412.607500", "181414.097500", "181415.587500", "181417.077500", "181418.567500", "181420.057500", "181421.547500", "181423.037500", "181424.527500", "181426.017500", "181427.507500", "181428.997500", "181430.487500", "181431.977500", "181433.467500", "181434.957500", "181436.447500", "181437.937500", "181439.427500", "181440.917500", "181442.407500", "181443.897500", "181445.387500", "181446.877500", "181448.367500", "181449.857500", "181451.347500", "181452.837500", "181454.327500", "181455.817500", "181457.307500", "181458.797500", "181500.287500", "181501.777500"],
      "ContentTime": ["180533.115000", "180533.118000", "180533.121000", "180533.124000", "180533.126000", "180533.129000", "180533.131000", "180533.134000", "180533.136000", "180533.139000", "180533.141000", "180533.144000", "180533.146000", "180533.149000", "180533.151000", "180533.154000", "180533.156000", "180533.159000", "180533.161000", "180533.164000", "180533.166000", "180533.169000", "180533.172000", "180533.174000", "180533.176000", "180533.179000", "180533.181000", "180533.184000", "180533.186000", "180533.189000", "180533.196000", "180533.198000", "180533.201000", "180533.203000", "180533.206000", "180553.044000", "180553.046000", "180553.049000", "180553.051000", "180553.054000", "180553.064000", "180553.067000", "180553.069000", "180553.071000", "180553.074000", "180553.076000", "180553.079000", "180553.081000", "180553.084000", "180553.086000", "180553.089000", "180553.091000", "180553.094000", "180553.097000", "180553.099000", "180553.101000", "180613.031000", "180613.034000", "180613.037000", "180613.039000", "180613.042000", "180613.044000", "180613.047000", "180613.049000", "180613.052000", "180613.054000", "180613.057000", "180613.059000", "180613.062000", "180613.064000", "180613.067000", "180613.069000", "180613.072000", "180613.074000", "180613.077000", "180613.079000", "180633.030000", "180633.033000", "180633.036000", "180633.038000", "180633.041000", "180633.043000", "180633.046000", "180633.048000", "180633.051000", "180633.053000", "180633.056000", "180633.058000", "180633.061000", "180633.063000", "180633.066000", "180633.068000", "180633.071000", "180633.073000", "180633.076000", "180633.078000", "180713.416000", "180713.419000", "180713.421000", "180713.424000", "180713.427000", "180713.429000", "180713.431000", "180713.434000", "180713.437000", "180713.439000", "180713.442000", "180713.444000", "180713.447000", "180713.449000", "180713.452000", "180713.454000", "180713.457000", "180713.459000", "180713.461000", "180713.464000", "180713.466000", "180713.469000", "180713.471000", "180713.474000", "180713.476000", "180713.479000", "180713.481000", "180713.484000", "180713.487000", "180713.489000", "180713.492000", "180713.494000", "180753.058000", "180753.061000", "180753.063000", "180753.066000", "180753.068000", "180753.071000", "180753.074000", "180753.076000", "180753.079000", "180753.081000", "180753.084000", "180753.086000", "180753.089000", "180753.091000", "180753.094000", "180753.096000", "180753.099000", "180753.101000", "180753.104000", "180753.106000", "180753.109000", "180753.111000", "180753.114000", "180753.116000", "180753.119000", "180753.121000", "180753.124000", "180833.054000", "180833.057000", "180833.060000", "180833.062000", "180833.065000", "180833.067000", "180833.070000", "180833.073000", "180833.075000", "180833.078000", "180833.080000", "180833.083000", "180833.085000", "180833.088000", "180833.090000", "180833.093000", "180833.095000", "180833.098000", "180833.100000", "180833.103000", "180833.105000", "180833.108000", "180833.110000", "180833.113000", "180833.116000", "180833.118000", "180833.121000", "180913.046000", "180913.049000", "180913.051000", "180913.054000", "180913.056000", "180913.059000", "180913.061000", "180913.065000", "180913.067000", "180913.070000", "180913.073000", "180913.075000", "180913.077000", "180913.080000", "180913.083000", "180913.085000", "180913.087000", "180913.090000", "180913.092000", "180913.095000", "180913.097000", "180913.100000", "180913.103000", "180913.105000", "180913.107000", "180913.110000", "180913.113000", "180953.053000", "180953.056000", "180953.058000", "180953.061000", "180953.064000", "180953.066000", "180953.068000", "180953.071000", "180953.074000", "180953.076000", "180953.078000", "180953.081000", "180953.084000", "180953.086000", "180953.089000", "180953.091000", "180953.094000", "180953.096000", "180953.099000", "180953.101000", "180953.104000", "180953.106000", "180953.109000", "180953.111000", "180953.114000", "180953.116000", "180953.119000", "181033.049000", "181033.052000", "181033.059000", "181033.062000", "181033.064000", "181033.067000", "181033.070000", "181033.072000", "181033.074000", "181033.077000", "181033.080000", "181033.082000", "181033.085000", "181033.087000", "181033.090000", "181033.092000", "181033.095000", "181033.097000", "181033.100000", "181033.102000", "181033.105000", "181033.107000", "181033.110000", "181033.113000", "181033.115000", "181033.117000", "181113.053000", "181113.056000", "181113.058000", "181113.061000", "181113.063000", "181113.066000", "181113.068000", "181113.071000", "181113.073000", "181113.076000", "181113.078000", "181113.081000", "181113.083000", "181113.086000", "181113.088000", "181113.091000", "181113.093000", "181113.096000", "181113.098000", "181113.101000", "181113.103000", "181113.106000", "181113.109000", "181113.111000", "181113.114000", "181113.116000", "181113.119000", "181153.049000", "181153.052000", "181153.055000", "181153.057000", "181153.060000", "181153.062000", "181153.065000", "181153.068000", "181153.070000", "181153.073000", "181153.075000", "181153.078000", "181153.080000", "181153.083000", "181153.085000", "181153.088000", "181153.090000", "181153.093000", "181153.095000", "181153.098000", "181153.100000", "181153.103000", "181153.105000", "181153.108000", "181153.111000", "181153.113000", "181153.116000", "181233.051000", "181233.054000", "181233.056000", "181233.059000", "181233.061000", "181233.064000", "181233.066000", "181233.069000", "181233.071000", "181233.074000", "181233.076000", "181233.079000", "181233.081000", "181233.084000", "181233.087000", "181233.089000", "181233.092000", "181233.095000", "181233.097000", "181233.099000", "181233.102000", "181233.104000", "181233.107000", "181233.109000", "181233.112000", "181233.114000", "181233.117000", "181313.059000", "181313.062000", "181313.066000", "181313.069000", "181313.071000", "181313.074000", "181313.076000", "181313.079000", "181313.081000", "181313.084000", "181313.086000", "181313.089000", "181313.091000", "181313.094000", "181313.096000", "181313.099000", "181313.101000", "181313.104000", "181313.106000", "181313.109000", "181313.111000", "181313.114000", "181313.116000", "181313.119000", "181313.122000", "181313.124000", "181313.127000", "181353.040000", "181353.042000", "181353.045000", "181353.048000", "181353.050000", "181353.053000", "181353.055000", "181353.058000", "181353.060000", "181353.063000", "181353.065000", "181353.068000", "181353.070000", "181353.073000", "181353.075000", "181353.078000", "181353.080000", "181353.083000", "181353.086000", "181353.088000", "181353.090000", "181353.093000", "181353.096000", "181353.098000", "181353.100000", "181353.103000", "181353.106000", "181433.054000", "181433.056000", "181433.059000", "181433.061000", "181433.064000", "181433.066000", "181433.069000", "181433.072000", "181433.074000", "181433.077000", "181433.079000", "181433.082000", "181433.084000", "181433.087000", "181433.089000", "181433.092000", "181433.094000", "181433.097000", "181433.099000", "181433.102000", "181433.105000", "181433.107000", "181433.110000", "181433.112000", "181433.115000", "181433.117000", "181433.120000", "181504.499000", "181504.502000", "181504.505000", "181504.507000", "181504.510000", "181504.512000", "181504.515000", "181504.518000", "181504.520000", "181504.523000", "181504.525000", "181504.528000", "181504.530000", "181504.533000", "181504.535000", "181504.538000", "181504.540000", "181504.543000", "181504.545000", "181504.548000", "181504.550000"],
