{
  "AcquisitionMatrixPE": 104,
  "AcquisitionNumber": 1,
  "AcquisitionTime": "14:47:36.490000",
  "BandwidthPerPixelPhaseEncode": 17.17,
  "BaseResolution": 104,
  "BodyPartExamined": "BRAIN",
  "CoilString": "HC1-7;NC1_2",
  "ConsistencyInfo": "N4_VE11C_LATEST_20160120",
  "ConversionSoftware": "dcm2niix",
  "ConversionSoftwareVersion": "v1.0.20190902",
  "DerivedVendorReportedEchoSpacing": 0.000560011,
  "DeviceSerialNumber": "167006",
  "DwellTime": 2.1e-06,
  "EchoTime": 0.037,
  "EchoTrainLength": 104,
  "EffectiveEchoSpacing": 0.000560011,
  "FlipAngle": 52,
  "HeudiconvVersion": "0.10.0",
  "ImageComments": "Unaliased_MB4_PE3_LB",
  "ImageOrientationPatientDICOM": [0.999546, 0.00604027, 0.0295167, 0.00994419, 0.858653, -0.512461],
  "ImageType": [
    "ORIGINAL",
    "PRIMARY",
    "P",
    "MB",
    "ND",
    "MOSAIC"
],
  "ImagingFrequency": 123.259,
  "InPlanePhaseEncodingDirectionDICOM": "COL",
  "InstitutionAddress": "Chemin_Queen-Mary_4565_Montreal_District_CA_H3W_1W5",
  "InstitutionName": "IUGM",
  "InstitutionalDepartmentName": "Department",
  "MRAcquisitionType": "2D",
  "MagneticFieldStrength": 3,
  "Manufacturer": "Siemens",
  "ManufacturersModelName": "Prisma_fit",
  "Modality": "MR",
  "MultibandAccelerationFactor": 4,
  "PartialFourier": 1,
  "PatientPosition": "HFS",
  "PercentPhaseFOV": 100,
  "PhaseEncodingDirection": "j",
  "PhaseEncodingSteps": 104,
  "PhaseResolution": 1,
  "PixelBandwidth": 2290,
  "ProcedureStepDescription": "games_mario",
  "ProtocolName": "func_task-mario_run-05",
  "PulseSequenceDetails": "%CustomerSeq%_cmrr_mbep2d_bold",
  "ReceiveCoilActiveElements": "HC1-7;NC1,2",
  "ReceiveCoilName": "HeadNeck_64",
  "ReconMatrixPE": 104,
  "RepetitionTime": 1.49,
  "SAR": 0.0428713,
  "ScanOptions": "FS",
  "ScanningSequence": "EP",
  "SequenceName": "epfid2d1_104",
  "SequenceVariant": "SK_SS",
  "SeriesDescription": "func_task-mario_run-05",
  "SeriesNumber": 29,
  "ShimSetting": [612, -7173, -8852, 273, 31, -149, -44, 15],
  "SliceThickness": 2,
  "SliceTiming": [0, 0.785, 0.0975, 0.8825, 0.195, 0.98, 0.295, 1.0775, 0.3925, 1.175, 0.49, 1.275, 0.5875, 1.3725, 0.685, 0, 0.785, 0.0975, 0.8825, 0.195, 0.98, 0.295, 1.0775, 0.3925, 1.175, 0.49, 1.275, 0.5875, 1.3725, 0.685, 0, 0.785, 0.0975, 0.8825, 0.195, 0.98, 0.295, 1.0775, 0.3925, 1.175, 0.49, 1.275, 0.5875, 1.3725, 0.685, 0, 0.785, 0.0975, 0.8825, 0.195, 0.98, 0.295, 1.0775, 0.3925, 1.175, 0.49, 1.275, 0.5875, 1.3725, 0.685],
  "SoftwareVersions": "syngo_MR_E11",
  "SpacingBetweenSlices": 2,
  "StationName": "MRC35049",
  "TaskName": "mario",
  "TotalReadoutTime": 0.0576811,
  "TxRefAmp": 247.557,
  "WipMemBlock": "5e0738e5-0ed2-421f-a06d-ad3df51ad923||Sequence: R016 ve11c/master r/e634e98; Dec 19 2017 11:00:25 by eja",
  "dcmmeta_affine": [
    [-1.9990921020507812, 0.019888386130332947, 0.05688001960515976, 104.68455505371094],
    [-0.012080531567335129, 1.7173055410385132, -1.0250442028045654, -50.75791549682617],
    [0.05903342738747597, 1.0249223709106445, 1.7164057493209839, -90.17686462402344],
    [0.0, 0.0, 0.0, 1.0]
],
  "dcmmeta_reorient_transform": [
    [0.0, -1.0, 0.0, 103.0],
    [1.0, 0.0, 0.0, 0.0],
    [0.0, 0.0, 1.0, 0.0],
    [0.0, 0.0, 0.0, 1.0]
],
  "dcmmeta_shape": [104, 104, 60, 452],
  "dcmmeta_slice_dim": 2,
  "dcmmeta_version": 0.6,
  "global": {
    "const": {
      "AcquisitionMatrix": [104, 0, 0, 104],
      "AngioFlag": "N",
      "BitsAllocated": 16,
      "BitsStored": 16,
      "BodyPartExamined": "BRAIN",
      "Columns": 832,
      "EchoNumbers": 1,
      "EchoTime": 37.0,
      "EchoTrainLength": 104,
      "FlipAngle": 52.0,
      "HighBit": 15,
      "ImageOrientationPatient": [0.99954603638329, 0.00604026601387, 0.02951671284108, 0.00994419344185, 0.85865279339493, -0.5124612116169],
      "ImagePositionPatient": [-841.64194398368, -755.62110904018, 366.9737367083],
      "ImageType": [
        "ORIGINAL",
        "PRIMARY",
        "P",
        "MB",
        "ND",
        "MOSAIC"
],
      "ImagedNucleus": "1H",
      "ImagingFrequency": 123.258921,
      "InPlanePhaseEncodingDirection": "COL",
      "LargestImagePixelValue": 4095,
      "MRAcquisitionType": "2D",
      "MagneticFieldStrength": 3.0,
      "Manufacturer": "SIEMENS",
      "ManufacturerModelName": "Prisma_fit",
      "Modality": "MR",
      "NumberOfAverages": 1.0,
      "NumberOfPhaseEncodingSteps": 104,
      "PercentPhaseFieldOfView": 100.0,
      "PercentSampling": 100.0,
      "PerformedProcedureStepStartTime": "120145.652000",
      "PhotometricInterpretation": "MONOCHROME2",
      "PixelBandwidth": 2290.0,
      "PixelRepresentation": 0,
      "PixelSpacing": [2.0, 2.0],
      "ProtocolName": "func_task-mario_run-05",
      "RepetitionTime": 1490.0,
      "RescaleIntercept": -4096.0,
      "RescaleSlope": 2.0,
      "RescaleType": "US",
      "Rows": 832,
      "SAR": 0.04287127767662,
      "SamplesPerPixel": 1,
      "ScanOptions": "FS",
      "ScanningSequence": "EP",
      "SequenceName": "epfid2d1_104",
      "SequenceVariant": [
        "SK",
        "SS"
],
      "SeriesDescription": "func_task-mario_run-05",
      "SeriesNumber": 29,
      "SeriesTime": "144833.004000",
      "SliceLocation": -48.398270538501,
      "SliceThickness": 2.0,
      "SmallestImagePixelValue": 0,
      "SoftwareVersions": "syngo MR E11",
      "SpacingBetweenSlices": 1.9999999304052,
      "SpecificCharacterSet": "ISO_IR 100",
      "StudyID": "1",
      "StudyTime": "120145.575000",
      "TransmitCoilName": "Body",
      "VariableFlipAngleFlag": "N",
      "WindowCenterWidthExplanation": "Algo1",
      "dBdt": 0.0},
    "slices": {}
  },
  "time": {
    "samples": {
      "AcquisitionNumber": [1, 2, 3, 4, 5, 6, 7, 8, 9, 10, 11, 12, 13, 14, 15, 16, 17, 18, 19, 20, 21, 22, 23, 24, 25, 26, 27, 28, 29, 30, 31, 32, 33, 34, 35, 36, 37, 38, 39, 40, 41, 42, 43, 44, 45, 46, 47, 48, 49, 50, 51, 52, 53, 54, 55, 56, 57, 58, 59, 60, 61, 62, 63, 64, 65, 66, 67, 68, 69, 70, 71, 72, 73, 74, 75, 76, 77, 78, 79, 80, 81, 82, 83, 84, 85, 86, 87, 88, 89, 90, 91, 92, 93, 94, 95, 96, 97, 98, 99, 100, 101, 102, 103, 104, 105, 106, 107, 108, 109, 110, 111, 112, 113, 114, 115, 116, 117, 118, 119, 120, 121, 122, 123, 124, 125, 126, 127, 128, 129, 130, 131, 132, 133, 134, 135, 136, 137, 138, 139, 140, 141, 142, 143, 144, 145, 146, 147, 148, 149, 150, 151, 152, 153, 154, 155, 156, 157, 158, 159, 160, 161, 162, 163, 164, 165, 166, 167, 168, 169, 170, 171, 172, 173, 174, 175, 176, 177, 178, 179, 180, 181, 182, 183, 184, 185, 186, 187, 188, 189, 190, 191, 192, 193, 194, 195, 196, 197, 198, 199, 200, 201, 202, 203, 204, 205, 206, 207, 208, 209, 210, 211, 212, 213, 214, 215, 216, 217, 218, 219, 220, 221, 222, 223, 224, 225, 226, 227, 228, 229, 230, 231, 232, 233, 234, 235, 236, 237, 238, 239, 240, 241, 242, 243, 244, 245, 246, 247, 248, 249, 250, 251, 252, 253, 254, 255, 256, 257, 258, 259, 260, 261, 262, 263, 264, 265, 266, 267, 268, 269, 270, 271, 272, 273, 274, 275, 276, 277, 278, 279, 280, 281, 282, 283, 284, 285, 286, 287, 288, 289, 290, 291, 292, 293, 294, 295, 296, 297, 298, 299, 300, 301, 302, 303, 304, 305, 306, 307, 308, 309, 310, 311, 312, 313, 314, 315, 316, 317, 318, 319, 320, 321, 322, 323, 324, 325, 326, 327, 328, 329, 330, 331, 332, 333, 334, 335, 336, 337, 338, 339, 340, 341, 342, 343, 344, 345, 346, 347, 348, 349, 350, 351, 352, 353, 354, 355, 356, 357, 358, 359, 360, 361, 362, 363, 364, 365, 366, 367, 368, 369, 370, 371, 372, 373, 374, 375, 376, 377, 378, 379, 380, 381, 382, 383, 384, 385, 386, 387, 388, 389, 390, 391, 392, 393, 394, 395, 396, 397, 398, 399, 400, 401, 402, 403, 404, 405, 406, 407, 408, 409, 410, 411, 412, 413, 414, 415, 416, 417, 418, 419, 420, 421, 422, 423, 424, 425, 426, 427, 428, 429, 430, 431, 432, 433, 434, 435, 436, 437, 438, 439, 440, 441, 442, 443, 444, 445, 446, 447, 448, 449, 450, 451, 452],
      "AcquisitionTime": ["144736.490000", "144737.980000", "144739.470000", "144740.960000", "144742.450000", "144743.940000", "144745.430000", "144746.920000", "144748.410000", "144749.900000", "144751.390000", "144752.880000", "144754.370000", "144755.860000", "144757.350000", "144758.840000", "144800.330000", "144801.820000", "144803.310000", "144804.800000", "144806.290000", "144807.780000", "144809.270000", "144810.760000", "144812.250000", "144813.740000", "144815.230000", "144816.720000", "144818.210000", "144819.700000", "144821.190000", "144822.680000", "144824.170000", "144825.660000", "144827.150000", "144828.640000", "144830.130000", "144831.620000", "144833.110000", "144834.600000", "144836.090000", "144837.580000", "144839.070000", "144840.560000", "144842.050000", "144843.540000", "144845.030000", "144846.520000", "144848.010000", "144849.500000", "144850.990000", "144852.480000", "144853.970000", "144855.460000", "144856.950000", "144858.440000", "144859.930000", "144901.420000", "144902.910000", "144904.400000", "144905.890000", "144907.380000", "144908.870000", "144910.360000", "144911.850000", "144913.340000", "144914.830000", "144916.320000", "144917.810000", "144919.300000", "144920.790000", "144922.280000", "144923.770000", "144925.260000", "144926.750000", "144928.240000", "144929.730000", "144931.220000", "144932.710000", "144934.200000", "144935.690000", "144937.180000", "144938.670000", "144940.160000", "144941.650000", "144943.140000", "144944.630000", "144946.120000", "144947.610000", "144949.100000", "144950.590000", "144952.080000", "144953.570000", "144955.060000", "144956.550000", "144958.040000", "144959.530000", "145001.020000", "145002.510000", "145004.000000", "145005.490000", "145006.980000", "145008.470000", "145009.960000", "145011.450000", "145012.940000", "145014.430000", "145015.920000", "145017.410000", "145018.900000", "145020.390000", "145021.880000", "145023.370000", "145024.860000", "145026.350000", "145027.840000", "145029.330000", "145030.820000", "145032.310000", "145033.800000", "145035.290000", "145036.780000", "145038.270000", "145039.760000", "145041.250000", "145042.740000", "145044.230000", "145045.720000", "145047.210000", "145048.700000", "145050.190000", "145051.680000", "145053.170000", "145054.660000", "145056.150000", "145057.640000", "145059.130000", "145100.620000", "145102.110000", "145103.600000", "145105.090000", "145106.580000", "145108.070000", "145109.560000", "145111.050000", "145112.540000", "145114.030000", "145115.520000", "145117.010000", "145118.500000", "145119.990000", "145121.480000", "145122.970000", "145124.460000", "145125.950000", "145127.440000", "145128.930000", "145130.420000", "145131.910000", "145133.400000", "145134.890000", "145136.380000", "145137.870000", "145139.360000", "145140.850000", "145142.340000", "145143.830000", "145145.320000", "145146.810000", "145148.300000", "145149.790000", "145151.280000", "145152.770000", "145154.260000", "145155.750000", "145157.240000", "145158.730000", "145200.220000", "145201.710000", "145203.200000", "145204.690000", "145206.180000", "145207.670000", "145209.160000", "145210.650000", "145212.140000", "145213.630000", "145215.120000", "145216.610000", "145218.100000", "145219.590000", "145221.080000", "145222.570000", "145224.060000", "145225.550000", "145227.040000", "145228.530000", "145230.020000", "145231.510000", "145233.000000", "145234.490000", "145235.980000", "145237.470000", "145238.960000", "145240.450000", "145241.940000", "145243.430000", "145244.920000", "145246.410000", "145247.900000", "145249.390000", "145250.880000", "145252.370000", "145253.860000", "145255.350000", "145256.840000", "145258.330000", "145259.820000", "145301.310000", "145302.800000", "145304.290000", "145305.780000", "145307.270000", "145308.760000", "145310.250000", "145311.740000", "145313.230000", "145314.720000", "145316.210000", "145317.700000", "145319.190000", "145320.680000", "145322.170000", "145323.660000", "145325.150000", "145326.640000", "145328.130000", "145329.620000", "145331.110000", "145332.600000", "145334.090000", "145335.580000", "145337.070000", "145338.560000", "145340.050000", "145341.540000", "145343.030000", "145344.520000", "145346.010000", "145347.500000", "145348.990000", "145350.480000", "145351.970000", "145353.460000", "145354.950000", "145356.440000", "145357.930000", "145359.420000", "145400.910000", "145402.400000", "145403.890000", "145405.380000", "145406.870000", "145408.360000", "145409.850000", "145411.340000", "145412.830000", "145414.320000", "145415.810000", "145417.300000", "145418.790000", "145420.280000", "145421.770000", "145423.260000", "145424.750000", "145426.240000", "145427.730000", "145429.220000", "145430.710000", "145432.200000", "145433.690000", "145435.180000", "145436.670000", "145438.160000", "145439.650000", "145441.140000", "145442.630000", "145444.120000", "145445.610000", "145447.100000", "145448.590000", "145450.080000", "145451.570000", "145453.060000", "145454.550000", "145456.040000", "145457.530000", "145459.020000", "145500.510000", "145502.000000", "145503.490000", "145504.980000", "145506.470000", "145507.960000", "145509.450000", "145510.940000", "145512.430000", "145513.920000", "145515.410000", "145516.900000", "145518.390000", "145519.880000", "145521.370000", "145522.860000", "145524.350000", "145525.840000", "145527.330000", "145528.820000", "145530.310000", "145531.800000", "145533.290000", "145534.780000", "145536.270000", "145537.760000", "145539.250000", "145540.740000", "145542.230000", "145543.720000", "145545.210000", "145546.700000", "145548.190000", "145549.680000", "145551.170000", "145552.660000", "145554.150000", "145555.640000", "145557.130000", "145558.620000", "145600.110000", "145601.600000", "145603.090000", "145604.580000", "145606.070000", "145607.560000", "145609.050000", "145610.540000", "145612.030000", "145613.520000", "145615.010000", "145616.500000", "145617.990000", "145619.480000", "145620.970000", "145622.460000", "145623.950000", "145625.440000", "145626.930000", "145628.420000", "145629.910000", "145631.400000", "145632.890000", "145634.380000", "145635.870000", "145637.360000", "145638.850000", "145640.340000", "145641.830000", "145643.320000", "145644.810000", "145646.300000", "145647.790000", "145649.280000", "145650.770000", "145652.260000", "145653.750000", "145655.240000", "145656.730000", "145658.220000", "145659.710000", "145701.200000", "145702.690000", "145704.180000", "145705.670000", "145707.160000", "145708.650000", "145710.140000", "145711.630000", "145713.120000", "145714.610000", "145716.100000", "145717.590000", "145719.080000", "145720.570000", "145722.060000", "145723.550000", "145725.040000", "145726.530000", "145728.020000", "145729.510000", "145731.000000", "145732.490000", "145733.980000", "145735.470000", "145736.960000", "145738.450000", "145739.940000", "145741.430000", "145742.920000", "145744.410000", "145745.900000", "145747.390000", "145748.880000", "145750.370000", "145751.860000", "145753.350000", "145754.840000", "145756.330000", "145757.820000", "145759.310000", "145800.800000", "145802.290000", "145803.780000", "145805.270000", "145806.760000", "145808.250000", "145809.740000", "145811.230000", "145812.720000", "145814.210000", "145815.700000", "145817.190000", "145818.680000", "145820.170000", "145821.660000", "145823.150000", "145824.640000", "145826.130000", "145827.620000", "145829.110000", "145830.600000", "145832.090000", "145833.580000", "145835.070000", "145836.560000", "145838.050000", "145839.540000", "145841.030000", "145842.520000", "145844.010000", "145845.500000", "145846.990000", "145848.480000"],
      "ContentTime": ["144833.006000", "144833.009000", "144833.011000", "144853.067000", "144853.070000", "144853.072000", "144853.075000", "144853.078000", "144853.080000", "144853.088000", "144853.090000", "144853.093000", "144853.095000", "144853.098000", "144853.101000", "144853.103000", "144853.106000", "144853.108000", "144853.111000", "144853.113000", "144853.116000", "144853.118000", "144853.121000", "144913.032000", "144913.035000", "144913.037000", "144913.040000", "144913.043000", "144913.045000", "144913.048000", "144913.050000", "144913.053000", "144913.056000", "144913.058000", "144913.061000", "144913.064000", "144913.066000", "144913.069000", "144913.071000", "144913.074000", "144913.076000", "144913.079000", "144913.082000", "144913.084000", "144933.031000", "144933.034000", "144933.037000", "144933.039000", "144933.042000", "144933.044000", "144933.047000", "144933.049000", "144933.052000", "144933.055000", "144933.057000", "144933.060000", "144933.062000", "144933.065000", "144933.068000", "144933.070000", "144933.073000", "144933.075000", "144933.078000", "144933.081000", "144953.017000", "144953.020000", "144953.023000", "144953.025000", "144953.028000", "144953.030000", "144953.033000", "144953.035000", "144953.038000", "144953.041000", "144953.043000", "144953.046000", "144953.048000", "144953.051000", "144953.053000", "144953.056000", "144953.059000", "144953.061000", "144953.064000", "144953.066000", "145013.011000", "145013.014000", "145013.016000", "145013.019000", "145013.021000", "145013.024000", "145013.026000", "145013.029000", "145013.031000", "145013.034000", "145013.037000", "145013.039000", "145013.042000", "145013.044000", "145013.047000", "145013.050000", "145013.052000", "145013.055000", "145013.057000", "145013.060000", "145053.075000", "145053.078000", "145053.081000", "145053.083000", "145053.092000", "145053.094000", "145053.097000", "145053.099000", "145053.102000", "145053.104000", "145053.107000", "145053.110000", "145053.112000", "145053.115000", "145053.124000", "145053.127000", "145053.130000", "145053.132000", "145053.135000", "145053.137000", "145053.140000", "145053.142000", "145053.145000", "145053.148000", "145053.150000", "145053.153000", "145053.155000", "145133.101000", "145133.112000", "145133.115000", "145133.117000", "145133.120000", "145133.123000", "145133.125000", "145133.128000", "145133.130000", "145133.133000", "145133.136000", "145133.138000", "145133.141000", "145133.143000", "145133.146000", "145133.148000", "145133.151000", "145133.154000", "145133.156000", "145133.159000", "145133.161000", "145133.164000", "145133.166000", "145133.169000", "145133.172000", "145133.174000", "145133.177000", "145213.069000", "145213.071000", "145213.074000", "145213.077000", "145213.079000", "145213.082000", "145213.084000", "145213.087000", "145213.089000", "145213.092000", "145213.095000", "145213.097000", "145213.100000", "145213.103000", "145213.105000", "145213.108000", "145213.110000", "145213.113000", "145213.115000", "145213.118000", "145213.121000", "145213.123000", "145213.126000", "145213.128000", "145213.131000", "145213.134000", "145213.136000", "145253.059000", "145253.062000", "145253.064000", "145253.067000", "145253.069000", "145253.072000", "145253.075000", "145253.077000", "145253.080000", "145253.082000", "145253.085000", "145253.087000", "145253.090000", "145253.093000", "145253.095000", "145253.098000", "145253.100000", "145253.103000", "145253.105000", "145253.108000", "145253.111000", "145253.113000", "145253.116000", "145253.119000", "145253.126000", "145253.129000", "145253.132000", "145333.085000", "145333.087000", "145333.090000", "145333.093000", "145333.096000", "145333.098000", "145333.101000", "145333.104000", "145333.106000", "145333.109000", "145333.111000", "145333.114000", "145333.117000", "145333.119000", "145333.122000", "145333.124000", "145333.127000", "145333.129000", "145333.132000", "145333.135000", "145333.137000", "145333.140000", "145333.142000", "145333.145000", "145333.147000", "145333.150000", "145333.153000", "145413.053000", "145413.056000", "145413.058000", "145413.061000", "145413.064000", "145413.066000", "145413.069000", "145413.071000", "145413.074000", "145413.077000", "145413.079000", "145413.082000", "145413.084000", "145413.087000", "145413.090000", "145413.092000", "145413.095000", "145413.098000", "145413.100000", "145413.103000", "145413.106000", "145413.109000", "145413.112000", "145413.114000", "145413.117000", "145413.120000", "145453.066000", "145453.069000", "145453.071000", "145453.074000", "145453.077000", "145453.079000", "145453.082000", "145453.085000", "145453.087000", "145453.090000", "145453.092000", "145453.095000", "145453.098000", "145453.100000", "145453.103000", "145453.105000", "145453.108000", "145453.110000", "145453.113000", "145453.116000", "145453.118000", "145453.121000", "145453.123000", "145453.126000", "145453.128000", "145453.137000", "145453.140000", "145533.080000", "145533.082000", "145533.085000", "145533.088000", "145533.090000", "145533.093000", "145533.095000", "145533.098000", "145533.100000", "145533.103000", "145533.106000", "145533.108000", "145533.111000", "145533.113000", "145533.116000", "145533.119000", "145533.121000", "145533.124000", "145533.126000", "145533.129000", "145533.131000", "145533.134000", "145533.137000", "145533.139000", "145533.142000", "145533.145000", "145533.148000", "145613.043000", "145613.046000", "145613.048000", "145613.051000", "145613.053000", "145613.056000", "145613.058000", "145613.061000", "145613.064000", "145613.066000", "145613.069000", "145613.072000", "145613.074000", "145613.077000", "145613.079000", "145613.082000", "145613.085000", "145613.087000", "145613.090000", "145613.099000", "145613.101000", "145613.104000", "145613.106000", "145613.109000", "145613.111000", "145613.114000", "145613.117000", "145653.062000", "145653.065000", "145653.068000", "145653.071000", "145653.073000", "145653.076000", "145653.078000", "145653.081000", "145653.083000", "145653.086000", "145653.089000", "145653.091000", "145653.094000", "145653.096000", "145653.099000", "145653.102000", "145653.104000", "145653.107000", "145653.109000", "145653.112000", "145653.114000", "145653.117000", "145653.120000", "145653.146000", "145653.149000", "145653.152000", "145653.154000", "145733.042000", "145733.045000", "145733.047000", "145733.050000", "145733.053000", "145733.055000", "145733.058000", "145733.060000", "145733.063000", "145733.065000", "145733.068000", "145733.071000", "145733.073000", "145733.076000", "145733.078000", "145733.081000", "145733.084000", "145733.086000", "145733.089000", "145733.091000", "145733.094000", "145733.096000", "145733.099000", "145733.102000", "145733.104000", "145733.107000", "145733.109000", "145813.074000", "145813.077000", "145813.079000", "145813.082000", "145813.084000", "145813.087000", "145813.090000", "145813.092000", "145813.095000", "145813.097000", "145813.100000", "145813.103000", "145813.105000", "145813.108000", "145813.110000", "145813.113000", "145813.116000", "145813.118000", "145813.121000", "145813.123000", "145813.126000", "145813.128000", "145813.131000", "145813.133000", "145813.136000", "145813.139000", "145851.508000", "145851.511000", "145851.514000", "145851.516000", "145851.519000", "145851.521000", "145851.524000", "145851.527000", "145851.529000", "145851.532000", "145851.534000", "145851.537000", "145851.539000", "145851.542000", "145851.545000", "145851.547000", "145851.550000", "145851.553000", "145851.555000", "145851.558000", "145851.560000", "145851.563000", "145851.565000", "145851.568000", "145851.571000", "145851.573000"],
