{
  "AcquisitionMatrixPE": 104,
  "AcquisitionNumber": 1,
  "AcquisitionTime": "14:11:53.480000",
  "BandwidthPerPixelPhaseEncode": 17.17,
  "BaseResolution": 104,
  "BodyPartExamined": "BRAIN",
  "CoilString": "HC1-7;NC1_2",
  "ConsistencyInfo": "N4_VE11C_LATEST_20160120",
  "ConversionSoftware": "dcm2niix",
  "ConversionSoftwareVersion": "v1.0.20190902",
  "DerivedVendorReportedEchoSpacing": 0.000560011,
  "DeviceSerialNumber": "167006",
  "DwellTime": 2.1e-06,
  "EchoTime": 0.037,
  "EchoTrainLength": 104,
  "EffectiveEchoSpacing": 0.000560011,
  "FlipAngle": 52,
  "HeudiconvVersion": "0.10.0",
  "ImageComments": "Unaliased_MB4_PE3_LB",
  "ImageOrientationPatientDICOM": [0.999546, 0.00604027, 0.0295167, 0.00994419, 0.858653, -0.512461],
  "ImageType": [
    "ORIGINAL",
    "PRIMARY",
    "P",
    "MB",
    "ND",
    "MOSAIC"
],
  "ImagingFrequency": 123.259,
  "InPlanePhaseEncodingDirectionDICOM": "COL",
  "InstitutionAddress": "Chemin_Queen-Mary_4565_Montreal_District_CA_H3W_1W5",
  "InstitutionName": "IUGM",
  "InstitutionalDepartmentName": "Department",
  "MRAcquisitionType": "2D",
  "MagneticFieldStrength": 3,
  "Manufacturer": "Siemens",
  "ManufacturersModelName": "Prisma_fit",
  "Modality": "MR",
  "MultibandAccelerationFactor": 4,
  "PartialFourier": 1,
  "PatientPosition": "HFS",
  "PercentPhaseFOV": 100,
  "PhaseEncodingDirection": "j",
  "PhaseEncodingSteps": 104,
  "PhaseResolution": 1,
  "PixelBandwidth": 2290,
  "ProcedureStepDescription": "games_mario",
  "ProtocolName": "func_task-mario_run-02",
  "PulseSequenceDetails": "%CustomerSeq%_cmrr_mbep2d_bold",
  "ReceiveCoilActiveElements": "HC1-7;NC1,2",
  "ReceiveCoilName": "HeadNeck_64",
  "ReconMatrixPE": 104,
  "RepetitionTime": 1.49,
  "SAR": 0.0428713,
  "ScanOptions": "FS",
  "ScanningSequence": "EP",
  "SequenceName": "epfid2d1_104",
  "SequenceVariant": "SK_SS",
  "SeriesDescription": "func_task-mario_run-02",
  "SeriesNumber": 20,
  "ShimSetting": [612, -7173, -8852, 273, 31, -149, -44, 15],
  "SliceThickness": 2,
  "SliceTiming": [0, 0.7825, 0.0975, 0.88, 0.195, 0.98, 0.2925, 1.0775, 0.39, 1.175, 0.49, 1.2725, 0.5875, 1.37, 0.685, 0, 0.7825, 0.0975, 0.88, 0.195, 0.98, 0.2925, 1.0775, 0.39, 1.175, 0.49, 1.2725, 0.5875, 1.37, 0.685, 0, 0.7825, 0.0975, 0.88, 0.195, 0.98, 0.2925, 1.0775, 0.39, 1.175, 0.49, 1.2725, 0.5875, 1.37, 0.685, 0, 0.7825, 0.0975, 0.88, 0.195, 0.98, 0.2925, 1.0775, 0.39, 1.175, 0.49, 1.2725, 0.5875, 1.37, 0.685],
  "SoftwareVersions": "syngo_MR_E11",
  "SpacingBetweenSlices": 2,
  "StationName": "MRC35049",
  "TaskName": "mario",
  "TotalReadoutTime": 0.0576811,
  "TxRefAmp": 247.557,
  "WipMemBlock": "2c3e7680-2591-40a6-9255-433399c661c0||Sequence: R016 ve11c/master r/e634e98; Dec 19 2017 11:00:25 by eja",
  "dcmmeta_affine": [
    [-1.9990921020507812, 0.019888386130332947, 0.05688001960515976, 104.68455505371094],
    [-0.012080531567335129, 1.7173055410385132, -1.0250442028045654, -50.75791549682617],
    [0.05903342738747597, 1.0249223709106445, 1.7164057493209839, -90.17686462402344],
    [0.0, 0.0, 0.0, 1.0]
],
  "dcmmeta_reorient_transform": [
    [0.0, -1.0, 0.0, 103.0],
    [1.0, 0.0, 0.0, 0.0],
    [0.0, 0.0, 1.0, 0.0],
    [0.0, 0.0, 0.0, 1.0]
],
  "dcmmeta_shape": [104, 104, 60, 420],
  "dcmmeta_slice_dim": 2,
  "dcmmeta_version": 0.6,
  "global": {
    "const": {
      "AcquisitionMatrix": [104, 0, 0, 104],
      "AngioFlag": "N",
      "BitsAllocated": 16,
      "BitsStored": 16,
      "BodyPartExamined": "BRAIN",
      "Columns": 832,
      "EchoNumbers": 1,
      "EchoTime": 37.0,
      "EchoTrainLength": 104,
      "FlipAngle": 52.0,
      "HighBit": 15,
      "ImageOrientationPatient": [0.99954603638329, 0.00604026601387, 0.02951671284108, 0.00994419344185, 0.85865279339493, -0.5124612116169],
      "ImagePositionPatient": [-841.64194398368, -755.62110904018, 366.9737367083],
      "ImageType": [
        "ORIGINAL",
        "PRIMARY",
        "P",
        "MB",
        "ND",
        "MOSAIC"
],
      "ImagedNucleus": "1H",
      "ImagingFrequency": 123.258909,
      "InPlanePhaseEncodingDirection": "COL",
      "LargestImagePixelValue": 4095,
      "MRAcquisitionType": "2D",
      "MagneticFieldStrength": 3.0,
      "Manufacturer": "SIEMENS",
      "ManufacturerModelName": "Prisma_fit",
      "Modality": "MR",
      "NumberOfAverages": 1.0,
      "NumberOfPhaseEncodingSteps": 104,
      "PercentPhaseFieldOfView": 100.0,
      "PercentSampling": 100.0,
      "PerformedProcedureStepStartTime": "120145.652000",
      "PhotometricInterpretation": "MONOCHROME2",
      "PixelBandwidth": 2290.0,
      "PixelRepresentation": 0,
      "PixelSpacing": [2.0, 2.0],
      "ProtocolName": "func_task-mario_run-02",
      "RepetitionTime": 1490.0,
      "RescaleIntercept": -4096.0,
      "RescaleSlope": 2.0,
      "RescaleType": "US",
      "Rows": 832,
      "SAR": 0.04287127767662,
      "SamplesPerPixel": 1,
      "ScanOptions": "FS",
      "ScanningSequence": "EP",
      "SequenceName": "epfid2d1_104",
      "SequenceVariant": [
        "SK",
        "SS"
],
      "SeriesDescription": "func_task-mario_run-02",
      "SeriesNumber": 20,
      "SeriesTime": "141313.097000",
      "SliceLocation": -48.398270538501,
      "SliceThickness": 2.0,
      "SmallestImagePixelValue": 0,
      "SoftwareVersions": "syngo MR E11",
      "SpacingBetweenSlices": 1.9999999304052,
      "SpecificCharacterSet": "ISO_IR 100",
      "StudyID": "1",
      "StudyTime": "120145.575000",
      "TransmitCoilName": "Body",
      "VariableFlipAngleFlag": "N",
      "WindowCenterWidthExplanation": "Algo1",
      "dBdt": 0.0},
    "slices": {}
  },
  "time": {
    "samples": {
      "AcquisitionNumber": [1, 2, 3, 4, 5, 6, 7, 8, 9, 10, 11, 12, 13, 14, 15, 16, 17, 18, 19, 20, 21, 22, 23, 24, 25, 26, 27, 28, 29, 30, 31, 32, 33, 34, 35, 36, 37, 38, 39, 40, 41, 42, 43, 44, 45, 46, 47, 48, 49, 50, 51, 52, 53, 54, 55, 56, 57, 58, 59, 60, 61, 62, 63, 64, 65, 66, 67, 68, 69, 70, 71, 72, 73, 74, 75, 76, 77, 78, 79, 80, 81, 82, 83, 84, 85, 86, 87, 88, 89, 90, 91, 92, 93, 94, 95, 96, 97, 98, 99, 100, 101, 102, 103, 104, 105, 106, 107, 108, 109, 110, 111, 112, 113, 114, 115, 116, 117, 118, 119, 120, 121, 122, 123, 124, 125, 126, 127, 128, 129, 130, 131, 132, 133, 134, 135, 136, 137, 138, 139, 140, 141, 142, 143, 144, 145, 146, 147, 148, 149, 150, 151, 152, 153, 154, 155, 156, 157, 158, 159, 160, 161, 162, 163, 164, 165, 166, 167, 168, 169, 170, 171, 172, 173, 174, 175, 176, 177, 178, 179, 180, 181, 182, 183, 184, 185, 186, 187, 188, 189, 190, 191, 192, 193, 194, 195, 196, 197, 198, 199, 200, 201, 202, 203, 204, 205, 206, 207, 208, 209, 210, 211, 212, 213, 214, 215, 216, 217, 218, 219, 220, 221, 222, 223, 224, 225, 226, 227, 228, 229, 230, 231, 232, 233, 234, 235, 236, 237, 238, 239, 240, 241, 242, 243, 244, 245, 246, 247, 248, 249, 250, 251, 252, 253, 254, 255, 256, 257, 258, 259, 260, 261, 262, 263, 264, 265, 266, 267, 268, 269, 270, 271, 272, 273, 274, 275, 276, 277, 278, 279, 280, 281, 282, 283, 284, 285, 286, 287, 288, 289, 290, 291, 292, 293, 294, 295, 296, 297, 298, 299, 300, 301, 302, 303, 304, 305, 306, 307, 308, 309, 310, 311, 312, 313, 314, 315, 316, 317, 318, 319, 320, 321, 322, 323, 324, 325, 326, 327, 328, 329, 330, 331, 332, 333, 334, 335, 336, 337, 338, 339, 340, 341, 342, 343, 344, 345, 346, 347, 348, 349, 350, 351, 352, 353, 354, 355, 356, 357, 358, 359, 360, 361, 362, 363, 364, 365, 366, 367, 368, 369, 370, 371, 372, 373, 374, 375, 376, 377, 378, 379, 380, 381, 382, 383, 384, 385, 386, 387, 388, 389, 390, 391, 392, 393, 394, 395, 396, 397, 398, 399, 400, 401, 402, 403, 404, 405, 406, 407, 408, 409, 410, 411, 412, 413, 414, 415, 416, 417, 418, 419, 420],
      "AcquisitionTime": ["141153.480000", "141154.970000", "141156.460000", "141157.950000", "141159.440000", "141200.930000", "141202.420000", "141203.910000", "141205.400000", "141206.890000", "141208.380000", "141209.870000", "141211.360000", "141212.850000", "141214.340000", "141215.830000", "141217.320000", "141218.810000", "141220.300000", "141221.790000", "141223.280000", "141224.770000", "141226.260000", "141227.750000", "141229.240000", "141230.730000", "141232.220000", "141233.710000", "141235.200000", "141236.690000", "141238.180000", "141239.670000", "141241.160000", "141242.650000", "141244.140000", "141245.630000", "141247.120000", "141248.610000", "141250.100000", "141251.590000", "141253.080000", "141254.570000", "141256.060000", "141257.550000", "141259.040000", "141300.530000", "141302.020000", "141303.510000", "141305.000000", "141306.490000", "141307.980000", "141309.470000", "141310.960000", "141312.450000", "141313.940000", "141315.430000", "141316.920000", "141318.410000", "141319.900000", "141321.390000", "141322.880000", "141324.370000", "141325.860000", "141327.350000", "141328.840000", "141330.330000", "141331.820000", "141333.310000", "141334.800000", "141336.290000", "141337.780000", "141339.270000", "141340.760000", "141342.250000", "141343.740000", "141345.230000", "141346.720000", "141348.210000", "141349.700000", "141351.190000", "141352.680000", "141354.170000", "141355.660000", "141357.150000", "141358.640000", "141400.130000", "141401.620000", "141403.110000", "141404.600000", "141406.090000", "141407.580000", "141409.070000", "141410.560000", "141412.050000", "141413.540000", "141415.030000", "141416.520000", "141418.010000", "141419.500000", "141420.990000", "141422.480000", "141423.970000", "141425.460000", "141426.950000", "141428.440000", "141429.930000", "141431.420000", "141432.910000", "141434.400000", "141435.890000", "141437.380000", "141438.870000", "141440.360000", "141441.850000", "141443.340000", "141444.830000", "141446.320000", "141447.810000", "141449.300000", "141450.790000", "141452.280000", "141453.770000", "141455.260000", "141456.750000", "141458.240000", "141459.730000", "141501.220000", "141502.710000", "141504.200000", "141505.690000", "141507.180000", "141508.670000", "141510.160000", "141511.650000", "141513.140000", "141514.630000", "141516.120000", "141517.610000", "141519.100000", "141520.590000", "141522.080000", "141523.570000", "141525.060000", "141526.550000", "141528.040000", "141529.530000", "141531.020000", "141532.510000", "141534.000000", "141535.490000", "141536.980000", "141538.470000", "141539.960000", "141541.450000", "141542.940000", "141544.430000", "141545.920000", "141547.410000", "141548.900000", "141550.390000", "141551.880000", "141553.370000", "141554.860000", "141556.350000", "141557.840000", "141559.330000", "141600.820000", "141602.310000", "141603.800000", "141605.290000", "141606.780000", "141608.270000", "141609.760000", "141611.250000", "141612.740000", "141614.230000", "141615.720000", "141617.210000", "141618.700000", "141620.190000", "141621.680000", "141623.170000", "141624.660000", "141626.150000", "141627.640000", "141629.130000", "141630.620000", "141632.110000", "141633.600000", "141635.090000", "141636.580000", "141638.070000", "141639.560000", "141641.050000", "141642.540000", "141644.030000", "141645.520000", "141647.010000", "141648.500000", "141649.990000", "141651.480000", "141652.970000", "141654.460000", "141655.950000", "141657.440000", "141658.930000", "141700.420000", "141701.910000", "141703.400000", "141704.890000", "141706.380000", "141707.870000", "141709.360000", "141710.850000", "141712.340000", "141713.830000", "141715.320000", "141716.810000", "141718.300000", "141719.790000", "141721.280000", "141722.770000", "141724.260000", "141725.750000", "141727.240000", "141728.730000", "141730.220000", "141731.710000", "141733.200000", "141734.690000", "141736.180000", "141737.670000", "141739.160000", "141740.650000", "141742.140000", "141743.630000", "141745.120000", "141746.610000", "141748.100000", "141749.590000", "141751.080000", "141752.570000", "141754.060000", "141755.550000", "141757.040000", "141758.530000", "141800.020000", "141801.510000", "141803.000000", "141804.490000", "141805.980000", "141807.470000", "141808.960000", "141810.450000", "141811.940000", "141813.430000", "141814.920000", "141816.410000", "141817.900000", "141819.390000", "141820.880000", "141822.370000", "141823.860000", "141825.350000", "141826.840000", "141828.330000", "141829.820000", "141831.310000", "141832.800000", "141834.290000", "141835.780000", "141837.270000", "141838.760000", "141840.250000", "141841.740000", "141843.230000", "141844.720000", "141846.210000", "141847.700000", "141849.190000", "141850.680000", "141852.170000", "141853.660000", "141855.150000", "141856.640000", "141858.130000", "141859.620000", "141901.110000", "141902.600000", "141904.090000", "141905.580000", "141907.070000", "141908.560000", "141910.050000", "141911.540000", "141913.030000", "141914.520000", "141916.010000", "141917.500000", "141918.990000", "141920.480000", "141921.970000", "141923.460000", "141924.950000", "141926.440000", "141927.930000", "141929.420000", "141930.910000", "141932.400000", "141933.890000", "141935.380000", "141936.870000", "141938.360000", "141939.850000", "141941.340000", "141942.830000", "141944.320000", "141945.810000", "141947.300000", "141948.790000", "141950.280000", "141951.770000", "141953.260000", "141954.750000", "141956.240000", "141957.730000", "141959.220000", "142000.710000", "142002.200000", "142003.690000", "142005.180000", "142006.670000", "142008.160000", "142009.650000", "142011.140000", "142012.630000", "142014.120000", "142015.610000", "142017.100000", "142018.590000", "142020.080000", "142021.570000", "142023.060000", "142024.550000", "142026.040000", "142027.530000", "142029.020000", "142030.510000", "142032.000000", "142033.490000", "142034.980000", "142036.470000", "142037.960000", "142039.450000", "142040.940000", "142042.430000", "142043.920000", "142045.410000", "142046.900000", "142048.390000", "142049.880000", "142051.370000", "142052.860000", "142054.350000", "142055.840000", "142057.330000", "142058.820000", "142100.310000", "142101.800000", "142103.290000", "142104.780000", "142106.270000", "142107.760000", "142109.250000", "142110.740000", "142112.230000", "142113.720000", "142115.210000", "142116.700000", "142118.190000", "142119.680000", "142121.170000", "142122.660000", "142124.150000", "142125.640000", "142127.130000", "142128.620000", "142130.110000", "142131.600000", "142133.090000", "142134.580000", "142136.070000", "142137.560000", "142139.050000", "142140.540000", "142142.030000", "142143.520000", "142145.010000", "142146.500000", "142147.990000", "142149.480000", "142150.970000", "142152.460000", "142153.950000", "142155.440000", "142156.930000", "142158.420000", "142159.910000", "142201.400000", "142202.890000", "142204.380000", "142205.870000", "142207.360000", "142208.850000", "142210.340000", "142211.830000", "142213.320000", "142214.810000", "142216.300000", "142217.790000"],
      "ContentTime": ["141313.099000", "141313.102000", "141313.105000", "141313.107000", "141313.110000", "141313.112000", "141313.115000", "141313.118000", "141313.120000", "141313.123000", "141313.125000", "141313.128000", "141313.137000", "141313.140000", "141313.146000", "141313.148000", "141313.151000", "141313.154000", "141313.156000", "141313.159000", "141313.161000", "141313.164000", "141313.166000", "141313.169000", "141313.181000", "141333.034000", "141333.036000", "141333.039000", "141333.042000", "141333.044000", "141333.047000", "141333.049000", "141333.052000", "141333.054000", "141333.057000", "141333.059000", "141333.062000", "141333.065000", "141333.067000", "141333.070000", "141333.072000", "141333.075000", "141333.078000", "141333.086000", "141333.089000", "141353.032000", "141353.035000", "141353.038000", "141353.040000", "141353.043000", "141353.046000", "141353.048000", "141353.051000", "141353.053000", "141353.056000", "141353.058000", "141353.061000", "141353.063000", "141353.066000", "141353.069000", "141353.071000", "141353.074000", "141353.076000", "141353.079000", "141353.086000", "141413.031000", "141413.080000", "141413.082000", "141413.085000", "141413.087000", "141413.090000", "141413.093000", "141413.095000", "141413.098000", "141413.100000", "141413.103000", "141413.105000", "141413.108000", "141413.111000", "141413.113000", "141413.116000", "141413.118000", "141413.121000", "141413.123000", "141413.126000", "141433.036000", "141433.039000", "141433.042000", "141433.045000", "141433.047000", "141433.050000", "141433.052000", "141433.055000", "141433.057000", "141433.060000", "141433.063000", "141433.065000", "141433.068000", "141433.070000", "141433.073000", "141433.075000", "141433.078000", "141433.080000", "141433.083000", "141433.085000", "141433.088000", "141513.072000", "141513.075000", "141513.077000", "141513.080000", "141513.083000", "141513.085000", "141513.088000", "141513.090000", "141513.093000", "141513.096000", "141513.098000", "141513.101000", "141513.103000", "141513.106000", "141513.108000", "141513.111000", "141513.114000", "141513.116000", "141513.119000", "141513.121000", "141513.124000", "141513.126000", "141513.129000", "141513.132000", "141513.134000", "141513.137000", "141513.139000", "141553.063000", "141553.065000", "141553.068000", "141553.071000", "141553.073000", "141553.076000", "141553.078000", "141553.081000", "141553.083000", "141553.086000", "141553.089000", "141553.091000", "141553.094000", "141553.096000", "141553.099000", "141553.101000", "141553.104000", "141553.106000", "141553.109000", "141553.112000", "141553.114000", "141553.117000", "141553.119000", "141553.122000", "141553.125000", "141553.127000", "141553.130000", "141633.054000", "141633.057000", "141633.059000", "141633.062000", "141633.071000", "141633.073000", "141633.076000", "141633.078000", "141633.081000", "141633.084000", "141633.086000", "141633.089000", "141633.092000", "141633.094000", "141633.097000", "141633.099000", "141633.102000", "141633.104000", "141633.107000", "141633.109000", "141633.112000", "141633.115000", "141633.117000", "141633.120000", "141633.122000", "141633.125000", "141633.128000", "141713.045000", "141713.048000", "141713.051000", "141713.054000", "141713.057000", "141713.059000", "141713.062000", "141713.065000", "141713.067000", "141713.070000", "141713.084000", "141713.086000", "141713.089000", "141713.091000", "141713.094000", "141713.096000", "141713.099000", "141713.102000", "141713.104000", "141713.107000", "141713.109000", "141713.112000", "141713.114000", "141713.117000", "141713.120000", "141713.122000", "141753.058000", "141753.060000", "141753.063000", "141753.066000", "141753.068000", "141753.071000", "141753.073000", "141753.076000", "141753.078000", "141753.081000", "141753.084000", "141753.086000", "141753.089000", "141753.091000", "141753.094000", "141753.096000", "141753.099000", "141753.102000", "141753.104000", "141753.107000", "141753.109000", "141753.112000", "141753.115000", "141753.117000", "141753.120000", "141753.122000", "141753.125000", "141812.987000", "141812.990000", "141812.993000", "141812.995000", "141812.998000", "141813.002000", "141813.004000", "141813.007000", "141813.010000", "141813.012000", "141813.015000", "141813.017000", "141813.020000", "141813.022000", "141853.059000", "141853.062000", "141853.065000", "141853.067000", "141853.070000", "141853.072000", "141853.075000", "141853.078000", "141853.080000", "141853.083000", "141853.085000", "141853.088000", "141853.091000", "141853.093000", "141853.096000", "141853.098000", "141853.101000", "141853.103000", "141853.106000", "141853.109000", "141853.111000", "141853.114000", "141853.116000", "141853.119000", "141853.122000", "141853.124000", "141853.127000", "141933.044000", "141933.047000", "141933.050000", "141933.052000", "141933.055000", "141933.057000", "141933.060000", "141933.063000", "141933.065000", "141933.068000", "141933.071000", "141933.073000", "141933.076000", "141933.079000", "141933.081000", "141933.084000", "141933.087000", "141933.090000", "141933.095000", "141933.099000", "141933.102000", "141933.105000", "141933.108000", "141933.110000", "141933.113000", "141933.115000", "142013.093000", "142013.095000", "142013.098000", "142013.101000", "142013.103000", "142013.106000", "142013.108000", "142013.111000", "142013.114000", "142013.116000", "142013.119000", "142013.128000", "142013.131000", "142013.134000", "142013.136000", "142013.139000", "142013.141000", "142013.144000", "142013.146000", "142013.149000", "142013.152000", "142013.154000", "142013.157000", "142013.160000", "142013.162000", "142013.165000", "142013.167000", "142053.066000", "142053.069000", "142053.072000", "142053.074000", "142053.077000", "142053.079000", "142053.082000", "142053.084000", "142053.087000", "142053.090000", "142053.092000", "142053.095000", "142053.097000", "142053.100000", "142053.102000", "142053.105000", "142053.108000", "142053.110000", "142053.113000", "142053.115000", "142053.118000", "142053.120000", "142053.123000", "142053.125000", "142053.128000", "142053.131000", "142053.133000", "142133.058000", "142133.061000", "142133.063000", "142133.066000", "142133.069000", "142133.071000", "142133.074000", "142133.076000", "142133.079000", "142133.081000", "142133.084000", "142133.087000", "142133.089000", "142133.092000", "142133.094000", "142133.097000", "142133.099000", "142133.102000", "142133.105000", "142133.107000", "142133.110000", "142133.112000", "142133.115000", "142133.117000", "142133.120000", "142133.123000", "142133.125000", "142213.078000", "142213.081000", "142213.083000", "142213.086000", "142213.089000", "142213.091000", "142213.095000", "142213.098000", "142213.100000", "142213.103000", "142213.105000", "142213.108000", "142213.111000", "142213.113000", "142213.116000", "142213.118000", "142213.121000", "142213.123000", "142213.126000", "142213.129000", "142213.131000", "142213.134000", "142213.136000", "142213.139000", "142213.141000", "142213.144000", "142213.147000", "142221.131000", "142221.134000", "142221.136000", "142221.139000", "142221.141000"],
      "InstanceCreationTime": ["141313.099000", "141313.102000", "141313.105000", "141313.107000", "141313.110000", "141313.112000", "141313.115000", "141313.118000", "141313.120000", "141313.123000", "141313.125000", "141313.128000", "141313.137000", "141313.140000", "141313.146000", "141313.148000", "141313.151000", "141313.154000", "141313.156000", "141313.159000", "141313.161000", "141313.164000", "141313.166000", "141313.169000", "141313.181000", "141333.034000", "141333.036000", "141333.039000", "141333.042000", "141333.044000", "141333.047000", "141333.049000", "141333.052000", "141333.054000", "141333.057000", "141333.059000", "141333.062000", "141333.065000", "141333.067000", "141333.070000", "141333.072000", "141333.075000", "141333.078000", "141333.086000", "141333.089000", "141353.032000", "141353.035000", "141353.038000", "141353.040000", "141353.043000", "141353.046000", "141353.048000", "141353.051000", "141353.053000", "141353.056000", "141353.058000", "141353.061000", "141353.063000", "141353.066000", "141353.069000", "141353.071000", "141353.074000", "141353.076000", "141353.079000", "141353.086000", "141413.031000", "141413.080000", "141413.082000", "141413.085000", "141413.087000", "141413.090000", "141413.093000", "141413.095000", "141413.098000", "141413.100000", "141413.103000", "141413.105000", "141413.108000", "141413.111000", "141413.113000", "141413.116000", "141413.118000", "141413.121000", "141413.123000", "141413.126000", "141433.036000", "141433.039000", "141433.042000", "141433.045000", "141433.047000", "141433.050000", "141433.052000", "141433.055000", "141433.057000", "141433.060000", "141433.063000", "141433.065000", "141433.068000", "141433.070000", "141433.073000", "141433.075000", "141433.078000", "141433.080000", "141433.083000", "141433.085000", "141433.088000", "141513.072000", "141513.075000", "141513.077000", "141513.080000", "141513.083000", "141513.085000", "141513.088000", "141513.090000", "141513.093000", "141513.096000", "141513.098000", "141513.101000", "141513.103000", "141513.106000", "141513.108000", "141513.111000", "141513.114000", "141513.116000", "141513.119000", "141513.121000", "141513.124000", "141513.126000", "141513.129000", "141513.132000", "141513.134000", "141513.137000", "141513.139000", "141553.063000", "141553.065000", "141553.068000", "141553.071000", "141553.073000", "141553.076000", "141553.078000", "141553.081000", "141553.083000", "141553.086000", "141553.089000", "141553.091000", "141553.094000", "141553.096000", "141553.099000", "141553.101000", "141553.104000", "141553.106000", "141553.109000", "141553.112000", "141553.114000", "141553.117000", "141553.119000", "141553.122000", "141553.125000", "141553.127000", "141553.130000", "141633.054000", "141633.057000", "141633.059000", "141633.062000", "141633.071000", "141633.073000", "141633.076000", "141633.078000", "141633.081000", "141633.084000", "141633.086000", "141633.089000", "141633.092000", "141633.094000", "141633.097000", "141633.099000", "141633.102000", "141633.104000", "141633.107000", "141633.109000", "141633.112000", "141633.115000", "141633.117000", "141633.120000", "141633.122000", "141633.125000", "141633.128000", "141713.045000", "141713.048000", "141713.051000", "141713.054000", "141713.057000", "141713.059000", "141713.062000", "141713.065000", "141713.067000", "141713.070000", "141713.084000", "141713.086000", "141713.089000", "141713.091000", "141713.094000", "141713.096000", "141713.099000", "141713.102000", "141713.104000", "141713.107000", "141713.109000", "141713.112000", "141713.114000", "141713.117000", "141713.120000", "141713.122000", "141753.058000", "141753.060000", "141753.063000", "141753.066000", "141753.068000", "141753.071000", "141753.073000", "141753.076000", "141753.078000", "141753.081000", "141753.084000", "141753.086000", "141753.089000", "141753.091000", "141753.094000", "141753.096000", "141753.099000", "141753.102000", "141753.104000", "141753.107000", "141753.109000", "141753.112000", "141753.115000", "141753.117000", "141753.120000", "141753.122000", "141753.125000", "141812.987000", "141812.990000", "141812.993000", "141812.995000", "141812.998000", "141813.002000", "141813.004000", "141813.007000", "141813.010000", "141813.012000", "141813.015000", "141813.017000", "141813.020000", "141813.022000", "141853.059000", "141853.062000", "141853.065000", "141853.067000", "141853.070000", "141853.072000", "141853.075000", "141853.078000", "141853.080000", "141853.083000", "141853.085000", "141853.088000", "141853.091000", "141853.093000", "141853.096000", "141853.098000", "141853.101000", "141853.103000", "141853.106000", "141853.109000", "141853.111000", "141853.114000", "141853.116000", "141853.119000", "141853.122000", "141853.124000", "141853.127000", "141933.044000", "141933.047000", "141933.050000", "141933.052000", "141933.055000", "141933.057000", "141933.060000", "141933.063000", "141933.065000", "141933.068000", "141933.071000", "141933.073000", "141933.076000", "141933.079000", "141933.081000", "141933.084000", "141933.087000", "141933.090000", "141933.095000", "141933.099000", "141933.102000", "141933.105000", "141933.108000", "141933.110000", "141933.113000", "141933.115000", "142013.093000", "142013.095000", "142013.098000", "142013.101000", "142013.103000", "142013.106000", "142013.108000", "142013.111000", "142013.114000", "142013.116000", "142013.119000", "142013.128000", "142013.131000", "142013.134000", "142013.136000", "142013.139000", "142013.141000", "142013.144000", "142013.146000", "142013.149000", "142013.152000", "142013.154000", "142013.157000", "142013.160000", "142013.162000", "142013.165000", "142013.167000", "142053.066000", "142053.069000", "142053.072000", "142053.074000", "142053.077000", "142053.079000", "142053.082000", "142053.084000", "142053.087000", "142053.090000", "142053.092000", "142053.095000", "142053.097000", "142053.100000", "142053.102000", "142053.105000", "142053.108000", "142053.110000", "142053.113000", "142053.115000", "142053.118000", "142053.120000", "142053.123000", "142053.125000", "142053.128000", "142053.131000", "142053.133000", "142133.058000", "142133.061000", "142133.063000", "142133.066000", "142133.069000", "142133.071000", "142133.074000", "142133.076000", "142133.079000", "142133.081000", "142133.084000", "142133.087000", "142133.089000", "142133.092000", "142133.094000", "142133.097000", "142133.099000", "142133.102000", "142133.105000", "142133.107000", "142133.110000", "142133.112000", "142133.115000", "142133.117000", "142133.120000", "142133.123000", "142133.125000", "142213.078000", "142213.081000", "142213.083000", "142213.086000", "142213.089000", "142213.091000", "142213.095000", "142213.098000", "142213.100000", "142213.103000", "142213.105000", "142213.108000", "142213.111000", "142213.113000", "142213.116000", "142213.118000", "142213.121000", "142213.123000", "142213.126000", "142213.129000", "142213.131000", "142213.134000", "142213.136000", "142213.139000", "142213.141000", "142213.144000", "142213.147000", "142221.131000", "142221.134000", "142221.136000", "142221.139000", "142221.141000"],
