{
  "AcquisitionMatrixPE": 104,
  "AcquisitionNumber": 1,
  "AcquisitionTime": "14:23:47.760000",
  "BandwidthPerPixelPhaseEncode": 17.17,
  "BaseResolution": 104,
  "BodyPartExamined": "BRAIN",
  "CoilString": "HC1-7;NC1_2",
  "ConsistencyInfo": "N4_VE11C_LATEST_20160120",
  "ConversionSoftware": "dcm2niix",
  "ConversionSoftwareVersion": "v1.0.20190902",
  "DerivedVendorReportedEchoSpacing": 0.000560011,
  "DeviceSerialNumber": "167006",
  "DwellTime": 2.1e-06,
  "EchoTime": 0.037,
  "EchoTrainLength": 104,
  "EffectiveEchoSpacing": 0.000560011,
  "FlipAngle": 52,
  "HeudiconvVersion": "0.10.0",
  "ImageComments": "Unaliased_MB4_PE3_LB",
  "ImageOrientationPatientDICOM": [0.999546, 0.00604027, 0.0295167, 0.00994419, 0.858653, -0.512461],
  "ImageType": [
    "ORIGINAL",
    "PRIMARY",
    "M",
    "MB",
    "ND",
    "MOSAIC"
],
  "ImagingFrequency": 123.259,
  "InPlanePhaseEncodingDirectionDICOM": "COL",
  "InstitutionAddress": "Chemin_Queen-Mary_4565_Montreal_District_CA_H3W_1W5",
  "InstitutionName": "IUGM",
  "InstitutionalDepartmentName": "Department",
  "MRAcquisitionType": "2D",
  "MagneticFieldStrength": 3,
  "Manufacturer": "Siemens",
  "ManufacturersModelName": "Prisma_fit",
  "Modality": "MR",
  "MultibandAccelerationFactor": 4,
  "PartialFourier": 1,
  "PatientPosition": "HFS",
  "PercentPhaseFOV": 100,
  "PhaseEncodingDirection": "j",
  "PhaseEncodingSteps": 104,
  "PhaseResolution": 1,
  "PixelBandwidth": 2290,
  "ProcedureStepDescription": "games_mario",
  "ProtocolName": "func_task-mario_run-03",
  "PulseSequenceDetails": "%CustomerSeq%_cmrr_mbep2d_bold",
  "ReceiveCoilActiveElements": "HC1-7;NC1,2",
  "ReceiveCoilName": "HeadNeck_64",
  "ReconMatrixPE": 104,
  "RepetitionTime": 1.49,
  "SAR": 0.0428713,
  "ScanOptions": "FS",
  "ScanningSequence": "EP",
  "SequenceName": "epfid2d1_104",
  "SequenceVariant": "SK_SS",
  "SeriesDescription": "func_task-mario_run-03",
  "SeriesNumber": 22,
  "ShimSetting": [612, -7173, -8852, 273, 31, -149, -44, 15],
  "SliceThickness": 2,
  "SliceTiming": [0, 0.7825, 0.0975, 0.88, 0.195, 0.98, 0.2925, 1.0775, 0.39, 1.175, 0.49, 1.2725, 0.5875, 1.37, 0.685, 0, 0.7825, 0.0975, 0.88, 0.195, 0.98, 0.2925, 1.0775, 0.39, 1.175, 0.49, 1.2725, 0.5875, 1.37, 0.685, 0, 0.7825, 0.0975, 0.88, 0.195, 0.98, 0.2925, 1.0775, 0.39, 1.175, 0.49, 1.2725, 0.5875, 1.37, 0.685, 0, 0.7825, 0.0975, 0.88, 0.195, 0.98, 0.2925, 1.0775, 0.39, 1.175, 0.49, 1.2725, 0.5875, 1.37, 0.685],
  "SoftwareVersions": "syngo_MR_E11",
  "SpacingBetweenSlices": 2,
  "StationName": "MRC35049",
  "TaskName": "mario",
  "TotalReadoutTime": 0.0576811,
  "TxRefAmp": 247.557,
  "WipMemBlock": "70c3a9a8-a192-4d0a-8308-f30cd30b535e||Sequence: R016 ve11c/master r/e634e98; Dec 19 2017 11:00:25 by eja",
  "dcmmeta_affine": [
    [-1.9990921020507812, 0.019888386130332947, 0.05688001960515976, 104.68455505371094],
    [-0.012080531567335129, 1.7173055410385132, -1.0250442028045654, -50.75791549682617],
    [0.05903342738747597, 1.0249223709106445, 1.7164057493209839, -90.17686462402344],
    [0.0, 0.0, 0.0, 1.0]
],
  "dcmmeta_reorient_transform": [
    [0.0, -1.0, 0.0, 103.0],
    [1.0, 0.0, 0.0, 0.0],
    [0.0, 0.0, 1.0, 0.0],
    [0.0, 0.0, 0.0, 1.0]
],
  "dcmmeta_shape": [104, 104, 60, 448],
  "dcmmeta_slice_dim": 2,
  "dcmmeta_version": 0.6,
  "global": {
    "const": {
      "AcquisitionMatrix": [104, 0, 0, 104],
      "AngioFlag": "N",
      "BitsAllocated": 16,
      "BitsStored": 16,
      "BodyPartExamined": "BRAIN",
      "Columns": 832,
      "EchoNumbers": 1,
      "EchoTime": 37.0,
      "EchoTrainLength": 104,
      "FlipAngle": 52.0,
      "HighBit": 15,
      "ImageOrientationPatient": [0.99954603638329, 0.00604026601387, 0.02951671284108, 0.00994419344185, 0.85865279339493, -0.5124612116169],
      "ImagePositionPatient": [-841.64194398368, -755.62110904018, 366.9737367083],
      "ImageType": [
        "ORIGINAL",
        "PRIMARY",
        "M",
        "MB",
        "ND",
        "MOSAIC"
],
      "ImagedNucleus": "1H",
      "ImagingFrequency": 123.258913,
      "InPlanePhaseEncodingDirection": "COL",
      "MRAcquisitionType": "2D",
      "MagneticFieldStrength": 3.0,
      "Manufacturer": "SIEMENS",
      "ManufacturerModelName": "Prisma_fit",
      "Modality": "MR",
      "NumberOfAverages": 1.0,
      "NumberOfPhaseEncodingSteps": 104,
      "PercentPhaseFieldOfView": 100.0,
      "PercentSampling": 100.0,
      "PerformedProcedureStepStartTime": "120145.652000",
      "PhotometricInterpretation": "MONOCHROME2",
      "PixelBandwidth": 2290.0,
      "PixelRepresentation": 0,
      "PixelSpacing": [2.0, 2.0],
      "ProtocolName": "func_task-mario_run-03",
      "RepetitionTime": 1490.0,
      "Rows": 832,
      "SAR": 0.04287127767662,
      "SamplesPerPixel": 1,
      "ScanOptions": "FS",
      "ScanningSequence": "EP",
      "SequenceName": "epfid2d1_104",
      "SequenceVariant": [
        "SK",
        "SS"
],
      "SeriesDescription": "func_task-mario_run-03",
      "SeriesNumber": 22,
      "SeriesTime": "142518.262000",
      "SliceLocation": -48.398270538501,
      "SliceThickness": 2.0,
      "SmallestImagePixelValue": 0,
      "SoftwareVersions": "syngo MR E11",
      "SpacingBetweenSlices": 1.9999999304052,
      "SpecificCharacterSet": "ISO_IR 100",
      "StudyID": "1",
      "StudyTime": "120145.575000",
      "TransmitCoilName": "Body",
      "VariableFlipAngleFlag": "N",
      "WindowCenterWidthExplanation": "Algo1",
      "dBdt": 0.0},
    "slices": {}
  },
  "time": {
    "samples": {
      "AcquisitionNumber": [1, 2, 3, 4, 5, 6, 7, 8, 9, 10, 11, 12, 13, 14, 15, 16, 17, 18, 19, 20, 21, 22, 23, 24, 25, 26, 27, 28, 29, 30, 31, 32, 33, 34, 35, 36, 37, 38, 39, 40, 41, 42, 43, 44, 45, 46, 47, 48, 49, 50, 51, 52, 53, 54, 55, 56, 57, 58, 59, 60, 61, 62, 63, 64, 65, 66, 67, 68, 69, 70, 71, 72, 73, 74, 75, 76, 77, 78, 79, 80, 81, 82, 83, 84, 85, 86, 87, 88, 89, 90, 91, 92, 93, 94, 95, 96, 97, 98, 99, 100, 101, 102, 103, 104, 105, 106, 107, 108, 109, 110, 111, 112, 113, 114, 115, 116, 117, 118, 119, 120, 121, 122, 123, 124, 125, 126, 127, 128, 129, 130, 131, 132, 133, 134, 135, 136, 137, 138, 139, 140, 141, 142, 143, 144, 145, 146, 147, 148, 149, 150, 151, 152, 153, 154, 155, 156, 157, 158, 159, 160, 161, 162, 163, 164, 165, 166, 167, 168, 169, 170, 171, 172, 173, 174, 175, 176, 177, 178, 179, 180, 181, 182, 183, 184, 185, 186, 187, 188, 189, 190, 191, 192, 193, 194, 195, 196, 197, 198, 199, 200, 201, 202, 203, 204, 205, 206, 207, 208, 209, 210, 211, 212, 213, 214, 215, 216, 217, 218, 219, 220, 221, 222, 223, 224, 225, 226, 227, 228, 229, 230, 231, 232, 233, 234, 235, 236, 237, 238, 239, 240, 241, 242, 243, 244, 245, 246, 247, 248, 249, 250, 251, 252, 253, 254, 255, 256, 257, 258, 259, 260, 261, 262, 263, 264, 265, 266, 267, 268, 269, 270, 271, 272, 273, 274, 275, 276, 277, 278, 279, 280, 281, 282, 283, 284, 285, 286, 287, 288, 289, 290, 291, 292, 293, 294, 295, 296, 297, 298, 299, 300, 301, 302, 303, 304, 305, 306, 307, 308, 309, 310, 311, 312, 313, 314, 315, 316, 317, 318, 319, 320, 321, 322, 323, 324, 325, 326, 327, 328, 329, 330, 331, 332, 333, 334, 335, 336, 337, 338, 339, 340, 341, 342, 343, 344, 345, 346, 347, 348, 349, 350, 351, 352, 353, 354, 355, 356, 357, 358, 359, 360, 361, 362, 363, 364, 365, 366, 367, 368, 369, 370, 371, 372, 373, 374, 375, 376, 377, 378, 379, 380, 381, 382, 383, 384, 385, 386, 387, 388, 389, 390, 391, 392, 393, 394, 395, 396, 397, 398, 399, 400, 401, 402, 403, 404, 405, 406, 407, 408, 409, 410, 411, 412, 413, 414, 415, 416, 417, 418, 419, 420, 421, 422, 423, 424, 425, 426, 427, 428, 429, 430, 431, 432, 433, 434, 435, 436, 437, 438, 439, 440, 441, 442, 443, 444, 445, 446, 447, 448],
      "AcquisitionTime": ["142347.760000", "142349.250000", "142350.740000", "142352.230000", "142353.720000", "142355.210000", "142356.700000", "142358.190000", "142359.680000", "142401.170000", "142402.660000", "142404.150000", "142405.640000", "142407.130000", "142408.620000", "142410.110000", "142411.600000", "142413.090000", "142414.580000", "142416.070000", "142417.560000", "142419.050000", "142420.540000", "142422.030000", "142423.520000", "142425.010000", "142426.500000", "142427.990000", "142429.480000", "142430.970000", "142432.460000", "142433.950000", "142435.440000", "142436.930000", "142438.420000", "142439.910000", "142441.400000", "142442.890000", "142444.380000", "142445.870000", "142447.360000", "142448.850000", "142450.340000", "142451.830000", "142453.320000", "142454.810000", "142456.300000", "142457.790000", "142459.280000", "142500.770000", "142502.260000", "142503.750000", "142505.240000", "142506.730000", "142508.220000", "142509.710000", "142511.200000", "142512.690000", "142514.180000", "142515.670000", "142517.160000", "142518.650000", "142520.140000", "142521.630000", "142523.120000", "142524.610000", "142526.100000", "142527.590000", "142529.080000", "142530.570000", "142532.060000", "142533.550000", "142535.040000", "142536.530000", "142538.020000", "142539.510000", "142541.000000", "142542.490000", "142543.980000", "142545.470000", "142546.960000", "142548.450000", "142549.940000", "142551.430000", "142552.920000", "142554.410000", "142555.900000", "142557.390000", "142558.880000", "142600.370000", "142601.860000", "142603.350000", "142604.840000", "142606.330000", "142607.820000", "142609.310000", "142610.800000", "142612.290000", "142613.780000", "142615.270000", "142616.760000", "142618.250000", "142619.740000", "142621.230000", "142622.720000", "142624.210000", "142625.700000", "142627.190000", "142628.680000", "142630.170000", "142631.660000", "142633.150000", "142634.640000", "142636.130000", "142637.620000", "142639.110000", "142640.600000", "142642.090000", "142643.580000", "142645.070000", "142646.560000", "142648.050000", "142649.540000", "142651.030000", "142652.520000", "142654.010000", "142655.500000", "142656.990000", "142658.480000", "142659.970000", "142701.460000", "142702.950000", "142704.440000", "142705.930000", "142707.420000", "142708.910000", "142710.400000", "142711.890000", "142713.380000", "142714.870000", "142716.360000", "142717.850000", "142719.340000", "142720.830000", "142722.320000", "142723.810000", "142725.300000", "142726.790000", "142728.280000", "142729.770000", "142731.260000", "142732.750000", "142734.240000", "142735.730000", "142737.220000", "142738.710000", "142740.200000", "142741.690000", "142743.180000", "142744.670000", "142746.160000", "142747.650000", "142749.140000", "142750.630000", "142752.120000", "142753.610000", "142755.100000", "142756.590000", "142758.080000", "142759.570000", "142801.060000", "142802.550000", "142804.040000", "142805.530000", "142807.020000", "142808.510000", "142810.000000", "142811.490000", "142812.980000", "142814.470000", "142815.960000", "142817.450000", "142818.940000", "142820.430000", "142821.920000", "142823.410000", "142824.900000", "142826.390000", "142827.880000", "142829.370000", "142830.860000", "142832.350000", "142833.840000", "142835.330000", "142836.820000", "142838.310000", "142839.800000", "142841.290000", "142842.780000", "142844.270000", "142845.760000", "142847.250000", "142848.740000", "142850.230000", "142851.720000", "142853.210000", "142854.700000", "142856.190000", "142857.680000", "142859.170000", "142900.660000", "142902.150000", "142903.640000", "142905.130000", "142906.620000", "142908.110000", "142909.600000", "142911.090000", "142912.580000", "142914.070000", "142915.560000", "142917.050000", "142918.540000", "142920.030000", "142921.520000", "142923.010000", "142924.500000", "142925.990000", "142927.480000", "142928.970000", "142930.460000", "142931.950000", "142933.440000", "142934.930000", "142936.420000", "142937.910000", "142939.400000", "142940.890000", "142942.380000", "142943.870000", "142945.360000", "142946.850000", "142948.340000", "142949.830000", "142951.320000", "142952.810000", "142954.300000", "142955.790000", "142957.280000", "142958.770000", "143000.260000", "143001.750000", "143003.240000", "143004.730000", "143006.220000", "143007.710000", "143009.200000", "143010.690000", "143012.180000", "143013.670000", "143015.160000", "143016.650000", "143018.140000", "143019.630000", "143021.120000", "143022.610000", "143024.100000", "143025.590000", "143027.080000", "143028.570000", "143030.060000", "143031.550000", "143033.040000", "143034.530000", "143036.020000", "143037.510000", "143039.000000", "143040.490000", "143041.980000", "143043.470000", "143044.960000", "143046.450000", "143047.940000", "143049.430000", "143050.920000", "143052.410000", "143053.900000", "143055.390000", "143056.880000", "143058.370000", "143059.860000", "143101.350000", "143102.840000", "143104.330000", "143105.820000", "143107.310000", "143108.800000", "143110.290000", "143111.780000", "143113.270000", "143114.760000", "143116.250000", "143117.740000", "143119.230000", "143120.720000", "143122.210000", "143123.700000", "143125.190000", "143126.680000", "143128.170000", "143129.660000", "143131.150000", "143132.640000", "143134.130000", "143135.620000", "143137.110000", "143138.600000", "143140.090000", "143141.580000", "143143.070000", "143144.560000", "143146.050000", "143147.540000", "143149.030000", "143150.520000", "143152.010000", "143153.500000", "143154.990000", "143156.480000", "143157.970000", "143159.460000", "143200.950000", "143202.440000", "143203.930000", "143205.420000", "143206.910000", "143208.400000", "143209.890000", "143211.380000", "143212.870000", "143214.360000", "143215.850000", "143217.340000", "143218.830000", "143220.320000", "143221.810000", "143223.300000", "143224.790000", "143226.280000", "143227.770000", "143229.260000", "143230.750000", "143232.240000", "143233.730000", "143235.220000", "143236.710000", "143238.200000", "143239.690000", "143241.180000", "143242.670000", "143244.160000", "143245.650000", "143247.140000", "143248.630000", "143250.120000", "143251.610000", "143253.100000", "143254.590000", "143256.080000", "143257.570000", "143259.060000", "143300.550000", "143302.040000", "143303.530000", "143305.020000", "143306.510000", "143308.000000", "143309.490000", "143310.980000", "143312.470000", "143313.960000", "143315.450000", "143316.940000", "143318.430000", "143319.920000", "143321.410000", "143322.900000", "143324.390000", "143325.880000", "143327.370000", "143328.860000", "143330.350000", "143331.840000", "143333.330000", "143334.820000", "143336.310000", "143337.800000", "143339.290000", "143340.780000", "143342.270000", "143343.760000", "143345.250000", "143346.740000", "143348.230000", "143349.720000", "143351.210000", "143352.700000", "143354.190000", "143355.680000", "143357.170000", "143358.660000", "143400.150000", "143401.640000", "143403.130000", "143404.620000", "143406.110000", "143407.600000", "143409.090000", "143410.580000", "143412.070000", "143413.560000", "143415.050000", "143416.540000", "143418.030000", "143419.520000", "143421.010000", "143422.500000", "143423.990000", "143425.480000", "143426.970000", "143428.460000", "143429.950000", "143431.440000", "143432.930000", "143434.420000", "143435.910000", "143437.400000", "143438.890000", "143440.380000", "143441.870000", "143443.360000", "143444.850000", "143446.340000", "143447.830000", "143449.320000", "143450.810000", "143452.300000", "143453.790000"],
      "ContentTime": ["142518.266000", "142518.270000", "142518.273000", "142518.277000", "142518.280000", "142518.284000", "142518.287000", "142518.291000", "142518.298000", "142518.302000", "142518.305000", "142518.308000", "142518.312000", "142518.315000", "142518.318000", "142518.322000", "142518.325000", "142518.329000", "142518.332000", "142518.336000", "142518.339000", "142518.342000", "142518.346000", "142518.349000", "142518.353000", "142518.356000", "142518.359000", "142518.363000", "142518.366000", "142518.370000", "142518.373000", "142518.376000", "142518.385000", "142518.388000", "142518.392000", "142518.395000", "142518.398000", "142518.402000", "142538.218000", "142538.222000", "142538.226000", "142538.229000", "142538.232000", "142538.236000", "142538.239000", "142538.242000", "142538.246000", "142538.249000", "142538.253000", "142538.256000", "142538.259000", "142538.263000", "142538.266000", "142538.271000", "142538.274000", "142538.278000", "142538.281000", "142538.285000", "142558.218000", "142558.222000", "142558.225000", "142558.229000", "142558.232000", "142558.236000", "142558.239000", "142558.243000", "142558.247000", "142558.251000", "142558.254000", "142558.258000", "142558.262000", "142558.266000", "142558.269000", "142558.273000", "142558.276000", "142558.280000", "142558.283000", "142558.287000", "142618.218000", "142618.222000", "142618.225000", "142618.229000", "142618.232000", "142618.236000", "142618.239000", "142618.242000", "142618.246000", "142618.249000", "142618.253000", "142618.256000", "142618.259000", "142618.263000", "142618.266000", "142618.270000", "142618.273000", "142618.277000", "142618.280000", "142618.283000", "142618.287000", "142658.218000", "142658.222000", "142658.226000", "142658.229000", "142658.232000", "142658.236000", "142658.239000", "142658.243000", "142658.246000", "142658.249000", "142658.253000", "142658.256000", "142658.260000", "142658.263000", "142658.266000", "142658.270000", "142658.273000", "142658.277000", "142658.280000", "142658.284000", "142658.287000", "142658.291000", "142658.294000", "142658.298000", "142658.301000", "142658.305000", "142658.308000", "142658.312000", "142738.218000", "142738.222000", "142738.226000", "142738.229000", "142738.232000", "142738.236000", "142738.239000", "142738.243000", "142738.246000", "142738.250000", "142738.253000", "142738.256000", "142738.260000", "142738.263000", "142738.267000", "142738.270000", "142738.273000", "142738.277000", "142738.280000", "142738.284000", "142738.287000", "142738.291000", "142738.294000", "142738.297000", "142738.301000", "142738.304000", "142738.308000", "142818.219000", "142818.222000", "142818.226000", "142818.229000", "142818.233000", "142818.243000", "142818.246000", "142818.250000", "142818.253000", "142818.257000", "142818.260000", "142818.263000", "142818.267000", "142818.270000", "142818.274000", "142818.277000", "142818.280000", "142818.284000", "142818.287000", "142818.291000", "142818.294000", "142818.297000", "142818.301000", "142818.320000", "142818.323000", "142818.327000", "142818.330000", "142858.218000", "142858.222000", "142858.226000", "142858.229000", "142858.233000", "142858.241000", "142858.244000", "142858.248000", "142858.251000", "142858.254000", "142858.258000", "142858.261000", "142858.265000", "142858.268000", "142858.271000", "142858.275000", "142858.278000", "142858.282000", "142858.285000", "142858.289000", "142858.292000", "142858.296000", "142858.299000", "142858.302000", "142858.306000", "142858.309000", "142858.313000", "142938.218000", "142938.222000", "142938.226000", "142938.229000", "142938.233000", "142938.236000", "142938.239000", "142938.243000", "142938.246000", "142938.250000", "142938.253000", "142938.256000", "142938.260000", "142938.263000", "142938.267000", "142938.270000", "142938.273000", "142938.278000", "142938.281000", "142938.285000", "142938.288000", "142938.292000", "142938.296000", "142938.300000", "142938.304000", "142938.307000", "143018.218000", "143018.222000", "143018.225000", "143018.229000", "143018.232000", "143018.236000", "143018.239000", "143018.243000", "143018.246000", "143018.249000", "143018.253000", "143018.256000", "143018.260000", "143018.263000", "143018.267000", "143018.270000", "143018.274000", "143018.277000", "143018.280000", "143018.284000", "143018.287000", "143018.291000", "143018.294000", "143018.298000", "143018.301000", "143018.304000", "143018.308000", "143058.219000", "143058.222000", "143058.226000", "143058.229000", "143058.233000", "143058.249000", "143058.253000", "143058.256000", "143058.259000", "143058.263000", "143058.266000", "143058.270000", "143058.273000", "143058.277000", "143058.280000", "143058.283000", "143058.287000", "143058.290000", "143058.294000", "143058.297000", "143058.300000", "143058.304000", "143058.307000", "143058.311000", "143058.314000", "143058.317000", "143058.321000", "143138.218000", "143138.227000", "143138.230000", "143138.234000", "143138.237000", "143138.240000", "143138.244000", "143138.247000", "143138.251000", "143138.254000", "143138.257000", "143138.261000", "143138.264000", "143138.268000", "143138.271000", "143138.275000", "143138.278000", "143138.281000", "143138.285000", "143138.288000", "143138.292000", "143138.295000", "143138.298000", "143138.302000", "143138.305000", "143138.309000", "143138.312000", "143218.218000", "143218.222000", "143218.226000", "143218.229000", "143218.233000", "143218.236000", "143218.239000", "143218.243000", "143218.246000", "143218.250000", "143218.253000", "143218.257000", "143218.260000", "143218.264000", "143218.267000", "143218.270000", "143218.274000", "143218.277000", "143218.281000", "143218.284000", "143218.288000", "143218.291000", "143218.295000", "143218.298000", "143218.301000", "143218.305000", "143218.308000", "143258.219000", "143258.230000", "143258.233000", "143258.237000", "143258.240000", "143258.244000", "143258.247000", "143258.250000", "143258.254000", "143258.257000", "143258.261000", "143258.264000", "143258.268000", "143258.271000", "143258.275000", "143258.278000", "143258.281000", "143258.285000", "143258.288000", "143258.292000", "143258.295000", "143258.299000", "143258.302000", "143258.305000", "143258.325000", "143258.329000", "143258.332000", "143338.219000", "143338.222000", "143338.226000", "143338.229000", "143338.233000", "143338.236000", "143338.239000", "143338.243000", "143338.246000", "143338.250000", "143338.253000", "143338.256000", "143338.260000", "143338.263000", "143338.267000", "143338.270000", "143338.273000", "143338.277000", "143338.280000", "143338.284000", "143338.287000", "143338.291000", "143338.294000", "143338.297000", "143338.301000", "143338.304000", "143338.308000", "143418.218000", "143418.222000", "143418.226000", "143418.229000", "143418.232000", "143418.236000", "143418.239000", "143418.243000", "143418.246000", "143418.250000", "143418.253000", "143418.256000", "143418.260000", "143418.263000", "143418.266000", "143418.271000", "143418.275000", "143418.278000", "143418.281000", "143418.285000", "143418.288000", "143418.292000", "143418.295000", "143418.299000", "143418.302000", "143418.306000", "143455.983000", "143455.987000", "143455.990000", "143455.994000", "143455.997000", "143456.002000", "143456.005000", "143456.009000", "143456.012000", "143456.015000", "143456.019000", "143456.022000", "143456.026000", "143456.029000", "143456.032000", "143456.036000", "143456.040000", "143456.043000", "143456.046000", "143456.050000", "143456.053000", "143456.057000", "143456.060000", "143456.064000", "143456.067000", "143456.071000"],
