{
  "AcquisitionMatrixPE": 104,
  "AcquisitionNumber": 1,
  "AcquisitionTime": "13:58:8.862500",
  "BandwidthPerPixelPhaseEncode": 17.17,
  "BaseResolution": 104,
  "BodyPartExamined": "BRAIN",
  "CoilString": "HC1-7;NC1_2",
  "ConsistencyInfo": "N4_VE11C_LATEST_20160120",
  "ConversionSoftware": "dcm2niix",
  "ConversionSoftwareVersion": "v1.0.20190902",
  "DerivedVendorReportedEchoSpacing": 0.000560011,
  "DeviceSerialNumber": "167006",
  "DwellTime": 2.1e-06,
  "EchoTime": 0.037,
  "EchoTrainLength": 104,
  "EffectiveEchoSpacing": 0.000560011,
  "FlipAngle": 52,
  "HeudiconvVersion": "0.10.0",
  "ImageComments": "Unaliased_MB4_PE3_LB",
  "ImageOrientationPatientDICOM": [0.999546, 0.00604027, 0.0295167, 0.00994419, 0.858653, -0.512461],
  "ImageType": [
    "ORIGINAL",
    "PRIMARY",
    "M",
    "MB",
    "ND",
    "MOSAIC"
],
  "ImagingFrequency": 123.259,
  "InPlanePhaseEncodingDirectionDICOM": "COL",
  "InstitutionAddress": "Chemin_Queen-Mary_4565_Montreal_District_CA_H3W_1W5",
  "InstitutionName": "IUGM",
  "InstitutionalDepartmentName": "Department",
  "MRAcquisitionType": "2D",
  "MagneticFieldStrength": 3,
  "Manufacturer": "Siemens",
  "ManufacturersModelName": "Prisma_fit",
  "Modality": "MR",
  "MultibandAccelerationFactor": 4,
  "PartialFourier": 1,
  "PatientPosition": "HFS",
  "PercentPhaseFOV": 100,
  "PhaseEncodingDirection": "j",
  "PhaseEncodingSteps": 104,
  "PhaseResolution": 1,
  "PixelBandwidth": 2290,
  "ProcedureStepDescription": "games_mario",
  "ProtocolName": "func_task-mario_run-01",
  "PulseSequenceDetails": "%CustomerSeq%_cmrr_mbep2d_bold",
  "ReceiveCoilActiveElements": "HC1-7;NC1,2",
  "ReceiveCoilName": "HeadNeck_64",
  "ReconMatrixPE": 104,
  "RepetitionTime": 1.49,
  "SAR": 0.0428713,
  "ScanOptions": "FS",
  "ScanningSequence": "EP",
  "SequenceName": "epfid2d1_104",
  "SequenceVariant": "SK_SS",
  "SeriesDescription": "func_task-mario_run-01",
  "SeriesNumber": 16,
  "ShimSetting": [612, -7173, -8852, 273, 31, -149, -44, 15],
  "SliceThickness": 2,
  "SliceTiming": [0, 0.7825, 0.0975, 0.88, 0.195, 0.98, 0.2925, 1.0775, 0.39, 1.175, 0.49, 1.2725, 0.5875, 1.37, 0.685, 0, 0.7825, 0.0975, 0.88, 0.195, 0.98, 0.2925, 1.0775, 0.39, 1.175, 0.49, 1.2725, 0.5875, 1.37, 0.685, 0, 0.7825, 0.0975, 0.88, 0.195, 0.98, 0.2925, 1.0775, 0.39, 1.175, 0.49, 1.2725, 0.5875, 1.37, 0.685, 0, 0.7825, 0.0975, 0.88, 0.195, 0.98, 0.2925, 1.0775, 0.39, 1.175, 0.49, 1.2725, 0.5875, 1.37, 0.685],
  "SoftwareVersions": "syngo_MR_E11",
  "SpacingBetweenSlices": 2,
  "StationName": "MRC35049",
  "TaskName": "mario",
  "TotalReadoutTime": 0.0576811,
  "TxRefAmp": 247.557,
  "WipMemBlock": "d816a352-77db-424f-8e60-c4996000bc30||Sequence: R016 ve11c/master r/e634e98; Dec 19 2017 11:00:25 by eja",
  "dcmmeta_affine": [
    [-1.9990921020507812, 0.019888386130332947, 0.05688001960515976, 104.68455505371094],
    [-0.012080531567335129, 1.7173055410385132, -1.0250442028045654, -50.75791549682617],
    [0.05903342738747597, 1.0249223709106445, 1.7164057493209839, -90.17686462402344],
    [0.0, 0.0, 0.0, 1.0]
],
  "dcmmeta_reorient_transform": [
    [0.0, -1.0, 0.0, 103.0],
    [1.0, 0.0, 0.0, 0.0],
    [0.0, 0.0, 1.0, 0.0],
    [0.0, 0.0, 0.0, 1.0]
],
  "dcmmeta_shape": [104, 104, 60, 473],
  "dcmmeta_slice_dim": 2,
  "dcmmeta_version": 0.6,
  "global": {
    "const": {
      "AcquisitionMatrix": [104, 0, 0, 104],
      "AngioFlag": "N",
      "BitsAllocated": 16,
      "BitsStored": 16,
      "BodyPartExamined": "BRAIN",
      "Columns": 832,
      "EchoNumbers": 1,
      "EchoTime": 37.0,
      "EchoTrainLength": 104,
      "FlipAngle": 52.0,
      "HighBit": 15,
      "ImageOrientationPatient": [0.99954603638329, 0.00604026601387, 0.02951671284108, 0.00994419344185, 0.85865279339493, -0.5124612116169],
      "ImagePositionPatient": [-841.64194398368, -755.62110904018, 366.9737367083],
      "ImageType": [
        "ORIGINAL",
        "PRIMARY",
        "M",
        "MB",
        "ND",
        "MOSAIC"
],
      "ImagedNucleus": "1H",
      "ImagingFrequency": 123.2589,
      "InPlanePhaseEncodingDirection": "COL",
      "MRAcquisitionType": "2D",
      "MagneticFieldStrength": 3.0,
      "Manufacturer": "SIEMENS",
      "ManufacturerModelName": "Prisma_fit",
      "Modality": "MR",
      "NumberOfAverages": 1.0,
      "NumberOfPhaseEncodingSteps": 104,
      "PercentPhaseFieldOfView": 100.0,
      "PercentSampling": 100.0,
      "PerformedProcedureStepStartTime": "120145.652000",
      "PhotometricInterpretation": "MONOCHROME2",
      "PixelBandwidth": 2290.0,
      "PixelRepresentation": 0,
      "PixelSpacing": [2.0, 2.0],
      "ProtocolName": "func_task-mario_run-01",
      "RepetitionTime": 1490.0,
      "Rows": 832,
      "SAR": 0.04287127767662,
      "SamplesPerPixel": 1,
      "ScanOptions": "FS",
      "ScanningSequence": "EP",
      "SequenceName": "epfid2d1_104",
      "SequenceVariant": [
        "SK",
        "SS"
],
      "SeriesDescription": "func_task-mario_run-01",
      "SeriesNumber": 16,
      "SeriesTime": "135916.865000",
      "SliceLocation": -48.398270538501,
      "SliceThickness": 2.0,
      "SmallestImagePixelValue": 0,
      "SoftwareVersions": "syngo MR E11",
      "SpacingBetweenSlices": 1.9999999304052,
      "SpecificCharacterSet": "ISO_IR 100",
      "StudyID": "1",
      "StudyTime": "120145.575000",
      "TransmitCoilName": "Body",
      "VariableFlipAngleFlag": "N",
      "WindowCenterWidthExplanation": "Algo1",
      "dBdt": 0.0},
    "slices": {}
  },
  "time": {
    "samples": {
      "AcquisitionNumber": [1, 2, 3, 4, 5, 6, 7, 8, 9, 10, 11, 12, 13, 14, 15, 16, 17, 18, 19, 20, 21, 22, 23, 24, 25, 26, 27, 28, 29, 30, 31, 32, 33, 34, 35, 36, 37, 38, 39, 40, 41, 42, 43, 44, 45, 46, 47, 48, 49, 50, 51, 52, 53, 54, 55, 56, 57, 58, 59, 60, 61, 62, 63, 64, 65, 66, 67, 68, 69, 70, 71, 72, 73, 74, 75, 76, 77, 78, 79, 80, 81, 82, 83, 84, 85, 86, 87, 88, 89, 90, 91, 92, 93, 94, 95, 96, 97, 98, 99, 100, 101, 102, 103, 104, 105, 106, 107, 108, 109, 110, 111, 112, 113, 114, 115, 116, 117, 118, 119, 120, 121, 122, 123, 124, 125, 126, 127, 128, 129, 130, 131, 132, 133, 134, 135, 136, 137, 138, 139, 140, 141, 142, 143, 144, 145, 146, 147, 148, 149, 150, 151, 152, 153, 154, 155, 156, 157, 158, 159, 160, 161, 162, 163, 164, 165, 166, 167, 168, 169, 170, 171, 172, 173, 174, 175, 176, 177, 178, 179, 180, 181, 182, 183, 184, 185, 186, 187, 188, 189, 190, 191, 192, 193, 194, 195, 196, 197, 198, 199, 200, 201, 202, 203, 204, 205, 206, 207, 208, 209, 210, 211, 212, 213, 214, 215, 216, 217, 218, 219, 220, 221, 222, 223, 224, 225, 226, 227, 228, 229, 230, 231, 232, 233, 234, 235, 236, 237, 238, 239, 240, 241, 242, 243, 244, 245, 246, 247, 248, 249, 250, 251, 252, 253, 254, 255, 256, 257, 258, 259, 260, 261, 262, 263, 264, 265, 266, 267, 268, 269, 270, 271, 272, 273, 274, 275, 276, 277, 278, 279, 280, 281, 282, 283, 284, 285, 286, 287, 288, 289, 290, 291, 292, 293, 294, 295, 296, 297, 298, 299, 300, 301, 302, 303, 304, 305, 306, 307, 308, 309, 310, 311, 312, 313, 314, 315, 316, 317, 318, 319, 320, 321, 322, 323, 324, 325, 326, 327, 328, 329, 330, 331, 332, 333, 334, 335, 336, 337, 338, 339, 340, 341, 342, 343, 344, 345, 346, 347, 348, 349, 350, 351, 352, 353, 354, 355, 356, 357, 358, 359, 360, 361, 362, 363, 364, 365, 366, 367, 368, 369, 370, 371, 372, 373, 374, 375, 376, 377, 378, 379, 380, 381, 382, 383, 384, 385, 386, 387, 388, 389, 390, 391, 392, 393, 394, 395, 396, 397, 398, 399, 400, 401, 402, 403, 404, 405, 406, 407, 408, 409, 410, 411, 412, 413, 414, 415, 416, 417, 418, 419, 420, 421, 422, 423, 424, 425, 426, 427, 428, 429, 430, 431, 432, 433, 434, 435, 436, 437, 438, 439, 440, 441, 442, 443, 444, 445, 446, 447, 448, 449, 450, 451, 452, 453, 454, 455, 456, 457, 458, 459, 460, 461, 462, 463, 464, 465, 466, 467, 468, 469, 470, 471, 472, 473],
      "AcquisitionTime": ["135808.862500", "135810.352500", "135811.842500", "135813.332500", "135814.822500", "135816.312500", "135817.802500", "135819.292500", "135820.782500", "135822.272500", "135823.762500", "135825.252500", "135826.742500", "135828.232500", "135829.722500", "135831.212500", "135832.702500", "135834.192500", "135835.682500", "135837.172500", "135838.662500", "135840.152500", "135841.642500", "135843.132500", "135844.622500", "135846.112500", "135847.602500", "135849.092500", "135850.582500", "135852.072500", "135853.562500", "135855.052500", "135856.542500", "135858.032500", "135859.522500", "135901.012500", "135902.502500", "135903.992500", "135905.482500", "135906.972500", "135908.462500", "135909.952500", "135911.442500", "135912.932500", "135914.422500", "135915.912500", "135917.402500", "135918.892500", "135920.382500", "135921.872500", "135923.362500", "135924.852500", "135926.342500", "135927.832500", "135929.322500", "135930.812500", "135932.302500", "135933.792500", "135935.282500", "135936.772500", "135938.262500", "135939.752500", "135941.242500", "135942.732500", "135944.222500", "135945.712500", "135947.202500", "135948.692500", "135950.182500", "135951.672500", "135953.162500", "135954.652500", "135956.142500", "135957.632500", "135959.122500", "140000.612500", "140002.102500", "140003.592500", "140005.082500", "140006.572500", "140008.062500", "140009.552500", "140011.042500", "140012.532500", "140014.022500", "140015.512500", "140017.002500", "140018.492500", "140019.982500", "140021.472500", "140022.962500", "140024.452500", "140025.942500", "140027.432500", "140028.922500", "140030.412500", "140031.902500", "140033.392500", "140034.882500", "140036.372500", "140037.862500", "140039.352500", "140040.842500", "140042.332500", "140043.822500", "140045.312500", "140046.802500", "140048.292500", "140049.782500", "140051.272500", "140052.762500", "140054.252500", "140055.742500", "140057.232500", "140058.722500", "140100.212500", "140101.702500", "140103.192500", "140104.682500", "140106.172500", "140107.662500", "140109.152500", "140110.642500", "140112.132500", "140113.622500", "140115.112500", "140116.602500", "140118.092500", "140119.582500", "140121.072500", "140122.562500", "140124.052500", "140125.542500", "140127.032500", "140128.522500", "140130.012500", "140131.502500", "140132.992500", "140134.482500", "140135.972500", "140137.462500", "140138.952500", "140140.442500", "140141.932500", "140143.422500", "140144.912500", "140146.402500", "140147.892500", "140149.382500", "140150.872500", "140152.362500", "140153.852500", "140155.342500", "140156.832500", "140158.322500", "140159.812500", "140201.302500", "140202.792500", "140204.282500", "140205.772500", "140207.262500", "140208.752500", "140210.242500", "140211.732500", "140213.222500", "140214.712500", "140216.202500", "140217.692500", "140219.182500", "140220.672500", "140222.162500", "140223.652500", "140225.142500", "140226.632500", "140228.122500", "140229.612500", "140231.102500", "140232.592500", "140234.082500", "140235.572500", "140237.062500", "140238.552500", "140240.042500", "140241.532500", "140243.022500", "140244.512500", "140246.002500", "140247.492500", "140248.982500", "140250.472500", "140251.962500", "140253.452500", "140254.942500", "140256.432500", "140257.922500", "140259.412500", "140300.902500", "140302.392500", "140303.882500", "140305.372500", "140306.862500", "140308.352500", "140309.842500", "140311.332500", "140312.822500", "140314.312500", "140315.802500", "140317.292500", "140318.782500", "140320.272500", "140321.762500", "140323.252500", "140324.742500", "140326.232500", "140327.722500", "140329.212500", "140330.702500", "140332.192500", "140333.682500", "140335.172500", "140336.662500", "140338.152500", "140339.642500", "140341.132500", "140342.622500", "140344.112500", "140345.602500", "140347.092500", "140348.582500", "140350.072500", "140351.562500", "140353.052500", "140354.542500", "140356.032500", "140357.522500", "140359.012500", "140400.502500", "140401.992500", "140403.482500", "140404.972500", "140406.462500", "140407.952500", "140409.442500", "140410.932500", "140412.422500", "140413.912500", "140415.402500", "140416.892500", "140418.382500", "140419.872500", "140421.362500", "140422.852500", "140424.342500", "140425.832500", "140427.322500", "140428.812500", "140430.302500", "140431.792500", "140433.282500", "140434.772500", "140436.262500", "140437.752500", "140439.242500", "140440.732500", "140442.222500", "140443.712500", "140445.202500", "140446.692500", "140448.182500", "140449.672500", "140451.162500", "140452.652500", "140454.142500", "140455.632500", "140457.122500", "140458.612500", "140500.102500", "140501.592500", "140503.082500", "140504.572500", "140506.062500", "140507.552500", "140509.042500", "140510.532500", "140512.022500", "140513.512500", "140515.002500", "140516.492500", "140517.982500", "140519.472500", "140520.962500", "140522.452500", "140523.942500", "140525.432500", "140526.922500", "140528.412500", "140529.902500", "140531.392500", "140532.882500", "140534.372500", "140535.862500", "140537.352500", "140538.842500", "140540.332500", "140541.822500", "140543.312500", "140544.802500", "140546.292500", "140547.782500", "140549.272500", "140550.762500", "140552.252500", "140553.742500", "140555.232500", "140556.722500", "140558.212500", "140559.702500", "140601.192500", "140602.682500", "140604.172500", "140605.662500", "140607.152500", "140608.642500", "140610.132500", "140611.622500", "140613.112500", "140614.602500", "140616.092500", "140617.582500", "140619.072500", "140620.562500", "140622.052500", "140623.542500", "140625.032500", "140626.522500", "140628.012500", "140629.502500", "140630.992500", "140632.482500", "140633.972500", "140635.462500", "140636.952500", "140638.442500", "140639.932500", "140641.422500", "140642.912500", "140644.402500", "140645.892500", "140647.382500", "140648.872500", "140650.362500", "140651.852500", "140653.342500", "140654.832500", "140656.322500", "140657.812500", "140659.302500", "140700.792500", "140702.282500", "140703.772500", "140705.262500", "140706.752500", "140708.242500", "140709.732500", "140711.222500", "140712.712500", "140714.202500", "140715.692500", "140717.182500", "140718.672500", "140720.162500", "140721.652500", "140723.142500", "140724.632500", "140726.122500", "140727.612500", "140729.102500", "140730.592500", "140732.082500", "140733.572500", "140735.062500", "140736.552500", "140738.042500", "140739.532500", "140741.022500", "140742.512500", "140744.002500", "140745.492500", "140746.982500", "140748.472500", "140749.962500", "140751.452500", "140752.942500", "140754.432500", "140755.922500", "140757.412500", "140758.902500", "140800.392500", "140801.882500", "140803.372500", "140804.862500", "140806.352500", "140807.842500", "140809.332500", "140810.822500", "140812.312500", "140813.802500", "140815.292500", "140816.782500", "140818.272500", "140819.762500", "140821.252500", "140822.742500", "140824.232500", "140825.722500", "140827.212500", "140828.702500", "140830.192500", "140831.682500", "140833.172500", "140834.662500", "140836.152500", "140837.642500", "140839.132500", "140840.622500", "140842.112500", "140843.602500", "140845.092500", "140846.582500", "140848.072500", "140849.562500", "140851.052500", "140852.542500", "140854.032500", "140855.522500", "140857.012500", "140858.502500", "140859.992500", "140901.482500", "140902.972500", "140904.462500", "140905.952500", "140907.442500", "140908.932500", "140910.422500", "140911.912500", "140913.402500", "140914.892500", "140916.382500", "140917.872500", "140919.362500", "140920.852500", "140922.342500", "140923.832500", "140925.322500", "140926.812500", "140928.302500", "140929.792500", "140931.282500", "140932.772500", "140934.262500", "140935.752500", "140937.242500", "140938.732500", "140940.222500", "140941.712500", "140943.202500", "140944.692500", "140946.182500", "140947.672500", "140949.162500", "140950.652500", "140952.142500"],
      "ContentTime": ["135916.869000", "135916.872000", "135916.876000", "135916.879000", "135916.883000", "135916.886000", "135916.890000", "135916.893000", "135916.896000", "135916.900000", "135916.903000", "135916.907000", "135916.910000", "135916.913000", "135916.917000", "135936.826000", "135936.830000", "135936.833000", "135936.837000", "135936.840000", "135936.844000", "135936.847000", "135936.851000", "135936.854000", "135936.857000", "135936.861000", "135936.865000", "135936.868000", "135936.871000", "135936.875000", "135936.878000", "135936.882000", "135936.893000", "135936.896000", "135936.900000", "135956.827000", "135956.831000", "135956.834000", "135956.855000", "135956.858000", "135956.862000", "135956.865000", "135956.868000", "135956.872000", "135956.875000", "135956.879000", "135956.882000", "135956.885000", "135956.889000", "135956.892000", "135956.896000", "135956.899000", "135956.902000", "135956.906000", "135956.909000", "140016.826000", "140016.830000", "140016.833000", "140016.837000", "140016.840000", "140016.844000", "140016.847000", "140016.850000", "140016.854000", "140016.857000", "140016.861000", "140016.864000", "140016.867000", "140016.871000", "140016.874000", "140016.878000", "140016.881000", "140016.884000", "140016.888000", "140016.891000", "140016.895000", "140036.826000", "140036.830000", "140036.834000", "140036.837000", "140036.840000", "140036.844000", "140036.847000", "140036.851000", "140036.854000", "140036.857000", "140036.861000", "140036.864000", "140036.868000", "140036.871000", "140036.874000", "140036.878000", "140036.881000", "140036.885000", "140036.888000", "140036.892000", "140116.826000", "140116.830000", "140116.834000", "140116.837000", "140116.845000", "140116.849000", "140116.853000", "140116.856000", "140116.859000", "140116.863000", "140116.867000", "140116.870000", "140116.874000", "140116.878000", "140116.881000", "140116.885000", "140116.888000", "140116.892000", "140116.895000", "140116.899000", "140116.903000", "140116.906000", "140116.909000", "140116.913000", "140116.917000", "140116.920000", "140116.927000", "140116.930000", "140116.934000", "140156.826000", "140156.830000", "140156.833000", "140156.837000", "140156.840000", "140156.844000", "140156.847000", "140156.851000", "140156.854000", "140156.858000", "140156.861000", "140156.864000", "140156.868000", "140156.871000", "140156.875000", "140156.878000", "140156.882000", "140156.885000", "140156.888000", "140156.911000", "140156.914000", "140156.922000", "140156.925000", "140156.929000", "140156.932000", "140156.936000", "140156.939000", "140236.826000", "140236.830000", "140236.834000", "140236.845000", "140236.849000", "140236.852000", "140236.856000", "140236.859000", "140236.863000", "140236.866000", "140236.869000", "140236.873000", "140236.876000", "140236.880000", "140236.883000", "140236.887000", "140236.890000", "140236.894000", "140236.897000", "140236.900000", "140236.904000", "140236.907000", "140236.911000", "140236.914000", "140236.918000", "140236.921000", "140236.925000", "140316.827000", "140316.830000", "140316.834000", "140316.837000", "140316.841000", "140316.844000", "140316.848000", "140316.851000", "140316.854000", "140316.858000", "140316.861000", "140316.865000", "140316.868000", "140316.872000", "140316.875000", "140316.878000", "140316.882000", "140316.885000", "140316.889000", "140316.892000", "140316.896000", "140316.899000", "140316.902000", "140316.906000", "140316.909000", "140316.913000", "140316.916000", "140356.826000", "140356.830000", "140356.834000", "140356.837000", "140356.841000", "140356.844000", "140356.847000", "140356.851000", "140356.854000", "140356.858000", "140356.861000", "140356.865000", "140356.868000", "140356.872000", "140356.875000", "140356.878000", "140356.882000", "140356.885000", "140356.889000", "140356.892000", "140356.896000", "140356.899000", "140356.903000", "140356.906000", "140356.910000", "140356.913000", "140356.917000", "140436.841000", "140436.845000", "140436.848000", "140436.852000", "140436.855000", "140436.859000", "140436.862000", "140436.866000", "140436.869000", "140436.873000", "140436.876000", "140436.880000", "140436.883000", "140436.886000", "140436.890000", "140436.893000", "140436.897000", "140436.900000", "140436.904000", "140436.907000", "140436.911000", "140436.914000", "140436.918000", "140436.922000", "140436.926000", "140436.930000", "140516.826000", "140516.830000", "140516.834000", "140516.837000", "140516.841000", "140516.844000", "140516.848000", "140516.851000", "140516.855000", "140516.858000", "140516.862000", "140516.865000", "140516.868000", "140516.872000", "140516.875000", "140516.879000", "140516.882000", "140516.886000", "140516.889000", "140516.893000", "140516.896000", "140516.900000", "140516.903000", "140516.907000", "140516.910000", "140516.914000", "140516.917000", "140556.826000", "140556.830000", "140556.834000", "140556.837000", "140556.841000", "140556.844000", "140556.847000", "140556.859000", "140556.862000", "140556.866000", "140556.869000", "140556.872000", "140556.876000", "140556.879000", "140556.883000", "140556.886000", "140556.890000", "140556.893000", "140556.896000", "140556.900000", "140556.903000", "140556.907000", "140556.910000", "140556.914000", "140556.917000", "140556.921000", "140556.924000", "140636.826000", "140636.830000", "140636.834000", "140636.837000", "140636.841000", "140636.844000", "140636.847000", "140636.851000", "140636.854000", "140636.858000", "140636.861000", "140636.865000", "140636.868000", "140636.883000", "140636.887000", "140636.890000", "140636.893000", "140636.897000", "140636.900000", "140636.904000", "140636.907000", "140636.911000", "140636.914000", "140636.918000", "140636.921000", "140636.925000", "140636.928000", "140716.826000", "140716.830000", "140716.834000", "140716.837000", "140716.841000", "140716.844000", "140716.848000", "140716.851000", "140716.855000", "140716.858000", "140716.861000", "140716.865000", "140716.868000", "140716.872000", "140716.875000", "140716.879000", "140716.882000", "140716.886000", "140716.889000", "140716.893000", "140716.896000", "140716.904000", "140716.907000", "140716.911000", "140716.914000", "140716.919000", "140716.922000", "140756.826000", "140756.836000", "140756.839000", "140756.843000", "140756.847000", "140756.850000", "140756.853000", "140756.858000", "140756.862000", "140756.865000", "140756.869000", "140756.872000", "140756.876000", "140756.886000", "140756.889000", "140756.893000", "140756.896000", "140756.900000", "140756.903000", "140756.907000", "140756.910000", "140756.922000", "140756.925000", "140756.929000", "140756.932000", "140756.936000", "140756.939000", "140816.826000", "140816.835000", "140816.838000", "140816.842000", "140816.845000", "140816.849000", "140816.852000", "140816.856000", "140816.859000", "140816.863000", "140816.867000", "140816.870000", "140816.873000", "140856.826000", "140856.830000", "140856.834000", "140856.837000", "140856.841000", "140856.844000", "140856.847000", "140856.851000", "140856.854000", "140856.871000", "140856.874000", "140856.878000", "140856.881000", "140856.884000", "140856.888000", "140856.891000", "140856.895000", "140856.898000", "140856.902000", "140856.905000", "140856.908000", "140856.912000", "140856.915000", "140856.919000", "140856.922000", "140856.926000", "140856.929000", "140936.827000", "140936.830000", "140936.834000", "140936.837000", "140936.841000", "140936.844000", "140936.848000", "140936.851000", "140936.855000", "140936.858000", "140936.861000", "140936.865000", "140936.868000", "140936.872000", "140936.875000", "140936.879000", "140936.882000", "140936.886000", "140936.889000", "140936.893000", "140936.896000", "140936.899000", "140936.903000", "140936.906000", "140936.910000", "140936.913000", "140936.917000", "140954.415000", "140954.418000", "140954.422000", "140954.426000", "140954.429000", "140954.433000", "140954.436000", "140954.440000", "140954.443000", "140954.449000", "140954.453000", "140954.456000"],
