{
  "AcquisitionMatrixPE": 104,
  "AcquisitionNumber": 1,
  "AcquisitionTime": "14:06:25.517500",
  "BandwidthPerPixelPhaseEncode": 17.17,
  "BaseResolution": 104,
  "BodyPartExamined": "BRAIN",
  "CoilCombinationMethod": "Sum of Squares",
  "ConsistencyInfo": "N4_VE11C_LATEST_20160120",
  "ConversionSoftware": "dcm2niix",
  "ConversionSoftwareVersion": "v1.0.20211006",
  "DerivedVendorReportedEchoSpacing": 0.000560011,
  "DeviceSerialNumber": "167006",
  "DwellTime": 2.1e-06,
  "EchoTime": 0.037,
  "EchoTrainLength": 104,
  "EffectiveEchoSpacing": 0.000560011,
  "FlipAngle": 52,
  "HeudiconvVersion": "0.5.3.post569+g418601f",
  "ImageComments": "Unaliased MB4/PE3/LB",
  "ImageOrientationPatientDICOM": [0.999803, 0.00628525, 0.0188363, -0.00139602, 0.968486, -0.249063],
  "ImageOrientationText": "Tra>Cor(-14.4)>Sag(1.1)",
  "ImageType": [
    "ORIGINAL",
    "PRIMARY",
    "M",
    "MB",
    "ND",
    "MOSAIC"
],
  "ImagingFrequency": 123.259,
  "InPlanePhaseEncodingDirectionDICOM": "COL",
  "InstitutionAddress": "Chemin Queen-Mary 4565,Montreal,District,CA,H3W 1W5",
  "InstitutionName": "IUGM",
  "InstitutionalDepartmentName": "Department",
  "MRAcquisitionType": "2D",
  "MagneticFieldStrength": 3,
  "Manufacturer": "Siemens",
  "ManufacturersModelName": "Prisma_fit",
  "MatrixCoilMode": "SENSE",
  "Modality": "MR",
  "MultibandAccelerationFactor": 4,
  "PartialFourier": 1,
  "PatientPosition": "HFS",
  "PercentPhaseFOV": 100,
  "PercentSampling": 100,
  "PhaseEncodingDirection": "j",
  "PhaseEncodingSteps": 104,
  "PhaseResolution": 1,
  "PixelBandwidth": 2290,
  "ProcedureStepDescription": "games^mario",
  "ProtocolName": "func_task-mario_run-04",
  "PulseSequenceDetails": "%CustomerSeq%\\cmrr_mbep2d_bold",
  "ReceiveCoilActiveElements": "HC1-7;NC1,2",
  "ReceiveCoilName": "HeadNeck_64",
  "ReconMatrixPE": 104,
  "RepetitionTime": 1.49,
  "SAR": 0.0505872,
  "ScanOptions": "FS",
  "ScanningSequence": "EP",
  "SequenceName": "epfid2d1_104",
  "SequenceVariant": "SK\\SS",
  "SeriesDescription": "func_task-mario_run-04",
  "SeriesNumber": 19,
  "ShimSetting": [632, -7220, -8755, 723, 19, -19, 86, -18],
  "SliceThickness": 2,
  "SliceTiming": [0, 0.7825, 0.0975, 0.88, 0.195, 0.9775, 0.2925, 1.0775, 0.39, 1.175, 0.4875, 1.2725, 0.5875, 1.37, 0.685, 0, 0.7825, 0.0975, 0.88, 0.195, 0.9775, 0.2925, 1.0775, 0.39, 1.175, 0.4875, 1.2725, 0.5875, 1.37, 0.685, 0, 0.7825, 0.0975, 0.88, 0.195, 0.9775, 0.2925, 1.0775, 0.39, 1.175, 0.4875, 1.2725, 0.5875, 1.37, 0.685, 0, 0.7825, 0.0975, 0.88, 0.195, 0.9775, 0.2925, 1.0775, 0.39, 1.175, 0.4875, 1.2725, 0.5875, 1.37, 0.685],
  "SoftwareVersions": "syngo MR E11",
  "SpacingBetweenSlices": 2,
  "StationName": "MRC35049",
  "TaskName": "mario",
  "TotalReadoutTime": 0.0576811,
  "TxRefAmp": 232.186,
  "WipMemBlock": "92637825-acc9-4330-af49-d4ce77e5cac0||Sequence: R016 ve11c/master r/e634e98; Dec 19 2017 11:00:25 by eja",
  "dcmmeta_affine": [
    [-1.999605655670166, -0.0027920352295041084, 0.03961631655693054, 108.56392669677734],
    [-0.012570500373840332, 1.9369724988937378, -0.49797531962394714, -73.8259506225586],
    [0.037672676146030426, 0.4981261193752289, 1.9366081953048706, -54.83749008178711],
    [0.0, 0.0, 0.0, 1.0]
],
  "dcmmeta_reorient_transform": [
    [0.0, -1.0, 0.0, 103.0],
    [1.0, 0.0, 0.0, 0.0],
    [0.0, 0.0, 1.0, 0.0],
    [0.0, 0.0, 0.0, 1.0]
],
  "dcmmeta_shape": [104, 104, 60, 424],
  "dcmmeta_slice_dim": 2,
  "dcmmeta_version": 0.6,
  "global": {
    "const": {
      "AcquisitionMatrix": [104, 0, 0, 104],
      "AngioFlag": "N",
      "BitsAllocated": 16,
      "BitsStored": 16,
      "BodyPartExamined": "BRAIN",
      "Columns": 832,
      "EchoNumbers": 1,
      "EchoTime": 37.0,
      "EchoTrainLength": 104,
      "FlipAngle": 52.0,
      "HighBit": 15,
      "ImageOrientationPatient": [0.99980282455872, 0.00628525010039, 0.01883633816794, -0.0013960175937, 0.96848626347258, -0.2490630614921],
      "ImagePositionPatient": [-835.11650431516, -835.31588378978, 164.07455658095],
      "ImageType": [
        "ORIGINAL",
        "PRIMARY",
        "M",
        "MB",
        "ND",
        "MOSAIC"
],
      "ImagedNucleus": "1H",
      "ImagingFrequency": 123.258533,
      "InPlanePhaseEncodingDirection": "COL",
      "MRAcquisitionType": "2D",
      "MagneticFieldStrength": 3.0,
      "Manufacturer": "SIEMENS",
      "ManufacturerModelName": "Prisma_fit",
      "Modality": "MR",
      "NumberOfAverages": 1.0,
      "NumberOfPhaseEncodingSteps": 104,
      "PercentPhaseFieldOfView": 100.0,
      "PercentSampling": 100.0,
      "PerformedProcedureStepStartTime": "130948.130000",
      "PhotometricInterpretation": "MONOCHROME2",
      "PixelBandwidth": 2290.0,
      "PixelRepresentation": 0,
      "PixelSpacing": [2.0, 2.0],
      "ProtocolName": "func_task-mario_run-04",
      "RepetitionTime": 1490.0,
      "Rows": 832,
      "SAR": 0.05058717675573,
      "SamplesPerPixel": 1,
      "ScanOptions": "FS",
      "ScanningSequence": "EP",
      "SequenceName": "epfid2d1_104",
      "SequenceVariant": [
        "SK",
        "SS"
],
      "SeriesDescription": "func_task-mario_run-04",
      "SeriesNumber": 19,
      "SeriesTime": "140752.919000",
      "SliceLocation": -32.56716243241,
      "SliceThickness": 2.0,
      "SmallestImagePixelValue": 0,
      "SoftwareVersions": "syngo MR E11",
      "SpacingBetweenSlices": 2.0000000212353,
      "SpecificCharacterSet": "ISO_IR 100",
      "StudyID": "1",
      "StudyTime": "130948.035000",
      "TransmitCoilName": "Body",
      "VariableFlipAngleFlag": "N",
      "WindowCenterWidthExplanation": "Algo1",
      "dBdt": 0.0},
    "slices": {}
  },
  "time": {
    "samples": {
      "AcquisitionNumber": [1, 2, 3, 4, 5, 6, 7, 8, 9, 10, 11, 12, 13, 14, 15, 16, 17, 18, 19, 20, 21, 22, 23, 24, 25, 26, 27, 28, 29, 30, 31, 32, 33, 34, 35, 36, 37, 38, 39, 40, 41, 42, 43, 44, 45, 46, 47, 48, 49, 50, 51, 52, 53, 54, 55, 56, 57, 58, 59, 60, 61, 62, 63, 64, 65, 66, 67, 68, 69, 70, 71, 72, 73, 74, 75, 76, 77, 78, 79, 80, 81, 82, 83, 84, 85, 86, 87, 88, 89, 90, 91, 92, 93, 94, 95, 96, 97, 98, 99, 100, 101, 102, 103, 104, 105, 106, 107, 108, 109, 110, 111, 112, 113, 114, 115, 116, 117, 118, 119, 120, 121, 122, 123, 124, 125, 126, 127, 128, 129, 130, 131, 132, 133, 134, 135, 136, 137, 138, 139, 140, 141, 142, 143, 144, 145, 146, 147, 148, 149, 150, 151, 152, 153, 154, 155, 156, 157, 158, 159, 160, 161, 162, 163, 164, 165, 166, 167, 168, 169, 170, 171, 172, 173, 174, 175, 176, 177, 178, 179, 180, 181, 182, 183, 184, 185, 186, 187, 188, 189, 190, 191, 192, 193, 194, 195, 196, 197, 198, 199, 200, 201, 202, 203, 204, 205, 206, 207, 208, 209, 210, 211, 212, 213, 214, 215, 216, 217, 218, 219, 220, 221, 222, 223, 224, 225, 226, 227, 228, 229, 230, 231, 232, 233, 234, 235, 236, 237, 238, 239, 240, 241, 242, 243, 244, 245, 246, 247, 248, 249, 250, 251, 252, 253, 254, 255, 256, 257, 258, 259, 260, 261, 262, 263, 264, 265, 266, 267, 268, 269, 270, 271, 272, 273, 274, 275, 276, 277, 278, 279, 280, 281, 282, 283, 284, 285, 286, 287, 288, 289, 290, 291, 292, 293, 294, 295, 296, 297, 298, 299, 300, 301, 302, 303, 304, 305, 306, 307, 308, 309, 310, 311, 312, 313, 314, 315, 316, 317, 318, 319, 320, 321, 322, 323, 324, 325, 326, 327, 328, 329, 330, 331, 332, 333, 334, 335, 336, 337, 338, 339, 340, 341, 342, 343, 344, 345, 346, 347, 348, 349, 350, 351, 352, 353, 354, 355, 356, 357, 358, 359, 360, 361, 362, 363, 364, 365, 366, 367, 368, 369, 370, 371, 372, 373, 374, 375, 376, 377, 378, 379, 380, 381, 382, 383, 384, 385, 386, 387, 388, 389, 390, 391, 392, 393, 394, 395, 396, 397, 398, 399, 400, 401, 402, 403, 404, 405, 406, 407, 408, 409, 410, 411, 412, 413, 414, 415, 416, 417, 418, 419, 420, 421, 422, 423, 424],
      "AcquisitionTime": ["140625.517500", "140627.007500", "140628.497500", "140629.987500", "140631.477500", "140632.967500", "140634.457500", "140635.947500", "140637.437500", "140638.927500", "140640.417500", "140641.907500", "140643.397500", "140644.887500", "140646.377500", "140647.867500", "140649.357500", "140650.847500", "140652.337500", "140653.827500", "140655.317500", "140656.807500", "140658.297500", "140659.787500", "140701.277500", "140702.767500", "140704.257500", "140705.747500", "140707.237500", "140708.727500", "140710.217500", "140711.707500", "140713.197500", "140714.687500", "140716.177500", "140717.667500", "140719.157500", "140720.647500", "140722.137500", "140723.627500", "140725.117500", "140726.607500", "140728.097500", "140729.587500", "140731.077500", "140732.567500", "140734.057500", "140735.547500", "140737.037500", "140738.527500", "140740.017500", "140741.507500", "140742.997500", "140744.487500", "140745.977500", "140747.467500", "140748.957500", "140750.447500", "140751.937500", "140753.427500", "140754.917500", "140756.407500", "140757.897500", "140759.387500", "140800.877500", "140802.367500", "140803.857500", "140805.347500", "140806.837500", "140808.327500", "140809.817500", "140811.307500", "140812.797500", "140814.287500", "140815.777500", "140817.267500", "140818.757500", "140820.247500", "140821.737500", "140823.227500", "140824.717500", "140826.207500", "140827.697500", "140829.187500", "140830.677500", "140832.167500", "140833.657500", "140835.147500", "140836.637500", "140838.127500", "140839.617500", "140841.107500", "140842.597500", "140844.087500", "140845.577500", "140847.067500", "140848.557500", "140850.047500", "140851.537500", "140853.027500", "140854.517500", "140856.007500", "140857.497500", "140858.987500", "140900.477500", "140901.967500", "140903.457500", "140904.947500", "140906.437500", "140907.927500", "140909.417500", "140910.907500", "140912.397500", "140913.887500", "140915.377500", "140916.867500", "140918.357500", "140919.847500", "140921.337500", "140922.827500", "140924.317500", "140925.807500", "140927.297500", "140928.787500", "140930.277500", "140931.767500", "140933.257500", "140934.747500", "140936.237500", "140937.727500", "140939.217500", "140940.707500", "140942.197500", "140943.687500", "140945.177500", "140946.667500", "140948.157500", "140949.647500", "140951.137500", "140952.627500", "140954.117500", "140955.607500", "140957.097500", "140958.587500", "141000.077500", "141001.567500", "141003.057500", "141004.547500", "141006.037500", "141007.527500", "141009.017500", "141010.507500", "141011.997500", "141013.487500", "141014.977500", "141016.467500", "141017.957500", "141019.447500", "141020.937500", "141022.427500", "141023.917500", "141025.407500", "141026.897500", "141028.387500", "141029.877500", "141031.367500", "141032.857500", "141034.347500", "141035.837500", "141037.327500", "141038.817500", "141040.307500", "141041.797500", "141043.287500", "141044.777500", "141046.267500", "141047.757500", "141049.247500", "141050.737500", "141052.227500", "141053.717500", "141055.207500", "141056.697500", "141058.187500", "141059.677500", "141101.167500", "141102.657500", "141104.147500", "141105.637500", "141107.127500", "141108.617500", "141110.107500", "141111.597500", "141113.087500", "141114.577500", "141116.067500", "141117.557500", "141119.047500", "141120.537500", "141122.027500", "141123.517500", "141125.007500", "141126.497500", "141127.987500", "141129.477500", "141130.967500", "141132.457500", "141133.947500", "141135.437500", "141136.927500", "141138.417500", "141139.907500", "141141.397500", "141142.887500", "141144.377500", "141145.867500", "141147.357500", "141148.847500", "141150.337500", "141151.827500", "141153.317500", "141154.807500", "141156.297500", "141157.787500", "141159.277500", "141200.767500", "141202.257500", "141203.747500", "141205.237500", "141206.727500", "141208.217500", "141209.707500", "141211.197500", "141212.687500", "141214.177500", "141215.667500", "141217.157500", "141218.647500", "141220.137500", "141221.627500", "141223.117500", "141224.607500", "141226.097500", "141227.587500", "141229.077500", "141230.567500", "141232.057500", "141233.547500", "141235.037500", "141236.527500", "141238.017500", "141239.507500", "141240.997500", "141242.487500", "141243.977500", "141245.467500", "141246.957500", "141248.447500", "141249.937500", "141251.427500", "141252.917500", "141254.407500", "141255.897500", "141257.387500", "141258.877500", "141300.367500", "141301.857500", "141303.347500", "141304.837500", "141306.327500", "141307.817500", "141309.307500", "141310.797500", "141312.287500", "141313.777500", "141315.267500", "141316.757500", "141318.247500", "141319.737500", "141321.227500", "141322.717500", "141324.207500", "141325.697500", "141327.187500", "141328.677500", "141330.167500", "141331.657500", "141333.147500", "141334.637500", "141336.127500", "141337.617500", "141339.107500", "141340.597500", "141342.087500", "141343.577500", "141345.067500", "141346.557500", "141348.047500", "141349.537500", "141351.027500", "141352.517500", "141354.007500", "141355.497500", "141356.987500", "141358.477500", "141359.967500", "141401.457500", "141402.947500", "141404.437500", "141405.927500", "141407.417500", "141408.907500", "141410.397500", "141411.887500", "141413.377500", "141414.867500", "141416.357500", "141417.847500", "141419.337500", "141420.827500", "141422.317500", "141423.807500", "141425.297500", "141426.787500", "141428.277500", "141429.767500", "141431.257500", "141432.747500", "141434.237500", "141435.727500", "141437.217500", "141438.707500", "141440.197500", "141441.687500", "141443.177500", "141444.667500", "141446.157500", "141447.647500", "141449.137500", "141450.627500", "141452.117500", "141453.607500", "141455.097500", "141456.587500", "141458.077500", "141459.567500", "141501.057500", "141502.547500", "141504.037500", "141505.527500", "141507.017500", "141508.507500", "141509.997500", "141511.487500", "141512.977500", "141514.467500", "141515.957500", "141517.447500", "141518.937500", "141520.427500", "141521.917500", "141523.407500", "141524.897500", "141526.387500", "141527.877500", "141529.367500", "141530.857500", "141532.347500", "141533.837500", "141535.327500", "141536.817500", "141538.307500", "141539.797500", "141541.287500", "141542.777500", "141544.267500", "141545.757500", "141547.247500", "141548.737500", "141550.227500", "141551.717500", "141553.207500", "141554.697500", "141556.187500", "141557.677500", "141559.167500", "141600.657500", "141602.147500", "141603.637500", "141605.127500", "141606.617500", "141608.107500", "141609.597500", "141611.087500", "141612.577500", "141614.067500", "141615.557500", "141617.047500", "141618.537500", "141620.027500", "141621.517500", "141623.007500", "141624.497500", "141625.987500", "141627.477500", "141628.967500", "141630.457500", "141631.947500", "141633.437500", "141634.927500", "141636.417500", "141637.907500", "141639.397500", "141640.887500", "141642.377500", "141643.867500", "141645.357500", "141646.847500", "141648.337500", "141649.827500", "141651.317500", "141652.807500", "141654.297500", "141655.787500"],
      "ContentTime": ["140752.923000", "140752.926000", "140752.930000", "140752.933000", "140752.937000", "140752.940000", "140752.943000", "140752.947000", "140752.959000", "140752.963000", "140752.974000", "140752.978000", "140752.981000", "140752.996000", "140753.000000", "140753.003000", "140753.007000", "140753.010000", "140753.013000", "140753.016000", "140753.020000", "140753.023000", "140753.026000", "140753.030000", "140753.033000", "140753.036000", "140753.039000", "140753.043000", "140753.046000", "140753.049000", "140753.053000", "140753.056000", "140753.059000", "140753.062000", "140812.878000", "140812.882000", "140812.885000", "140812.888000", "140812.892000", "140812.895000", "140812.898000", "140812.901000", "140812.905000", "140812.908000", "140812.911000", "140812.915000", "140812.918000", "140812.921000", "140812.924000", "140812.928000", "140812.931000", "140812.934000", "140812.938000", "140812.941000", "140832.878000", "140832.882000", "140832.885000", "140832.889000", "140832.892000", "140832.895000", "140832.899000", "140832.902000", "140832.905000", "140832.908000", "140832.912000", "140832.915000", "140832.918000", "140832.922000", "140832.925000", "140832.928000", "140832.931000", "140832.935000", "140832.938000", "140832.948000", "140852.878000", "140852.882000", "140852.885000", "140852.889000", "140852.892000", "140852.895000", "140852.898000", "140852.902000", "140852.905000", "140852.908000", "140852.912000", "140852.915000", "140852.918000", "140852.921000", "140852.925000", "140852.928000", "140852.931000", "140852.934000", "140852.938000", "140852.941000", "140932.878000", "140932.882000", "140932.885000", "140932.889000", "140932.892000", "140932.895000", "140932.898000", "140932.902000", "140932.905000", "140932.908000", "140932.912000", "140932.915000", "140932.918000", "140932.921000", "140932.925000", "140932.928000", "140932.931000", "140932.935000", "140932.938000", "140932.941000", "140932.945000", "140932.948000", "140932.951000", "140932.955000", "140932.958000", "140932.968000", "140932.972000", "140932.981000", "140932.985000", "140932.988000", "140932.991000", "141012.877000", "141012.881000", "141012.884000", "141012.888000", "141012.891000", "141012.894000", "141012.897000", "141012.901000", "141012.904000", "141012.907000", "141012.911000", "141012.914000", "141012.917000", "141012.921000", "141012.924000", "141012.927000", "141012.931000", "141012.934000", "141012.937000", "141012.941000", "141012.944000", "141012.947000", "141012.951000", "141012.954000", "141012.957000", "141012.961000", "141012.964000", "141052.878000", "141052.882000", "141052.885000", "141052.889000", "141052.892000", "141052.895000", "141052.899000", "141052.902000", "141052.906000", "141052.909000", "141052.912000", "141052.915000", "141052.919000", "141052.922000", "141052.926000", "141052.929000", "141052.932000", "141052.936000", "141052.940000", "141052.944000", "141052.947000", "141052.951000", "141052.954000", "141052.958000", "141052.962000", "141052.965000", "141132.878000", "141132.882000", "141132.885000", "141132.889000", "141132.892000", "141132.895000", "141132.899000", "141132.902000", "141132.905000", "141132.909000", "141132.912000", "141132.915000", "141132.919000", "141132.922000", "141132.925000", "141132.928000", "141132.932000", "141132.935000", "141132.938000", "141132.942000", "141132.945000", "141132.948000", "141132.952000", "141132.955000", "141132.958000", "141132.961000", "141132.965000", "141212.878000", "141212.882000", "141212.897000", "141212.900000", "141212.904000", "141212.907000", "141212.910000", "141212.914000", "141212.917000", "141212.920000", "141212.924000", "141212.927000", "141212.930000", "141212.934000", "141212.937000", "141212.940000", "141212.944000", "141212.947000", "141212.950000", "141212.954000", "141212.957000", "141212.960000", "141212.964000", "141212.967000", "141212.970000", "141212.974000", "141212.977000", "141252.878000", "141252.882000", "141252.885000", "141252.895000", "141252.898000", "141252.901000", "141252.904000", "141252.908000", "141252.911000", "141252.914000", "141252.918000", "141252.921000", "141252.924000", "141252.928000", "141252.931000", "141252.934000", "141252.937000", "141252.941000", "141252.944000", "141252.947000", "141252.951000", "141252.954000", "141252.957000", "141252.961000", "141252.964000", "141252.967000", "141252.970000", "141332.878000", "141332.882000", "141332.885000", "141332.888000", "141332.892000", "141332.895000", "141332.898000", "141332.902000", "141332.905000", "141332.909000", "141332.912000", "141332.915000", "141332.919000", "141332.922000", "141332.925000", "141332.929000", "141332.932000", "141332.935000", "141332.938000", "141332.947000", "141332.950000", "141332.953000", "141332.957000", "141332.960000", "141332.963000", "141332.966000", "141332.970000", "141412.878000", "141412.882000", "141412.885000", "141412.889000", "141412.892000", "141412.895000", "141412.899000", "141412.902000", "141412.905000", "141412.909000", "141412.912000", "141412.915000", "141412.919000", "141412.922000", "141412.925000", "141412.929000", "141412.932000", "141412.935000", "141412.939000", "141412.942000", "141412.945000", "141412.961000", "141412.967000", "141412.970000", "141412.974000", "141412.977000", "141412.980000", "141452.877000", "141452.881000", "141452.884000", "141452.888000", "141452.891000", "141452.894000", "141452.898000", "141452.901000", "141452.904000", "141452.908000", "141452.911000", "141452.914000", "141452.918000", "141452.921000", "141452.924000", "141452.928000", "141452.931000", "141452.934000", "141452.937000", "141452.941000", "141452.944000", "141452.947000", "141452.951000", "141452.954000", "141452.957000", "141452.961000", "141452.974000", "141532.878000", "141532.882000", "141532.885000", "141532.889000", "141532.892000", "141532.895000", "141532.899000", "141532.902000", "141532.905000", "141532.909000", "141532.912000", "141532.915000", "141532.919000", "141532.923000", "141532.926000", "141532.930000", "141532.933000", "141532.936000", "141532.940000", "141532.943000", "141532.946000", "141532.950000", "141532.953000", "141532.956000", "141532.961000", "141532.970000", "141612.878000", "141612.882000", "141612.885000", "141612.889000", "141612.892000", "141612.895000", "141612.899000", "141612.902000", "141612.905000", "141612.908000", "141612.912000", "141612.915000", "141612.918000", "141612.922000", "141612.925000", "141612.928000", "141612.932000", "141612.935000", "141612.938000", "141612.942000", "141612.945000", "141612.948000", "141612.952000", "141612.955000", "141612.958000", "141612.961000", "141612.965000", "141652.878000", "141652.882000", "141652.885000", "141652.889000", "141652.892000", "141652.895000", "141652.899000", "141652.902000", "141652.905000", "141652.908000", "141652.912000", "141652.915000", "141652.918000", "141652.922000", "141652.925000", "141652.928000", "141652.932000", "141652.935000", "141652.938000", "141652.942000", "141652.945000", "141652.949000", "141652.952000", "141652.955000", "141652.959000", "141652.962000", "141652.965000", "141658.916000", "141658.920000", "141658.923000", "141658.927000"],
      "InstanceCreationTime": ["140752.923000", "140752.926000", "140752.930000", "140752.933000", "140752.937000", "140752.940000", "140752.943000", "140752.947000", "140752.959000", "140752.963000", "140752.974000", "140752.978000", "140752.981000", "140752.996000", "140753.000000", "140753.003000", "140753.007000", "140753.010000", "140753.013000", "140753.016000", "140753.020000", "140753.023000", "140753.026000", "140753.030000", "140753.033000", "140753.036000", "140753.039000", "140753.043000", "140753.046000", "140753.049000", "140753.053000", "140753.056000", "140753.059000", "140753.062000", "140812.878000", "140812.882000", "140812.885000", "140812.888000", "140812.892000", "140812.895000", "140812.898000", "140812.901000", "140812.905000", "140812.908000", "140812.911000", "140812.915000", "140812.918000", "140812.921000", "140812.924000", "140812.928000", "140812.931000", "140812.934000", "140812.938000", "140812.941000", "140832.878000", "140832.882000", "140832.885000", "140832.889000", "140832.892000", "140832.895000", "140832.899000", "140832.902000", "140832.905000", "140832.908000", "140832.912000", "140832.915000", "140832.918000", "140832.922000", "140832.925000", "140832.928000", "140832.931000", "140832.935000", "140832.938000", "140832.948000", "140852.878000", "140852.882000", "140852.885000", "140852.889000", "140852.892000", "140852.895000", "140852.898000", "140852.902000", "140852.905000", "140852.908000", "140852.912000", "140852.915000", "140852.918000", "140852.921000", "140852.925000", "140852.928000", "140852.931000", "140852.934000", "140852.938000", "140852.941000", "140932.878000", "140932.882000", "140932.885000", "140932.889000", "140932.892000", "140932.895000", "140932.898000", "140932.902000", "140932.905000", "140932.908000", "140932.912000", "140932.915000", "140932.918000", "140932.921000", "140932.925000", "140932.928000", "140932.931000", "140932.935000", "140932.938000", "140932.941000", "140932.945000", "140932.948000", "140932.951000", "140932.955000", "140932.958000", "140932.968000", "140932.972000", "140932.981000", "140932.985000", "140932.988000", "140932.991000", "141012.877000", "141012.881000", "141012.884000", "141012.888000", "141012.891000", "141012.894000", "141012.897000", "141012.901000", "141012.904000", "141012.907000", "141012.911000", "141012.914000", "141012.917000", "141012.921000", "141012.924000", "141012.927000", "141012.931000", "141012.934000", "141012.937000", "141012.941000", "141012.944000", "141012.947000", "141012.951000", "141012.954000", "141012.957000", "141012.961000", "141012.964000", "141052.878000", "141052.882000", "141052.885000", "141052.889000", "141052.892000", "141052.895000", "141052.899000", "141052.902000", "141052.906000", "141052.909000", "141052.912000", "141052.915000", "141052.919000", "141052.922000", "141052.926000", "141052.929000", "141052.932000", "141052.936000", "141052.940000", "141052.944000", "141052.947000", "141052.951000", "141052.954000", "141052.958000", "141052.962000", "141052.965000", "141132.878000", "141132.882000", "141132.885000", "141132.889000", "141132.892000", "141132.895000", "141132.899000", "141132.902000", "141132.905000", "141132.909000", "141132.912000", "141132.915000", "141132.919000", "141132.922000", "141132.925000", "141132.928000", "141132.932000", "141132.935000", "141132.938000", "141132.942000", "141132.945000", "141132.948000", "141132.952000", "141132.955000", "141132.958000", "141132.961000", "141132.965000", "141212.878000", "141212.882000", "141212.897000", "141212.900000", "141212.904000", "141212.907000", "141212.910000", "141212.914000", "141212.917000", "141212.920000", "141212.924000", "141212.927000", "141212.930000", "141212.934000", "141212.937000", "141212.940000", "141212.944000", "141212.947000", "141212.950000", "141212.954000", "141212.957000", "141212.960000", "141212.964000", "141212.967000", "141212.970000", "141212.974000", "141212.977000", "141252.878000", "141252.882000", "141252.885000", "141252.895000", "141252.898000", "141252.901000", "141252.904000", "141252.908000", "141252.911000", "141252.914000", "141252.918000", "141252.921000", "141252.924000", "141252.928000", "141252.931000", "141252.934000", "141252.937000", "141252.941000", "141252.944000", "141252.947000", "141252.951000", "141252.954000", "141252.957000", "141252.961000", "141252.964000", "141252.967000", "141252.970000", "141332.878000", "141332.882000", "141332.885000", "141332.888000", "141332.892000", "141332.895000", "141332.898000", "141332.902000", "141332.905000", "141332.909000", "141332.912000", "141332.915000", "141332.919000", "141332.922000", "141332.925000", "141332.929000", "141332.932000", "141332.935000", "141332.938000", "141332.947000", "141332.950000", "141332.953000", "141332.957000", "141332.960000", "141332.963000", "141332.966000", "141332.970000", "141412.878000", "141412.882000", "141412.885000", "141412.889000", "141412.892000", "141412.895000", "141412.899000", "141412.902000", "141412.905000", "141412.909000", "141412.912000", "141412.915000", "141412.919000", "141412.922000", "141412.925000", "141412.929000", "141412.932000", "141412.935000", "141412.939000", "141412.942000", "141412.945000", "141412.961000", "141412.967000", "141412.970000", "141412.974000", "141412.977000", "141412.980000", "141452.877000", "141452.881000", "141452.884000", "141452.888000", "141452.891000", "141452.894000", "141452.898000", "141452.901000", "141452.904000", "141452.908000", "141452.911000", "141452.914000", "141452.918000", "141452.921000", "141452.924000", "141452.928000", "141452.931000", "141452.934000", "141452.937000", "141452.941000", "141452.944000", "141452.947000", "141452.951000", "141452.954000", "141452.957000", "141452.961000", "141452.974000", "141532.878000", "141532.882000", "141532.885000", "141532.889000", "141532.892000", "141532.895000", "141532.899000", "141532.902000", "141532.905000", "141532.909000", "141532.912000", "141532.915000", "141532.919000", "141532.923000", "141532.926000", "141532.930000", "141532.933000", "141532.936000", "141532.940000", "141532.943000", "141532.946000", "141532.950000", "141532.953000", "141532.956000", "141532.961000", "141532.970000", "141612.878000", "141612.882000", "141612.885000", "141612.889000", "141612.892000", "141612.895000", "141612.899000", "141612.902000", "141612.905000", "141612.908000", "141612.912000", "141612.915000", "141612.918000", "141612.922000", "141612.925000", "141612.928000", "141612.932000", "141612.935000", "141612.938000", "141612.942000", "141612.945000", "141612.948000", "141612.952000", "141612.955000", "141612.958000", "141612.961000", "141612.965000", "141652.878000", "141652.882000", "141652.885000", "141652.889000", "141652.892000", "141652.895000", "141652.899000", "141652.902000", "141652.905000", "141652.908000", "141652.912000", "141652.915000", "141652.918000", "141652.922000", "141652.925000", "141652.928000", "141652.932000", "141652.935000", "141652.938000", "141652.942000", "141652.945000", "141652.949000", "141652.952000", "141652.955000", "141652.959000", "141652.962000", "141652.965000", "141658.916000", "141658.920000", "141658.923000", "141658.927000"],
