{
  "AcquisitionMatrixPE": 104,
  "AcquisitionNumber": 1,
  "AcquisitionTime": "13:52:56.512500",
  "BandwidthPerPixelPhaseEncode": 17.17,
  "BaseResolution": 104,
  "BodyPartExamined": "BRAIN",
  "CoilCombinationMethod": "Sum of Squares",
  "ConsistencyInfo": "N4_VE11C_LATEST_20160120",
  "ConversionSoftware": "dcm2niix",
  "ConversionSoftwareVersion": "v1.0.20211006",
  "DerivedVendorReportedEchoSpacing": 0.000560011,
  "DeviceSerialNumber": "167006",
  "DwellTime": 2.1e-06,
  "EchoTime": 0.037,
  "EchoTime1": 0.037,
  "EchoTime2": 0.001,
  "EchoTrainLength": 104,
  "EffectiveEchoSpacing": 0.000560011,
  "FlipAngle": 52,
  "HeudiconvVersion": "0.5.3.post569+g418601f",
  "ImageComments": "Unaliased MB4/PE3/LB",
  "ImageOrientationPatientDICOM": [0.999803, 0.00628525, 0.0188363, -0.00139602, 0.968486, -0.249063],
  "ImageOrientationText": "Tra>Cor(-14.4)>Sag(1.1)",
  "ImageType": [
    "ORIGINAL",
    "PRIMARY",
    "P",
    "MB",
    "ND",
    "MOSAIC",
    "PHASE"
],
  "ImagingFrequency": 123.259,
  "InPlanePhaseEncodingDirectionDICOM": "COL",
  "InstitutionAddress": "Chemin Queen-Mary 4565,Montreal,District,CA,H3W 1W5",
  "InstitutionName": "IUGM",
  "InstitutionalDepartmentName": "Department",
  "MRAcquisitionType": "2D",
  "MagneticFieldStrength": 3,
  "Manufacturer": "Siemens",
  "ManufacturersModelName": "Prisma_fit",
  "MatrixCoilMode": "SENSE",
  "Modality": "MR",
  "MultibandAccelerationFactor": 4,
  "PartialFourier": 1,
  "PatientPosition": "HFS",
  "PercentPhaseFOV": 100,
  "PercentSampling": 100,
  "PhaseEncodingDirection": "j",
  "PhaseEncodingSteps": 104,
  "PhaseResolution": 1,
  "PixelBandwidth": 2290,
  "ProcedureStepDescription": "games^mario",
  "ProtocolName": "func_task-mario_run-03",
  "PulseSequenceDetails": "%CustomerSeq%\\cmrr_mbep2d_bold",
  "ReceiveCoilActiveElements": "HC1-7;NC1,2",
  "ReceiveCoilName": "HeadNeck_64",
  "ReconMatrixPE": 104,
  "RepetitionTime": 1.49,
  "SAR": 0.0505872,
  "ScanOptions": "FS",
  "ScanningSequence": "EP",
  "SequenceName": "epfid2d1_104",
  "SequenceVariant": "SK\\SS",
  "SeriesDescription": "func_task-mario_run-03",
  "SeriesNumber": 17,
  "ShimSetting": [632, -7220, -8755, 723, 19, -19, 86, -18],
  "SliceThickness": 2,
  "SliceTiming": [0, 0.7825, 0.0975, 0.8825, 0.195, 0.98, 0.2925, 1.0775, 0.3925, 1.175, 0.49, 1.2725, 0.5875, 1.3725, 0.685, 0, 0.7825, 0.0975, 0.8825, 0.195, 0.98, 0.2925, 1.0775, 0.3925, 1.175, 0.49, 1.2725, 0.5875, 1.3725, 0.685, 0, 0.7825, 0.0975, 0.8825, 0.195, 0.98, 0.2925, 1.0775, 0.3925, 1.175, 0.49, 1.2725, 0.5875, 1.3725, 0.685, 0, 0.7825, 0.0975, 0.8825, 0.195, 0.98, 0.2925, 1.0775, 0.3925, 1.175, 0.49, 1.2725, 0.5875, 1.3725, 0.685],
  "SoftwareVersions": "syngo MR E11",
  "SpacingBetweenSlices": 2,
  "StationName": "MRC35049",
  "TaskName": "mario",
  "TotalReadoutTime": 0.0576811,
  "TxRefAmp": 232.186,
  "WipMemBlock": "55d11164-4179-4125-ad9f-5b65f5d9fbd0||Sequence: R016 ve11c/master r/e634e98; Dec 19 2017 11:00:25 by eja",
  "dcmmeta_affine": [
    [-1.999605655670166, -0.0027920352295041084, 0.03961631655693054, 108.56392669677734],
    [-0.012570500373840332, 1.9369724988937378, -0.49797531962394714, -73.8259506225586],
    [0.037672676146030426, 0.4981261193752289, 1.9366081953048706, -54.83749008178711],
    [0.0, 0.0, 0.0, 1.0]
],
  "dcmmeta_reorient_transform": [
    [0.0, -1.0, 0.0, 103.0],
    [1.0, 0.0, 0.0, 0.0],
    [0.0, 0.0, 1.0, 0.0],
    [0.0, 0.0, 0.0, 1.0]
],
  "dcmmeta_shape": [104, 104, 60, 436],
  "dcmmeta_slice_dim": 2,
  "dcmmeta_version": 0.6,
  "global": {
    "const": {
      "AcquisitionMatrix": [104, 0, 0, 104],
      "AngioFlag": "N",
      "BitsAllocated": 16,
      "BitsStored": 16,
      "BodyPartExamined": "BRAIN",
      "Columns": 832,
      "EchoNumbers": 1,
      "EchoTime": 37.0,
      "EchoTrainLength": 104,
      "FlipAngle": 52.0,
      "HighBit": 15,
      "ImageOrientationPatient": [0.99980282455872, 0.00628525010039, 0.01883633816794, -0.0013960175937, 0.96848626347258, -0.2490630614921],
      "ImagePositionPatient": [-835.11650431516, -835.31588378978, 164.07455658095],
      "ImageType": [
        "ORIGINAL",
        "PRIMARY",
        "P",
        "MB",
        "ND",
        "MOSAIC"
],
      "ImagedNucleus": "1H",
      "ImagingFrequency": 123.258532,
      "InPlanePhaseEncodingDirection": "COL",
      "LargestImagePixelValue": 4095,
      "MRAcquisitionType": "2D",
      "MagneticFieldStrength": 3.0,
      "Manufacturer": "SIEMENS",
      "ManufacturerModelName": "Prisma_fit",
      "Modality": "MR",
      "NumberOfAverages": 1.0,
      "NumberOfPhaseEncodingSteps": 104,
      "PercentPhaseFieldOfView": 100.0,
      "PercentSampling": 100.0,
      "PerformedProcedureStepStartTime": "130948.130000",
      "PhotometricInterpretation": "MONOCHROME2",
      "PixelBandwidth": 2290.0,
      "PixelRepresentation": 0,
      "PixelSpacing": [2.0, 2.0],
      "ProtocolName": "func_task-mario_run-03",
      "RepetitionTime": 1490.0,
      "RescaleIntercept": -4096.0,
      "RescaleSlope": 2.0,
      "RescaleType": "US",
      "Rows": 832,
      "SAR": 0.05058717675573,
      "SamplesPerPixel": 1,
      "ScanOptions": "FS",
      "ScanningSequence": "EP",
      "SequenceName": "epfid2d1_104",
      "SequenceVariant": [
        "SK",
        "SS"
],
      "SeriesDescription": "func_task-mario_run-03",
      "SeriesNumber": 17,
      "SeriesTime": "135415.272000",
      "SliceLocation": -32.56716243241,
      "SliceThickness": 2.0,
      "SmallestImagePixelValue": 0,
      "SoftwareVersions": "syngo MR E11",
      "SpacingBetweenSlices": 2.0000000212353,
      "SpecificCharacterSet": "ISO_IR 100",
      "StudyID": "1",
      "StudyTime": "130948.035000",
      "TransmitCoilName": "Body",
      "VariableFlipAngleFlag": "N",
      "WindowCenterWidthExplanation": "Algo1",
      "dBdt": 0.0},
    "slices": {}
  },
  "time": {
    "samples": {
      "AcquisitionNumber": [1, 2, 3, 4, 5, 6, 7, 8, 9, 10, 11, 12, 13, 14, 15, 16, 17, 18, 19, 20, 21, 22, 23, 24, 25, 26, 27, 28, 29, 30, 31, 32, 33, 34, 35, 36, 37, 38, 39, 40, 41, 42, 43, 44, 45, 46, 47, 48, 49, 50, 51, 52, 53, 54, 55, 56, 57, 58, 59, 60, 61, 62, 63, 64, 65, 66, 67, 68, 69, 70, 71, 72, 73, 74, 75, 76, 77, 78, 79, 80, 81, 82, 83, 84, 85, 86, 87, 88, 89, 90, 91, 92, 93, 94, 95, 96, 97, 98, 99, 100, 101, 102, 103, 104, 105, 106, 107, 108, 109, 110, 111, 112, 113, 114, 115, 116, 117, 118, 119, 120, 121, 122, 123, 124, 125, 126, 127, 128, 129, 130, 131, 132, 133, 134, 135, 136, 137, 138, 139, 140, 141, 142, 143, 144, 145, 146, 147, 148, 149, 150, 151, 152, 153, 154, 155, 156, 157, 158, 159, 160, 161, 162, 163, 164, 165, 166, 167, 168, 169, 170, 171, 172, 173, 174, 175, 176, 177, 178, 179, 180, 181, 182, 183, 184, 185, 186, 187, 188, 189, 190, 191, 192, 193, 194, 195, 196, 197, 198, 199, 200, 201, 202, 203, 204, 205, 206, 207, 208, 209, 210, 211, 212, 213, 214, 215, 216, 217, 218, 219, 220, 221, 222, 223, 224, 225, 226, 227, 228, 229, 230, 231, 232, 233, 234, 235, 236, 237, 238, 239, 240, 241, 242, 243, 244, 245, 246, 247, 248, 249, 250, 251, 252, 253, 254, 255, 256, 257, 258, 259, 260, 261, 262, 263, 264, 265, 266, 267, 268, 269, 270, 271, 272, 273, 274, 275, 276, 277, 278, 279, 280, 281, 282, 283, 284, 285, 286, 287, 288, 289, 290, 291, 292, 293, 294, 295, 296, 297, 298, 299, 300, 301, 302, 303, 304, 305, 306, 307, 308, 309, 310, 311, 312, 313, 314, 315, 316, 317, 318, 319, 320, 321, 322, 323, 324, 325, 326, 327, 328, 329, 330, 331, 332, 333, 334, 335, 336, 337, 338, 339, 340, 341, 342, 343, 344, 345, 346, 347, 348, 349, 350, 351, 352, 353, 354, 355, 356, 357, 358, 359, 360, 361, 362, 363, 364, 365, 366, 367, 368, 369, 370, 371, 372, 373, 374, 375, 376, 377, 378, 379, 380, 381, 382, 383, 384, 385, 386, 387, 388, 389, 390, 391, 392, 393, 394, 395, 396, 397, 398, 399, 400, 401, 402, 403, 404, 405, 406, 407, 408, 409, 410, 411, 412, 413, 414, 415, 416, 417, 418, 419, 420, 421, 422, 423, 424, 425, 426, 427, 428, 429, 430, 431, 432, 433, 434, 435, 436],
      "AcquisitionTime": ["135256.512500", "135258.002500", "135259.492500", "135300.982500", "135302.472500", "135303.962500", "135305.452500", "135306.942500", "135308.432500", "135309.922500", "135311.412500", "135312.902500", "135314.392500", "135315.882500", "135317.372500", "135318.862500", "135320.352500", "135321.842500", "135323.332500", "135324.822500", "135326.312500", "135327.802500", "135329.292500", "135330.782500", "135332.272500", "135333.762500", "135335.252500", "135336.742500", "135338.232500", "135339.722500", "135341.212500", "135342.702500", "135344.192500", "135345.682500", "135347.172500", "135348.662500", "135350.152500", "135351.642500", "135353.132500", "135354.622500", "135356.112500", "135357.602500", "135359.092500", "135400.582500", "135402.072500", "135403.562500", "135405.052500", "135406.542500", "135408.032500", "135409.522500", "135411.012500", "135412.502500", "135413.992500", "135415.482500", "135416.972500", "135418.462500", "135419.952500", "135421.442500", "135422.932500", "135424.422500", "135425.912500", "135427.402500", "135428.892500", "135430.382500", "135431.872500", "135433.362500", "135434.852500", "135436.342500", "135437.832500", "135439.322500", "135440.812500", "135442.302500", "135443.792500", "135445.282500", "135446.772500", "135448.262500", "135449.752500", "135451.242500", "135452.732500", "135454.222500", "135455.712500", "135457.202500", "135458.692500", "135500.182500", "135501.672500", "135503.162500", "135504.652500", "135506.142500", "135507.632500", "135509.122500", "135510.612500", "135512.102500", "135513.592500", "135515.082500", "135516.572500", "135518.062500", "135519.552500", "135521.042500", "135522.532500", "135524.022500", "135525.512500", "135527.002500", "135528.492500", "135529.982500", "135531.472500", "135532.962500", "135534.452500", "135535.942500", "135537.432500", "135538.922500", "135540.412500", "135541.902500", "135543.392500", "135544.882500", "135546.372500", "135547.862500", "135549.352500", "135550.842500", "135552.332500", "135553.822500", "135555.312500", "135556.802500", "135558.292500", "135559.782500", "135601.272500", "135602.762500", "135604.252500", "135605.742500", "135607.232500", "135608.722500", "135610.212500", "135611.702500", "135613.192500", "135614.682500", "135616.172500", "135617.662500", "135619.152500", "135620.642500", "135622.132500", "135623.622500", "135625.112500", "135626.602500", "135628.092500", "135629.582500", "135631.072500", "135632.562500", "135634.052500", "135635.542500", "135637.032500", "135638.522500", "135640.012500", "135641.502500", "135642.992500", "135644.482500", "135645.972500", "135647.462500", "135648.952500", "135650.442500", "135651.932500", "135653.422500", "135654.912500", "135656.402500", "135657.892500", "135659.382500", "135700.872500", "135702.362500", "135703.852500", "135705.342500", "135706.832500", "135708.322500", "135709.812500", "135711.302500", "135712.792500", "135714.282500", "135715.772500", "135717.262500", "135718.752500", "135720.242500", "135721.732500", "135723.222500", "135724.712500", "135726.202500", "135727.692500", "135729.182500", "135730.672500", "135732.162500", "135733.652500", "135735.142500", "135736.632500", "135738.122500", "135739.612500", "135741.102500", "135742.592500", "135744.082500", "135745.572500", "135747.062500", "135748.552500", "135750.042500", "135751.532500", "135753.022500", "135754.512500", "135756.002500", "135757.492500", "135758.982500", "135800.472500", "135801.962500", "135803.452500", "135804.942500", "135806.432500", "135807.922500", "135809.412500", "135810.902500", "135812.392500", "135813.882500", "135815.372500", "135816.862500", "135818.352500", "135819.842500", "135821.332500", "135822.822500", "135824.312500", "135825.802500", "135827.292500", "135828.782500", "135830.272500", "135831.762500", "135833.252500", "135834.742500", "135836.232500", "135837.722500", "135839.212500", "135840.702500", "135842.192500", "135843.682500", "135845.172500", "135846.662500", "135848.152500", "135849.642500", "135851.132500", "135852.622500", "135854.112500", "135855.602500", "135857.092500", "135858.582500", "135900.072500", "135901.562500", "135903.052500", "135904.542500", "135906.032500", "135907.522500", "135909.012500", "135910.502500", "135911.992500", "135913.482500", "135914.972500", "135916.462500", "135917.952500", "135919.442500", "135920.932500", "135922.422500", "135923.912500", "135925.402500", "135926.892500", "135928.382500", "135929.872500", "135931.362500", "135932.852500", "135934.342500", "135935.832500", "135937.322500", "135938.812500", "135940.302500", "135941.792500", "135943.282500", "135944.772500", "135946.262500", "135947.752500", "135949.242500", "135950.732500", "135952.222500", "135953.712500", "135955.202500", "135956.692500", "135958.182500", "135959.672500", "140001.162500", "140002.652500", "140004.142500", "140005.632500", "140007.122500", "140008.612500", "140010.102500", "140011.592500", "140013.082500", "140014.572500", "140016.062500", "140017.552500", "140019.042500", "140020.532500", "140022.022500", "140023.512500", "140025.002500", "140026.492500", "140027.982500", "140029.472500", "140030.962500", "140032.452500", "140033.942500", "140035.432500", "140036.922500", "140038.412500", "140039.902500", "140041.392500", "140042.882500", "140044.372500", "140045.862500", "140047.352500", "140048.842500", "140050.332500", "140051.822500", "140053.312500", "140054.802500", "140056.292500", "140057.782500", "140059.272500", "140100.762500", "140102.252500", "140103.742500", "140105.232500", "140106.722500", "140108.212500", "140109.702500", "140111.192500", "140112.682500", "140114.172500", "140115.662500", "140117.152500", "140118.642500", "140120.132500", "140121.622500", "140123.112500", "140124.602500", "140126.092500", "140127.582500", "140129.072500", "140130.562500", "140132.052500", "140133.542500", "140135.032500", "140136.522500", "140138.012500", "140139.502500", "140140.992500", "140142.482500", "140143.972500", "140145.462500", "140146.952500", "140148.442500", "140149.932500", "140151.422500", "140152.912500", "140154.402500", "140155.892500", "140157.382500", "140158.872500", "140200.362500", "140201.852500", "140203.342500", "140204.832500", "140206.322500", "140207.812500", "140209.302500", "140210.792500", "140212.282500", "140213.772500", "140215.262500", "140216.752500", "140218.242500", "140219.732500", "140221.222500", "140222.712500", "140224.202500", "140225.692500", "140227.182500", "140228.672500", "140230.162500", "140231.652500", "140233.142500", "140234.632500", "140236.122500", "140237.612500", "140239.102500", "140240.592500", "140242.082500", "140243.572500", "140245.062500", "140246.552500", "140248.042500", "140249.532500", "140251.022500", "140252.512500", "140254.002500", "140255.492500", "140256.982500", "140258.472500", "140259.962500", "140301.452500", "140302.942500", "140304.432500", "140305.922500", "140307.412500", "140308.902500", "140310.392500", "140311.882500", "140313.372500", "140314.862500", "140316.352500", "140317.842500", "140319.332500", "140320.822500", "140322.312500", "140323.802500", "140325.292500", "140326.782500", "140328.272500", "140329.762500", "140331.252500", "140332.742500", "140334.232500", "140335.722500", "140337.212500", "140338.702500", "140340.192500", "140341.682500", "140343.172500", "140344.662500"],
      "ContentTime": ["135415.274000", "135415.277000", "135415.280000", "135415.282000", "135415.285000", "135415.287000", "135415.290000", "135415.292000", "135415.295000", "135415.297000", "135415.300000", "135415.302000", "135415.305000", "135415.307000", "135415.310000", "135415.312000", "135415.315000", "135415.317000", "135415.320000", "135415.322000", "135415.325000", "135415.327000", "135415.330000", "135415.332000", "135415.334000", "135415.337000", "135435.214000", "135435.217000", "135435.220000", "135435.222000", "135435.225000", "135435.227000", "135435.230000", "135435.232000", "135435.235000", "135435.237000", "135435.240000", "135435.242000", "135435.245000", "135435.247000", "135435.250000", "135435.252000", "135435.255000", "135435.257000", "135435.260000", "135435.262000", "135455.202000", "135455.205000", "135455.207000", "135455.210000", "135455.212000", "135455.215000", "135455.217000", "135455.220000", "135455.222000", "135455.229000", "135455.232000", "135455.234000", "135455.237000", "135455.239000", "135455.242000", "135455.244000", "135455.247000", "135455.250000", "135455.252000", "135455.254000", "135515.201000", "135515.204000", "135515.206000", "135515.209000", "135515.211000", "135515.214000", "135515.216000", "135515.219000", "135515.221000", "135515.224000", "135515.226000", "135515.229000", "135515.231000", "135515.234000", "135515.237000", "135515.239000", "135515.242000", "135515.244000", "135515.247000", "135515.258000", "135535.195000", "135535.197000", "135535.200000", "135535.202000", "135535.205000", "135535.207000", "135535.210000", "135535.212000", "135535.215000", "135535.217000", "135535.220000", "135535.222000", "135535.224000", "135535.227000", "135535.229000", "135535.232000", "135535.234000", "135535.237000", "135535.239000", "135535.242000", "135615.242000", "135615.245000", "135615.247000", "135615.250000", "135615.252000", "135615.255000", "135615.257000", "135615.260000", "135615.262000", "135615.265000", "135615.269000", "135615.271000", "135615.274000", "135615.276000", "135615.279000", "135615.281000", "135615.284000", "135615.286000", "135615.289000", "135615.291000", "135615.294000", "135615.296000", "135615.299000", "135615.301000", "135615.304000", "135615.306000", "135615.309000", "135655.256000", "135655.259000", "135655.261000", "135655.264000", "135655.267000", "135655.269000", "135655.272000", "135655.274000", "135655.277000", "135655.279000", "135655.282000", "135655.284000", "135655.287000", "135655.289000", "135655.292000", "135655.294000", "135655.297000", "135655.299000", "135655.302000", "135655.304000", "135655.307000", "135655.309000", "135655.312000", "135655.314000", "135655.317000", "135655.319000", "135655.354000", "135735.241000", "135735.248000", "135735.250000", "135735.253000", "135735.256000", "135735.258000", "135735.261000", "135735.263000", "135735.266000", "135735.269000", "135735.272000", "135735.275000", "135735.278000", "135735.280000", "135735.283000", "135735.286000", "135735.289000", "135735.291000", "135735.294000", "135735.297000", "135735.299000", "135735.302000", "135735.304000", "135735.307000", "135735.309000", "135735.312000", "135815.254000", "135815.257000", "135815.259000", "135815.262000", "135815.264000", "135815.267000", "135815.269000", "135815.272000", "135815.275000", "135815.277000", "135815.280000", "135815.282000", "135815.285000", "135815.287000", "135815.290000", "135815.292000", "135815.295000", "135815.297000", "135815.300000", "135815.302000", "135815.305000", "135815.307000", "135815.310000", "135815.312000", "135815.315000", "135815.317000", "135815.320000", "135855.258000", "135855.260000", "135855.263000", "135855.266000", "135855.268000", "135855.271000", "135855.276000", "135855.278000", "135855.281000", "135855.283000", "135855.286000", "135855.288000", "135855.291000", "135855.293000", "135855.296000", "135855.298000", "135855.301000", "135855.303000", "135855.306000", "135855.309000", "135855.311000", "135855.314000", "135855.316000", "135855.319000", "135855.321000", "135855.324000", "135855.326000", "135935.670000", "135935.673000", "135935.675000", "135935.678000", "135935.680000", "135935.683000", "135935.685000", "135935.688000", "135935.690000", "135935.693000", "135935.695000", "135935.698000", "135935.701000", "135935.703000", "135935.706000", "135935.708000", "135935.711000", "135935.713000", "135935.716000", "135935.718000", "135935.721000", "135935.723000", "135935.726000", "135935.728000", "135935.731000", "135935.733000", "135935.736000", "140015.250000", "140015.253000", "140015.255000", "140015.258000", "140015.260000", "140015.263000", "140015.266000", "140015.268000", "140015.271000", "140015.273000", "140015.299000", "140015.301000", "140015.304000", "140015.307000", "140015.309000", "140015.312000", "140015.314000", "140015.317000", "140015.319000", "140015.322000", "140015.324000", "140015.327000", "140015.329000", "140015.332000", "140015.334000", "140015.337000", "140015.339000", "140055.252000", "140055.255000", "140055.257000", "140055.260000", "140055.263000", "140055.265000", "140055.268000", "140055.270000", "140055.273000", "140055.275000", "140055.278000", "140055.280000", "140055.283000", "140055.285000", "140055.288000", "140055.290000", "140055.293000", "140055.295000", "140055.298000", "140055.300000", "140055.303000", "140055.305000", "140055.308000", "140055.310000", "140055.313000", "140055.315000", "140055.318000", "140135.278000", "140135.281000", "140135.283000", "140135.286000", "140135.288000", "140135.297000", "140135.300000", "140135.302000", "140135.305000", "140135.307000", "140135.310000", "140135.312000", "140135.315000", "140135.317000", "140135.320000", "140135.322000", "140135.325000", "140135.327000", "140135.338000", "140135.340000", "140135.343000", "140135.345000", "140135.348000", "140135.350000", "140135.353000", "140135.355000", "140215.252000", "140215.255000", "140215.258000", "140215.260000", "140215.272000", "140215.274000", "140215.277000", "140215.279000", "140215.282000", "140215.284000", "140215.287000", "140215.289000", "140215.292000", "140215.294000", "140215.297000", "140215.299000", "140215.302000", "140215.305000", "140215.307000", "140215.310000", "140215.312000", "140215.315000", "140215.317000", "140215.320000", "140215.322000", "140215.325000", "140215.327000", "140255.259000", "140255.262000", "140255.265000", "140255.267000", "140255.270000", "140255.272000", "140255.275000", "140255.277000", "140255.280000", "140255.282000", "140255.285000", "140255.287000", "140255.290000", "140255.293000", "140255.295000", "140255.305000", "140255.307000", "140255.310000", "140255.312000", "140255.315000", "140255.317000", "140255.320000", "140255.322000", "140255.325000", "140255.328000", "140255.330000", "140255.333000", "140335.251000", "140335.254000", "140335.256000", "140335.259000", "140335.261000", "140335.264000", "140335.266000", "140335.269000", "140335.272000", "140335.274000", "140335.277000", "140335.279000", "140335.282000", "140335.284000", "140335.287000", "140335.289000", "140335.292000", "140335.294000", "140335.297000", "140335.299000", "140335.302000", "140335.304000", "140335.307000", "140335.309000", "140335.312000", "140335.315000", "140335.317000", "140347.257000", "140347.260000", "140347.262000", "140347.265000", "140347.267000", "140347.270000", "140347.272000", "140347.275000"],
