{
  "AcquisitionMatrixPE": 104,
  "AcquisitionNumber": 1,
  "AcquisitionTime": "13:23:26.615000",
  "BandwidthPerPixelPhaseEncode": 17.17,
  "BaseResolution": 104,
  "BodyPartExamined": "BRAIN",
  "CoilCombinationMethod": "Sum of Squares",
  "ConsistencyInfo": "N4_VE11C_LATEST_20160120",
  "ConversionSoftware": "dcm2niix",
  "ConversionSoftwareVersion": "v1.0.20211006",
  "DerivedVendorReportedEchoSpacing": 0.000560011,
  "DeviceSerialNumber": "167006",
  "DwellTime": 2.1e-06,
  "EchoTime": 0.037,
  "EchoTrainLength": 104,
  "EffectiveEchoSpacing": 0.000560011,
  "FlipAngle": 52,
  "HeudiconvVersion": "0.5.3.post569+g418601f",
  "ImageComments": "Unaliased MB4/PE3/LB",
  "ImageOrientationPatientDICOM": [0.999803, 0.00628525, 0.0188363, -0.00139602, 0.968486, -0.249063],
  "ImageOrientationText": "Tra>Cor(-14.4)>Sag(1.1)",
  "ImageType": [
    "ORIGINAL",
    "PRIMARY",
    "M",
    "MB",
    "ND",
    "MOSAIC"
],
  "ImagingFrequency": 123.259,
  "InPlanePhaseEncodingDirectionDICOM": "COL",
  "InstitutionAddress": "Chemin Queen-Mary 4565,Montreal,District,CA,H3W 1W5",
  "InstitutionName": "IUGM",
  "InstitutionalDepartmentName": "Department",
  "MRAcquisitionType": "2D",
  "MagneticFieldStrength": 3,
  "Manufacturer": "Siemens",
  "ManufacturersModelName": "Prisma_fit",
  "MatrixCoilMode": "SENSE",
  "Modality": "MR",
  "MultibandAccelerationFactor": 4,
  "PartialFourier": 1,
  "PatientPosition": "HFS",
  "PercentPhaseFOV": 100,
  "PercentSampling": 100,
  "PhaseEncodingDirection": "j",
  "PhaseEncodingSteps": 104,
  "PhaseResolution": 1,
  "PixelBandwidth": 2290,
  "ProcedureStepDescription": "games^mario",
  "ProtocolName": "func_task-mario_run-01",
  "PulseSequenceDetails": "%CustomerSeq%\\cmrr_mbep2d_bold",
  "ReceiveCoilActiveElements": "HC1-7;NC1,2",
  "ReceiveCoilName": "HeadNeck_64",
  "ReconMatrixPE": 104,
  "RepetitionTime": 1.49,
  "SAR": 0.0505872,
  "ScanOptions": "FS",
  "ScanningSequence": "EP",
  "SequenceName": "epfid2d1_104",
  "SequenceVariant": "SK\\SS",
  "SeriesDescription": "func_task-mario_run-01",
  "SeriesNumber": 10,
  "ShimSetting": [632, -7220, -8755, 723, 19, -19, 86, -18],
  "SliceThickness": 2,
  "SliceTiming": [0, 0.785, 0.0975, 0.8825, 0.1975, 0.98, 0.295, 1.0775, 0.3925, 1.1775, 0.49, 1.275, 0.5875, 1.3725, 0.6875, 0, 0.785, 0.0975, 0.8825, 0.1975, 0.98, 0.295, 1.0775, 0.3925, 1.1775, 0.49, 1.275, 0.5875, 1.3725, 0.6875, 0, 0.785, 0.0975, 0.8825, 0.1975, 0.98, 0.295, 1.0775, 0.3925, 1.1775, 0.49, 1.275, 0.5875, 1.3725, 0.6875, 0, 0.785, 0.0975, 0.8825, 0.1975, 0.98, 0.295, 1.0775, 0.3925, 1.1775, 0.49, 1.275, 0.5875, 1.3725, 0.6875],
  "SoftwareVersions": "syngo MR E11",
  "SpacingBetweenSlices": 2,
  "StationName": "MRC35049",
  "TaskName": "mario",
  "TotalReadoutTime": 0.0576811,
  "TxRefAmp": 232.186,
  "WipMemBlock": "0508e9f8-4e45-4618-8087-16333b6a2375||Sequence: R016 ve11c/master r/e634e98; Dec 19 2017 11:00:25 by eja",
  "dcmmeta_affine": [
    [-1.999605655670166, -0.0027920352295041084, 0.03961631655693054, 108.56392669677734],
    [-0.012570500373840332, 1.9369724988937378, -0.49797531962394714, -73.8259506225586],
    [0.037672676146030426, 0.4981261193752289, 1.9366081953048706, -54.83749008178711],
    [0.0, 0.0, 0.0, 1.0]
],
  "dcmmeta_reorient_transform": [
    [0.0, -1.0, 0.0, 103.0],
    [1.0, 0.0, 0.0, 0.0],
    [0.0, 0.0, 1.0, 0.0],
    [0.0, 0.0, 0.0, 1.0]
],
  "dcmmeta_shape": [104, 104, 60, 466],
  "dcmmeta_slice_dim": 2,
  "dcmmeta_version": 0.6,
  "global": {
    "const": {
      "AcquisitionMatrix": [104, 0, 0, 104],
      "AngioFlag": "N",
      "BitsAllocated": 16,
      "BitsStored": 16,
      "BodyPartExamined": "BRAIN",
      "Columns": 832,
      "EchoNumbers": 1,
      "EchoTime": 37.0,
      "EchoTrainLength": 104,
      "FlipAngle": 52.0,
      "HighBit": 15,
      "ImageOrientationPatient": [0.99980282455872, 0.00628525010039, 0.01883633816794, -0.0013960175937, 0.96848626347258, -0.2490630614921],
      "ImagePositionPatient": [-835.11650431516, -835.31588378978, 164.07455658095],
      "ImageType": [
        "ORIGINAL",
        "PRIMARY",
        "M",
        "MB",
        "ND",
        "MOSAIC"
],
      "ImagedNucleus": "1H",
      "ImagingFrequency": 123.258514,
      "InPlanePhaseEncodingDirection": "COL",
      "MRAcquisitionType": "2D",
      "MagneticFieldStrength": 3.0,
      "Manufacturer": "SIEMENS",
      "ManufacturerModelName": "Prisma_fit",
      "Modality": "MR",
      "NumberOfAverages": 1.0,
      "NumberOfPhaseEncodingSteps": 104,
      "PercentPhaseFieldOfView": 100.0,
      "PercentSampling": 100.0,
      "PerformedProcedureStepStartTime": "130948.130000",
      "PhotometricInterpretation": "MONOCHROME2",
      "PixelBandwidth": 2290.0,
      "PixelRepresentation": 0,
      "PixelSpacing": [2.0, 2.0],
      "ProtocolName": "func_task-mario_run-01",
      "RepetitionTime": 1490.0,
      "Rows": 832,
      "SAR": 0.05058717675573,
      "SamplesPerPixel": 1,
      "ScanOptions": "FS",
      "ScanningSequence": "EP",
      "SequenceName": "epfid2d1_104",
      "SequenceVariant": [
        "SK",
        "SS"
],
      "SeriesDescription": "func_task-mario_run-01",
      "SeriesNumber": 10,
      "SeriesTime": "132448.061000",
      "SliceLocation": -32.56716243241,
      "SliceThickness": 2.0,
      "SmallestImagePixelValue": 0,
      "SoftwareVersions": "syngo MR E11",
      "SpacingBetweenSlices": 2.0000000212353,
      "SpecificCharacterSet": "ISO_IR 100",
      "StudyID": "1",
      "StudyTime": "130948.035000",
      "TransmitCoilName": "Body",
      "VariableFlipAngleFlag": "N",
      "WindowCenterWidthExplanation": "Algo1",
      "dBdt": 0.0},
    "slices": {}
  },
  "time": {
    "samples": {
      "AcquisitionNumber": [1, 2, 3, 4, 5, 6, 7, 8, 9, 10, 11, 12, 13, 14, 15, 16, 17, 18, 19, 20, 21, 22, 23, 24, 25, 26, 27, 28, 29, 30, 31, 32, 33, 34, 35, 36, 37, 38, 39, 40, 41, 42, 43, 44, 45, 46, 47, 48, 49, 50, 51, 52, 53, 54, 55, 56, 57, 58, 59, 60, 61, 62, 63, 64, 65, 66, 67, 68, 69, 70, 71, 72, 73, 74, 75, 76, 77, 78, 79, 80, 81, 82, 83, 84, 85, 86, 87, 88, 89, 90, 91, 92, 93, 94, 95, 96, 97, 98, 99, 100, 101, 102, 103, 104, 105, 106, 107, 108, 109, 110, 111, 112, 113, 114, 115, 116, 117, 118, 119, 120, 121, 122, 123, 124, 125, 126, 127, 128, 129, 130, 131, 132, 133, 134, 135, 136, 137, 138, 139, 140, 141, 142, 143, 144, 145, 146, 147, 148, 149, 150, 151, 152, 153, 154, 155, 156, 157, 158, 159, 160, 161, 162, 163, 164, 165, 166, 167, 168, 169, 170, 171, 172, 173, 174, 175, 176, 177, 178, 179, 180, 181, 182, 183, 184, 185, 186, 187, 188, 189, 190, 191, 192, 193, 194, 195, 196, 197, 198, 199, 200, 201, 202, 203, 204, 205, 206, 207, 208, 209, 210, 211, 212, 213, 214, 215, 216, 217, 218, 219, 220, 221, 222, 223, 224, 225, 226, 227, 228, 229, 230, 231, 232, 233, 234, 235, 236, 237, 238, 239, 240, 241, 242, 243, 244, 245, 246, 247, 248, 249, 250, 251, 252, 253, 254, 255, 256, 257, 258, 259, 260, 261, 262, 263, 264, 265, 266, 267, 268, 269, 270, 271, 272, 273, 274, 275, 276, 277, 278, 279, 280, 281, 282, 283, 284, 285, 286, 287, 288, 289, 290, 291, 292, 293, 294, 295, 296, 297, 298, 299, 300, 301, 302, 303, 304, 305, 306, 307, 308, 309, 310, 311, 312, 313, 314, 315, 316, 317, 318, 319, 320, 321, 322, 323, 324, 325, 326, 327, 328, 329, 330, 331, 332, 333, 334, 335, 336, 337, 338, 339, 340, 341, 342, 343, 344, 345, 346, 347, 348, 349, 350, 351, 352, 353, 354, 355, 356, 357, 358, 359, 360, 361, 362, 363, 364, 365, 366, 367, 368, 369, 370, 371, 372, 373, 374, 375, 376, 377, 378, 379, 380, 381, 382, 383, 384, 385, 386, 387, 388, 389, 390, 391, 392, 393, 394, 395, 396, 397, 398, 399, 400, 401, 402, 403, 404, 405, 406, 407, 408, 409, 410, 411, 412, 413, 414, 415, 416, 417, 418, 419, 420, 421, 422, 423, 424, 425, 426, 427, 428, 429, 430, 431, 432, 433, 434, 435, 436, 437, 438, 439, 440, 441, 442, 443, 444, 445, 446, 447, 448, 449, 450, 451, 452, 453, 454, 455, 456, 457, 458, 459, 460, 461, 462, 463, 464, 465, 466],
      "AcquisitionTime": ["132326.615000", "132328.105000", "132329.595000", "132331.085000", "132332.575000", "132334.065000", "132335.555000", "132337.045000", "132338.535000", "132340.025000", "132341.515000", "132343.005000", "132344.495000", "132345.985000", "132347.475000", "132348.965000", "132350.455000", "132351.945000", "132353.435000", "132354.925000", "132356.415000", "132357.905000", "132359.395000", "132400.885000", "132402.375000", "132403.865000", "132405.355000", "132406.845000", "132408.335000", "132409.825000", "132411.315000", "132412.805000", "132414.295000", "132415.785000", "132417.275000", "132418.765000", "132420.255000", "132421.745000", "132423.235000", "132424.725000", "132426.215000", "132427.705000", "132429.195000", "132430.685000", "132432.175000", "132433.665000", "132435.155000", "132436.645000", "132438.135000", "132439.625000", "132441.115000", "132442.605000", "132444.095000", "132445.585000", "132447.075000", "132448.565000", "132450.055000", "132451.545000", "132453.035000", "132454.525000", "132456.015000", "132457.505000", "132458.995000", "132500.485000", "132501.975000", "132503.465000", "132504.955000", "132506.445000", "132507.935000", "132509.425000", "132510.915000", "132512.405000", "132513.895000", "132515.385000", "132516.875000", "132518.365000", "132519.855000", "132521.345000", "132522.835000", "132524.325000", "132525.815000", "132527.305000", "132528.795000", "132530.285000", "132531.775000", "132533.265000", "132534.755000", "132536.245000", "132537.735000", "132539.225000", "132540.715000", "132542.205000", "132543.695000", "132545.185000", "132546.675000", "132548.165000", "132549.655000", "132551.145000", "132552.635000", "132554.125000", "132555.615000", "132557.105000", "132558.595000", "132600.085000", "132601.575000", "132603.065000", "132604.555000", "132606.045000", "132607.535000", "132609.025000", "132610.515000", "132612.005000", "132613.495000", "132614.985000", "132616.475000", "132617.965000", "132619.455000", "132620.945000", "132622.435000", "132623.925000", "132625.415000", "132626.905000", "132628.395000", "132629.885000", "132631.375000", "132632.865000", "132634.355000", "132635.845000", "132637.335000", "132638.825000", "132640.315000", "132641.805000", "132643.295000", "132644.785000", "132646.275000", "132647.765000", "132649.255000", "132650.745000", "132652.235000", "132653.725000", "132655.215000", "132656.705000", "132658.195000", "132659.685000", "132701.175000", "132702.665000", "132704.155000", "132705.645000", "132707.135000", "132708.625000", "132710.115000", "132711.605000", "132713.095000", "132714.585000", "132716.075000", "132717.565000", "132719.055000", "132720.545000", "132722.035000", "132723.525000", "132725.015000", "132726.505000", "132727.995000", "132729.485000", "132730.975000", "132732.465000", "132733.955000", "132735.445000", "132736.935000", "132738.425000", "132739.915000", "132741.405000", "132742.895000", "132744.385000", "132745.875000", "132747.365000", "132748.855000", "132750.345000", "132751.835000", "132753.325000", "132754.815000", "132756.305000", "132757.795000", "132759.285000", "132800.775000", "132802.265000", "132803.755000", "132805.245000", "132806.735000", "132808.225000", "132809.715000", "132811.205000", "132812.695000", "132814.185000", "132815.675000", "132817.165000", "132818.655000", "132820.145000", "132821.635000", "132823.125000", "132824.615000", "132826.105000", "132827.595000", "132829.085000", "132830.575000", "132832.065000", "132833.555000", "132835.045000", "132836.535000", "132838.025000", "132839.515000", "132841.005000", "132842.495000", "132843.985000", "132845.475000", "132846.965000", "132848.455000", "132849.945000", "132851.435000", "132852.925000", "132854.415000", "132855.905000", "132857.395000", "132858.885000", "132900.375000", "132901.865000", "132903.355000", "132904.845000", "132906.335000", "132907.825000", "132909.315000", "132910.805000", "132912.295000", "132913.785000", "132915.275000", "132916.765000", "132918.255000", "132919.745000", "132921.235000", "132922.725000", "132924.215000", "132925.705000", "132927.195000", "132928.685000", "132930.175000", "132931.665000", "132933.155000", "132934.645000", "132936.135000", "132937.625000", "132939.115000", "132940.605000", "132942.095000", "132943.585000", "132945.075000", "132946.565000", "132948.055000", "132949.545000", "132951.035000", "132952.525000", "132954.015000", "132955.505000", "132956.995000", "132958.485000", "132959.975000", "133001.465000", "133002.955000", "133004.445000", "133005.935000", "133007.425000", "133008.915000", "133010.405000", "133011.895000", "133013.385000", "133014.875000", "133016.365000", "133017.855000", "133019.345000", "133020.835000", "133022.325000", "133023.815000", "133025.305000", "133026.795000", "133028.285000", "133029.775000", "133031.265000", "133032.755000", "133034.245000", "133035.735000", "133037.225000", "133038.715000", "133040.205000", "133041.695000", "133043.185000", "133044.675000", "133046.165000", "133047.655000", "133049.145000", "133050.635000", "133052.125000", "133053.615000", "133055.105000", "133056.595000", "133058.085000", "133059.575000", "133101.065000", "133102.555000", "133104.045000", "133105.535000", "133107.025000", "133108.515000", "133110.005000", "133111.495000", "133112.985000", "133114.475000", "133115.965000", "133117.455000", "133118.945000", "133120.435000", "133121.925000", "133123.415000", "133124.905000", "133126.395000", "133127.885000", "133129.375000", "133130.865000", "133132.355000", "133133.845000", "133135.335000", "133136.825000", "133138.315000", "133139.805000", "133141.295000", "133142.785000", "133144.275000", "133145.765000", "133147.255000", "133148.745000", "133150.235000", "133151.725000", "133153.215000", "133154.705000", "133156.195000", "133157.685000", "133159.175000", "133200.665000", "133202.155000", "133203.645000", "133205.135000", "133206.625000", "133208.115000", "133209.605000", "133211.095000", "133212.585000", "133214.075000", "133215.565000", "133217.055000", "133218.545000", "133220.035000", "133221.525000", "133223.015000", "133224.505000", "133225.995000", "133227.485000", "133228.975000", "133230.465000", "133231.955000", "133233.445000", "133234.935000", "133236.425000", "133237.915000", "133239.405000", "133240.895000", "133242.385000", "133243.875000", "133245.365000", "133246.855000", "133248.345000", "133249.835000", "133251.325000", "133252.815000", "133254.305000", "133255.795000", "133257.285000", "133258.775000", "133300.265000", "133301.755000", "133303.245000", "133304.735000", "133306.225000", "133307.715000", "133309.205000", "133310.695000", "133312.185000", "133313.675000", "133315.165000", "133316.655000", "133318.145000", "133319.635000", "133321.125000", "133322.615000", "133324.105000", "133325.595000", "133327.085000", "133328.575000", "133330.065000", "133331.555000", "133333.045000", "133334.535000", "133336.025000", "133337.515000", "133339.005000", "133340.495000", "133341.985000", "133343.475000", "133344.965000", "133346.455000", "133347.945000", "133349.435000", "133350.925000", "133352.415000", "133353.905000", "133355.395000", "133356.885000", "133358.375000", "133359.865000", "133401.355000", "133402.845000", "133404.335000", "133405.825000", "133407.315000", "133408.805000", "133410.295000", "133411.785000", "133413.275000", "133414.765000", "133416.255000", "133417.745000", "133419.235000", "133420.725000", "133422.215000", "133423.705000", "133425.195000", "133426.685000", "133428.175000", "133429.665000", "133431.155000", "133432.645000", "133434.135000", "133435.625000", "133437.115000", "133438.605000", "133440.095000", "133441.585000", "133443.075000", "133444.565000", "133446.055000", "133447.545000", "133449.035000", "133450.525000", "133452.015000", "133453.505000", "133454.995000", "133456.485000", "133457.975000", "133459.465000"],
      "ContentTime": ["132448.064000", "132448.068000", "132448.071000", "132448.074000", "132448.078000", "132448.081000", "132448.085000", "132448.089000", "132448.092000", "132448.095000", "132448.098000", "132448.102000", "132448.105000", "132448.108000", "132448.112000", "132448.115000", "132448.118000", "132448.122000", "132448.125000", "132448.128000", "132448.132000", "132448.135000", "132448.138000", "132448.141000", "132448.145000", "132448.148000", "132508.020000", "132508.024000", "132508.027000", "132508.030000", "132508.034000", "132508.037000", "132508.040000", "132508.043000", "132508.047000", "132508.050000", "132508.053000", "132508.056000", "132508.060000", "132508.063000", "132508.066000", "132508.070000", "132508.073000", "132508.076000", "132508.079000", "132508.083000", "132528.020000", "132528.024000", "132528.028000", "132528.032000", "132528.035000", "132528.039000", "132528.042000", "132528.045000", "132528.049000", "132528.052000", "132528.055000", "132528.058000", "132528.062000", "132528.065000", "132528.068000", "132528.071000", "132528.075000", "132528.078000", "132528.081000", "132528.085000", "132548.020000", "132548.028000", "132548.031000", "132548.034000", "132548.037000", "132548.058000", "132548.061000", "132548.064000", "132548.068000", "132548.071000", "132548.074000", "132548.078000", "132548.081000", "132548.084000", "132548.087000", "132548.091000", "132548.094000", "132548.098000", "132548.101000", "132548.104000", "132548.108000", "132608.020000", "132608.024000", "132608.027000", "132608.030000", "132608.034000", "132608.037000", "132608.040000", "132608.059000", "132608.062000", "132608.065000", "132608.069000", "132608.072000", "132608.075000", "132608.079000", "132608.082000", "132608.085000", "132608.088000", "132608.092000", "132608.095000", "132608.099000", "132648.020000", "132648.024000", "132648.027000", "132648.030000", "132648.034000", "132648.037000", "132648.040000", "132648.044000", "132648.047000", "132648.050000", "132648.053000", "132648.057000", "132648.060000", "132648.063000", "132648.067000", "132648.070000", "132648.073000", "132648.083000", "132648.086000", "132648.090000", "132648.093000", "132648.096000", "132648.099000", "132648.103000", "132648.106000", "132648.109000", "132648.122000", "132728.020000", "132728.024000", "132728.027000", "132728.030000", "132728.034000", "132728.037000", "132728.040000", "132728.044000", "132728.047000", "132728.050000", "132728.054000", "132728.057000", "132728.060000", "132728.063000", "132728.067000", "132728.070000", "132728.073000", "132728.077000", "132728.080000", "132728.083000", "132728.087000", "132728.090000", "132728.093000", "132728.096000", "132728.100000", "132728.103000", "132728.106000", "132808.020000", "132808.024000", "132808.027000", "132808.030000", "132808.034000", "132808.037000", "132808.040000", "132808.044000", "132808.060000", "132808.064000", "132808.067000", "132808.070000", "132808.073000", "132808.077000", "132808.080000", "132808.083000", "132808.087000", "132808.090000", "132808.093000", "132808.097000", "132808.100000", "132808.103000", "132808.107000", "132808.110000", "132808.113000", "132808.117000", "132808.120000", "132848.020000", "132848.024000", "132848.027000", "132848.030000", "132848.034000", "132848.037000", "132848.040000", "132848.044000", "132848.047000", "132848.051000", "132848.054000", "132848.057000", "132848.061000", "132848.064000", "132848.067000", "132848.070000", "132848.074000", "132848.077000", "132848.080000", "132848.084000", "132848.087000", "132848.090000", "132848.102000", "132848.106000", "132848.109000", "132848.112000", "132848.116000", "132928.021000", "132928.025000", "132928.028000", "132928.031000", "132928.035000", "132928.038000", "132928.041000", "132928.045000", "132928.048000", "132928.051000", "132928.055000", "132928.058000", "132928.061000", "132928.065000", "132928.068000", "132928.071000", "132928.075000", "132928.078000", "132928.081000", "132928.085000", "132928.088000", "132928.091000", "132928.095000", "132928.098000", "132928.101000", "132928.104000", "132928.108000", "133008.020000", "133008.024000", "133008.027000", "133008.030000", "133008.034000", "133008.037000", "133008.041000", "133008.044000", "133008.053000", "133008.057000", "133008.060000", "133008.063000", "133008.067000", "133008.070000", "133008.073000", "133008.077000", "133008.080000", "133008.083000", "133008.086000", "133008.090000", "133008.093000", "133008.097000", "133008.100000", "133008.103000", "133008.106000", "133008.110000", "133008.113000", "133048.020000", "133048.024000", "133048.027000", "133048.031000", "133048.034000", "133048.038000", "133048.041000", "133048.044000", "133048.048000", "133048.051000", "133048.054000", "133048.058000", "133048.061000", "133048.064000", "133048.067000", "133048.071000", "133048.074000", "133048.077000", "133048.081000", "133048.084000", "133048.087000", "133048.091000", "133048.094000", "133048.097000", "133048.101000", "133048.104000", "133128.020000", "133128.024000", "133128.027000", "133128.031000", "133128.034000", "133128.037000", "133128.041000", "133128.044000", "133128.048000", "133128.051000", "133128.054000", "133128.057000", "133128.061000", "133128.064000", "133128.067000", "133128.071000", "133128.074000", "133128.077000", "133128.081000", "133128.084000", "133128.087000", "133128.091000", "133128.094000", "133128.097000", "133128.100000", "133128.104000", "133128.107000", "133208.020000", "133208.024000", "133208.027000", "133208.031000", "133208.034000", "133208.037000", "133208.041000", "133208.044000", "133208.047000", "133208.051000", "133208.054000", "133208.057000", "133208.061000", "133208.064000", "133208.067000", "133208.071000", "133208.074000", "133208.077000", "133208.081000", "133208.084000", "133208.087000", "133208.091000", "133208.094000", "133208.097000", "133208.100000", "133208.104000", "133208.107000", "133248.020000", "133248.037000", "133248.040000", "133248.043000", "133248.047000", "133248.050000", "133248.053000", "133248.057000", "133248.060000", "133248.063000", "133248.067000", "133248.070000", "133248.073000", "133248.077000", "133248.080000", "133248.083000", "133248.087000", "133248.090000", "133248.093000", "133248.097000", "133248.100000", "133248.103000", "133248.107000", "133248.110000", "133248.113000", "133248.117000", "133248.120000", "133328.020000", "133328.024000", "133328.027000", "133328.031000", "133328.034000", "133328.037000", "133328.041000", "133328.044000", "133328.047000", "133328.051000", "133328.054000", "133328.057000", "133328.061000", "133328.064000", "133328.067000", "133328.071000", "133328.074000", "133328.077000", "133328.081000", "133328.084000", "133328.087000", "133328.090000", "133328.094000", "133328.097000", "133328.100000", "133328.104000", "133328.107000", "133408.021000", "133408.025000", "133408.028000", "133408.035000", "133408.039000", "133408.042000", "133408.045000", "133408.048000", "133408.052000", "133408.055000", "133408.058000", "133408.062000", "133408.065000", "133408.068000", "133408.072000", "133408.075000", "133408.078000", "133408.082000", "133408.085000", "133408.088000", "133408.092000", "133408.095000", "133408.098000", "133408.101000", "133408.105000", "133408.108000", "133408.111000", "133448.020000", "133448.024000", "133448.027000", "133448.031000", "133448.034000", "133448.038000", "133448.041000", "133448.044000", "133448.047000", "133448.051000", "133448.054000", "133448.057000", "133448.061000", "133448.078000", "133448.082000", "133448.085000", "133448.088000", "133448.092000", "133448.095000", "133448.098000", "133448.102000", "133448.105000", "133448.116000", "133448.119000", "133448.122000", "133448.125000", "133448.129000", "133502.213000", "133502.217000", "133502.221000", "133502.224000", "133502.227000", "133502.231000", "133502.234000", "133502.237000", "133502.241000"],
