{
  "AcquisitionMatrixPE": 104,
  "AcquisitionNumber": 1,
  "AcquisitionTime": "13:23:26.615000",
  "BandwidthPerPixelPhaseEncode": 17.17,
  "BaseResolution": 104,
  "BodyPartExamined": "BRAIN",
  "CoilCombinationMethod": "Sum of Squares",
  "ConsistencyInfo": "N4_VE11C_LATEST_20160120",
  "ConversionSoftware": "dcm2niix",
  "ConversionSoftwareVersion": "v1.0.20211006",
  "DerivedVendorReportedEchoSpacing": 0.000560011,
  "DeviceSerialNumber": "167006",
  "DwellTime": 2.1e-06,
  "EchoTime": 0.037,
  "EchoTime1": 0.037,
  "EchoTime2": 0.001,
  "EchoTrainLength": 104,
  "EffectiveEchoSpacing": 0.000560011,
  "FlipAngle": 52,
  "HeudiconvVersion": "0.5.3.post569+g418601f",
  "ImageComments": "Unaliased MB4/PE3/LB",
  "ImageOrientationPatientDICOM": [0.999803, 0.00628525, 0.0188363, -0.00139602, 0.968486, -0.249063],
  "ImageOrientationText": "Tra>Cor(-14.4)>Sag(1.1)",
  "ImageType": [
    "ORIGINAL",
    "PRIMARY",
    "P",
    "MB",
    "ND",
    "MOSAIC",
    "PHASE"
],
  "ImagingFrequency": 123.259,
  "InPlanePhaseEncodingDirectionDICOM": "COL",
  "InstitutionAddress": "Chemin Queen-Mary 4565,Montreal,District,CA,H3W 1W5",
  "InstitutionName": "IUGM",
  "InstitutionalDepartmentName": "Department",
  "MRAcquisitionType": "2D",
  "MagneticFieldStrength": 3,
  "Manufacturer": "Siemens",
  "ManufacturersModelName": "Prisma_fit",
  "MatrixCoilMode": "SENSE",
  "Modality": "MR",
  "MultibandAccelerationFactor": 4,
  "PartialFourier": 1,
  "PatientPosition": "HFS",
  "PercentPhaseFOV": 100,
  "PercentSampling": 100,
  "PhaseEncodingDirection": "j",
  "PhaseEncodingSteps": 104,
  "PhaseResolution": 1,
  "PixelBandwidth": 2290,
  "ProcedureStepDescription": "games^mario",
  "ProtocolName": "func_task-mario_run-01",
  "PulseSequenceDetails": "%CustomerSeq%\\cmrr_mbep2d_bold",
  "ReceiveCoilActiveElements": "HC1-7;NC1,2",
  "ReceiveCoilName": "HeadNeck_64",
  "ReconMatrixPE": 104,
  "RepetitionTime": 1.49,
  "SAR": 0.0505872,
  "ScanOptions": "FS",
  "ScanningSequence": "EP",
  "SequenceName": "epfid2d1_104",
  "SequenceVariant": "SK\\SS",
  "SeriesDescription": "func_task-mario_run-01",
  "SeriesNumber": 11,
  "ShimSetting": [632, -7220, -8755, 723, 19, -19, 86, -18],
  "SliceThickness": 2,
  "SliceTiming": [0, 0.785, 0.0975, 0.8825, 0.1975, 0.98, 0.295, 1.0775, 0.3925, 1.1775, 0.49, 1.275, 0.5875, 1.3725, 0.6875, 0, 0.785, 0.0975, 0.8825, 0.1975, 0.98, 0.295, 1.0775, 0.3925, 1.1775, 0.49, 1.275, 0.5875, 1.3725, 0.6875, 0, 0.785, 0.0975, 0.8825, 0.1975, 0.98, 0.295, 1.0775, 0.3925, 1.1775, 0.49, 1.275, 0.5875, 1.3725, 0.6875, 0, 0.785, 0.0975, 0.8825, 0.1975, 0.98, 0.295, 1.0775, 0.3925, 1.1775, 0.49, 1.275, 0.5875, 1.3725, 0.6875],
  "SoftwareVersions": "syngo MR E11",
  "SpacingBetweenSlices": 2,
  "StationName": "MRC35049",
  "TaskName": "mario",
  "TotalReadoutTime": 0.0576811,
  "TxRefAmp": 232.186,
  "WipMemBlock": "0508e9f8-4e45-4618-8087-16333b6a2375||Sequence: R016 ve11c/master r/e634e98; Dec 19 2017 11:00:25 by eja",
  "dcmmeta_affine": [
    [-1.999605655670166, -0.0027920352295041084, 0.03961631655693054, 108.56392669677734],
    [-0.012570500373840332, 1.9369724988937378, -0.49797531962394714, -73.8259506225586],
    [0.037672676146030426, 0.4981261193752289, 1.9366081953048706, -54.83749008178711],
    [0.0, 0.0, 0.0, 1.0]
],
  "dcmmeta_reorient_transform": [
    [0.0, -1.0, 0.0, 103.0],
    [1.0, 0.0, 0.0, 0.0],
    [0.0, 0.0, 1.0, 0.0],
    [0.0, 0.0, 0.0, 1.0]
],
  "dcmmeta_shape": [104, 104, 60, 466],
  "dcmmeta_slice_dim": 2,
  "dcmmeta_version": 0.6,
  "global": {
    "const": {
      "AcquisitionMatrix": [104, 0, 0, 104],
      "AngioFlag": "N",
      "BitsAllocated": 16,
      "BitsStored": 16,
      "BodyPartExamined": "BRAIN",
      "Columns": 832,
      "EchoNumbers": 1,
      "EchoTime": 37.0,
      "EchoTrainLength": 104,
      "FlipAngle": 52.0,
      "HighBit": 15,
      "ImageOrientationPatient": [0.99980282455872, 0.00628525010039, 0.01883633816794, -0.0013960175937, 0.96848626347258, -0.2490630614921],
      "ImagePositionPatient": [-835.11650431516, -835.31588378978, 164.07455658095],
      "ImageType": [
        "ORIGINAL",
        "PRIMARY",
        "P",
        "MB",
        "ND",
        "MOSAIC"
],
      "ImagedNucleus": "1H",
      "ImagingFrequency": 123.258514,
      "InPlanePhaseEncodingDirection": "COL",
      "LargestImagePixelValue": 4095,
      "MRAcquisitionType": "2D",
      "MagneticFieldStrength": 3.0,
      "Manufacturer": "SIEMENS",
      "ManufacturerModelName": "Prisma_fit",
      "Modality": "MR",
      "NumberOfAverages": 1.0,
      "NumberOfPhaseEncodingSteps": 104,
      "PercentPhaseFieldOfView": 100.0,
      "PercentSampling": 100.0,
      "PerformedProcedureStepStartTime": "130948.130000",
      "PhotometricInterpretation": "MONOCHROME2",
      "PixelBandwidth": 2290.0,
      "PixelRepresentation": 0,
      "PixelSpacing": [2.0, 2.0],
      "ProtocolName": "func_task-mario_run-01",
      "RepetitionTime": 1490.0,
      "RescaleIntercept": -4096.0,
      "RescaleSlope": 2.0,
      "RescaleType": "US",
      "Rows": 832,
      "SAR": 0.05058717675573,
      "SamplesPerPixel": 1,
      "ScanOptions": "FS",
      "ScanningSequence": "EP",
      "SequenceName": "epfid2d1_104",
      "SequenceVariant": [
        "SK",
        "SS"
],
      "SeriesDescription": "func_task-mario_run-01",
      "SeriesNumber": 11,
      "SeriesTime": "132448.184000",
      "SliceLocation": -32.56716243241,
      "SliceThickness": 2.0,
      "SmallestImagePixelValue": 0,
      "SoftwareVersions": "syngo MR E11",
      "SpacingBetweenSlices": 2.0000000212353,
      "SpecificCharacterSet": "ISO_IR 100",
      "StudyID": "1",
      "StudyTime": "130948.035000",
      "TransmitCoilName": "Body",
      "VariableFlipAngleFlag": "N",
      "WindowCenterWidthExplanation": "Algo1",
      "dBdt": 0.0},
    "slices": {}
  },
  "time": {
    "samples": {
      "AcquisitionNumber": [1, 2, 3, 4, 5, 6, 7, 8, 9, 10, 11, 12, 13, 14, 15, 16, 17, 18, 19, 20, 21, 22, 23, 24, 25, 26, 27, 28, 29, 30, 31, 32, 33, 34, 35, 36, 37, 38, 39, 40, 41, 42, 43, 44, 45, 46, 47, 48, 49, 50, 51, 52, 53, 54, 55, 56, 57, 58, 59, 60, 61, 62, 63, 64, 65, 66, 67, 68, 69, 70, 71, 72, 73, 74, 75, 76, 77, 78, 79, 80, 81, 82, 83, 84, 85, 86, 87, 88, 89, 90, 91, 92, 93, 94, 95, 96, 97, 98, 99, 100, 101, 102, 103, 104, 105, 106, 107, 108, 109, 110, 111, 112, 113, 114, 115, 116, 117, 118, 119, 120, 121, 122, 123, 124, 125, 126, 127, 128, 129, 130, 131, 132, 133, 134, 135, 136, 137, 138, 139, 140, 141, 142, 143, 144, 145, 146, 147, 148, 149, 150, 151, 152, 153, 154, 155, 156, 157, 158, 159, 160, 161, 162, 163, 164, 165, 166, 167, 168, 169, 170, 171, 172, 173, 174, 175, 176, 177, 178, 179, 180, 181, 182, 183, 184, 185, 186, 187, 188, 189, 190, 191, 192, 193, 194, 195, 196, 197, 198, 199, 200, 201, 202, 203, 204, 205, 206, 207, 208, 209, 210, 211, 212, 213, 214, 215, 216, 217, 218, 219, 220, 221, 222, 223, 224, 225, 226, 227, 228, 229, 230, 231, 232, 233, 234, 235, 236, 237, 238, 239, 240, 241, 242, 243, 244, 245, 246, 247, 248, 249, 250, 251, 252, 253, 254, 255, 256, 257, 258, 259, 260, 261, 262, 263, 264, 265, 266, 267, 268, 269, 270, 271, 272, 273, 274, 275, 276, 277, 278, 279, 280, 281, 282, 283, 284, 285, 286, 287, 288, 289, 290, 291, 292, 293, 294, 295, 296, 297, 298, 299, 300, 301, 302, 303, 304, 305, 306, 307, 308, 309, 310, 311, 312, 313, 314, 315, 316, 317, 318, 319, 320, 321, 322, 323, 324, 325, 326, 327, 328, 329, 330, 331, 332, 333, 334, 335, 336, 337, 338, 339, 340, 341, 342, 343, 344, 345, 346, 347, 348, 349, 350, 351, 352, 353, 354, 355, 356, 357, 358, 359, 360, 361, 362, 363, 364, 365, 366, 367, 368, 369, 370, 371, 372, 373, 374, 375, 376, 377, 378, 379, 380, 381, 382, 383, 384, 385, 386, 387, 388, 389, 390, 391, 392, 393, 394, 395, 396, 397, 398, 399, 400, 401, 402, 403, 404, 405, 406, 407, 408, 409, 410, 411, 412, 413, 414, 415, 416, 417, 418, 419, 420, 421, 422, 423, 424, 425, 426, 427, 428, 429, 430, 431, 432, 433, 434, 435, 436, 437, 438, 439, 440, 441, 442, 443, 444, 445, 446, 447, 448, 449, 450, 451, 452, 453, 454, 455, 456, 457, 458, 459, 460, 461, 462, 463, 464, 465, 466],
      "AcquisitionTime": ["132326.615000", "132328.105000", "132329.595000", "132331.085000", "132332.575000", "132334.065000", "132335.555000", "132337.045000", "132338.535000", "132340.025000", "132341.515000", "132343.005000", "132344.495000", "132345.985000", "132347.475000", "132348.965000", "132350.455000", "132351.945000", "132353.435000", "132354.925000", "132356.415000", "132357.905000", "132359.395000", "132400.885000", "132402.375000", "132403.865000", "132405.355000", "132406.845000", "132408.335000", "132409.825000", "132411.315000", "132412.805000", "132414.295000", "132415.785000", "132417.275000", "132418.765000", "132420.255000", "132421.745000", "132423.235000", "132424.725000", "132426.215000", "132427.705000", "132429.195000", "132430.685000", "132432.175000", "132433.665000", "132435.155000", "132436.645000", "132438.135000", "132439.625000", "132441.115000", "132442.605000", "132444.095000", "132445.585000", "132447.075000", "132448.565000", "132450.055000", "132451.545000", "132453.035000", "132454.525000", "132456.015000", "132457.505000", "132458.995000", "132500.485000", "132501.975000", "132503.465000", "132504.955000", "132506.445000", "132507.935000", "132509.425000", "132510.915000", "132512.405000", "132513.895000", "132515.385000", "132516.875000", "132518.365000", "132519.855000", "132521.345000", "132522.835000", "132524.325000", "132525.815000", "132527.305000", "132528.795000", "132530.285000", "132531.775000", "132533.265000", "132534.755000", "132536.245000", "132537.735000", "132539.225000", "132540.715000", "132542.205000", "132543.695000", "132545.185000", "132546.675000", "132548.165000", "132549.655000", "132551.145000", "132552.635000", "132554.125000", "132555.615000", "132557.105000", "132558.595000", "132600.085000", "132601.575000", "132603.065000", "132604.555000", "132606.045000", "132607.535000", "132609.025000", "132610.515000", "132612.005000", "132613.495000", "132614.985000", "132616.475000", "132617.965000", "132619.455000", "132620.945000", "132622.435000", "132623.925000", "132625.415000", "132626.905000", "132628.395000", "132629.885000", "132631.375000", "132632.865000", "132634.355000", "132635.845000", "132637.335000", "132638.825000", "132640.315000", "132641.805000", "132643.295000", "132644.785000", "132646.275000", "132647.765000", "132649.255000", "132650.745000", "132652.235000", "132653.725000", "132655.215000", "132656.705000", "132658.195000", "132659.685000", "132701.175000", "132702.665000", "132704.155000", "132705.645000", "132707.135000", "132708.625000", "132710.115000", "132711.605000", "132713.095000", "132714.585000", "132716.075000", "132717.565000", "132719.055000", "132720.545000", "132722.035000", "132723.525000", "132725.015000", "132726.505000", "132727.995000", "132729.485000", "132730.975000", "132732.465000", "132733.955000", "132735.445000", "132736.935000", "132738.425000", "132739.915000", "132741.405000", "132742.895000", "132744.385000", "132745.875000", "132747.365000", "132748.855000", "132750.345000", "132751.835000", "132753.325000", "132754.815000", "132756.305000", "132757.795000", "132759.285000", "132800.775000", "132802.265000", "132803.755000", "132805.245000", "132806.735000", "132808.225000", "132809.715000", "132811.205000", "132812.695000", "132814.185000", "132815.675000", "132817.165000", "132818.655000", "132820.145000", "132821.635000", "132823.125000", "132824.615000", "132826.105000", "132827.595000", "132829.085000", "132830.575000", "132832.065000", "132833.555000", "132835.045000", "132836.535000", "132838.025000", "132839.515000", "132841.005000", "132842.495000", "132843.985000", "132845.475000", "132846.965000", "132848.455000", "132849.945000", "132851.435000", "132852.925000", "132854.415000", "132855.905000", "132857.395000", "132858.885000", "132900.375000", "132901.865000", "132903.355000", "132904.845000", "132906.335000", "132907.825000", "132909.315000", "132910.805000", "132912.295000", "132913.785000", "132915.275000", "132916.765000", "132918.255000", "132919.745000", "132921.235000", "132922.725000", "132924.215000", "132925.705000", "132927.195000", "132928.685000", "132930.175000", "132931.665000", "132933.155000", "132934.645000", "132936.135000", "132937.625000", "132939.115000", "132940.605000", "132942.095000", "132943.585000", "132945.075000", "132946.565000", "132948.055000", "132949.545000", "132951.035000", "132952.525000", "132954.015000", "132955.505000", "132956.995000", "132958.485000", "132959.975000", "133001.465000", "133002.955000", "133004.445000", "133005.935000", "133007.425000", "133008.915000", "133010.405000", "133011.895000", "133013.385000", "133014.875000", "133016.365000", "133017.855000", "133019.345000", "133020.835000", "133022.325000", "133023.815000", "133025.305000", "133026.795000", "133028.285000", "133029.775000", "133031.265000", "133032.755000", "133034.245000", "133035.735000", "133037.225000", "133038.715000", "133040.205000", "133041.695000", "133043.185000", "133044.675000", "133046.165000", "133047.655000", "133049.145000", "133050.635000", "133052.125000", "133053.615000", "133055.105000", "133056.595000", "133058.085000", "133059.575000", "133101.065000", "133102.555000", "133104.045000", "133105.535000", "133107.025000", "133108.515000", "133110.005000", "133111.495000", "133112.985000", "133114.475000", "133115.965000", "133117.455000", "133118.945000", "133120.435000", "133121.925000", "133123.415000", "133124.905000", "133126.395000", "133127.885000", "133129.375000", "133130.865000", "133132.355000", "133133.845000", "133135.335000", "133136.825000", "133138.315000", "133139.805000", "133141.295000", "133142.785000", "133144.275000", "133145.765000", "133147.255000", "133148.745000", "133150.235000", "133151.725000", "133153.215000", "133154.705000", "133156.195000", "133157.685000", "133159.175000", "133200.665000", "133202.155000", "133203.645000", "133205.135000", "133206.625000", "133208.115000", "133209.605000", "133211.095000", "133212.585000", "133214.075000", "133215.565000", "133217.055000", "133218.545000", "133220.035000", "133221.525000", "133223.015000", "133224.505000", "133225.995000", "133227.485000", "133228.975000", "133230.465000", "133231.955000", "133233.445000", "133234.935000", "133236.425000", "133237.915000", "133239.405000", "133240.895000", "133242.385000", "133243.875000", "133245.365000", "133246.855000", "133248.345000", "133249.835000", "133251.325000", "133252.815000", "133254.305000", "133255.795000", "133257.285000", "133258.775000", "133300.265000", "133301.755000", "133303.245000", "133304.735000", "133306.225000", "133307.715000", "133309.205000", "133310.695000", "133312.185000", "133313.675000", "133315.165000", "133316.655000", "133318.145000", "133319.635000", "133321.125000", "133322.615000", "133324.105000", "133325.595000", "133327.085000", "133328.575000", "133330.065000", "133331.555000", "133333.045000", "133334.535000", "133336.025000", "133337.515000", "133339.005000", "133340.495000", "133341.985000", "133343.475000", "133344.965000", "133346.455000", "133347.945000", "133349.435000", "133350.925000", "133352.415000", "133353.905000", "133355.395000", "133356.885000", "133358.375000", "133359.865000", "133401.355000", "133402.845000", "133404.335000", "133405.825000", "133407.315000", "133408.805000", "133410.295000", "133411.785000", "133413.275000", "133414.765000", "133416.255000", "133417.745000", "133419.235000", "133420.725000", "133422.215000", "133423.705000", "133425.195000", "133426.685000", "133428.175000", "133429.665000", "133431.155000", "133432.645000", "133434.135000", "133435.625000", "133437.115000", "133438.605000", "133440.095000", "133441.585000", "133443.075000", "133444.565000", "133446.055000", "133447.545000", "133449.035000", "133450.525000", "133452.015000", "133453.505000", "133454.995000", "133456.485000", "133457.975000", "133459.465000"],
      "ContentTime": ["132448.186000", "132448.189000", "132448.192000", "132448.194000", "132448.197000", "132448.199000", "132448.208000", "132448.210000", "132448.213000", "132448.215000", "132448.218000", "132448.220000", "132448.223000", "132448.225000", "132448.228000", "132448.230000", "132448.233000", "132448.235000", "132448.238000", "132448.240000", "132448.243000", "132448.245000", "132448.248000", "132448.250000", "132448.253000", "132448.255000", "132508.150000", "132508.152000", "132508.155000", "132508.157000", "132508.160000", "132508.163000", "132508.166000", "132508.169000", "132508.171000", "132508.174000", "132508.177000", "132508.180000", "132508.183000", "132508.192000", "132508.195000", "132508.197000", "132508.200000", "132508.202000", "132508.205000", "132508.207000", "132528.120000", "132528.123000", "132528.125000", "132528.127000", "132528.130000", "132528.133000", "132528.135000", "132528.138000", "132528.140000", "132528.142000", "132528.145000", "132528.147000", "132528.150000", "132528.161000", "132528.164000", "132528.166000", "132528.169000", "132528.171000", "132528.174000", "132528.176000", "132548.142000", "132548.145000", "132548.147000", "132548.150000", "132548.152000", "132548.155000", "132548.157000", "132548.160000", "132548.162000", "132548.165000", "132548.167000", "132548.170000", "132548.172000", "132548.175000", "132548.177000", "132548.180000", "132548.182000", "132548.185000", "132548.187000", "132548.190000", "132548.192000", "132608.135000", "132608.138000", "132608.140000", "132608.143000", "132608.145000", "132608.148000", "132608.150000", "132608.153000", "132608.155000", "132608.158000", "132608.160000", "132608.163000", "132608.165000", "132608.168000", "132608.170000", "132608.173000", "132608.175000", "132608.178000", "132608.180000", "132608.183000", "132648.171000", "132648.174000", "132648.181000", "132648.183000", "132648.186000", "132648.188000", "132648.191000", "132648.193000", "132648.196000", "132648.199000", "132648.202000", "132648.204000", "132648.213000", "132648.216000", "132648.219000", "132648.222000", "132648.225000", "132648.227000", "132648.230000", "132648.233000", "132648.236000", "132648.239000", "132648.241000", "132648.244000", "132648.246000", "132648.249000", "132648.252000", "132728.163000", "132728.165000", "132728.168000", "132728.170000", "132728.173000", "132728.175000", "132728.178000", "132728.181000", "132728.183000", "132728.186000", "132728.188000", "132728.191000", "132728.193000", "132728.196000", "132728.198000", "132728.201000", "132728.203000", "132728.206000", "132728.208000", "132728.211000", "132728.213000", "132728.216000", "132728.218000", "132728.221000", "132728.223000", "132728.226000", "132728.228000", "132808.164000", "132808.167000", "132808.169000", "132808.172000", "132808.174000", "132808.177000", "132808.179000", "132808.182000", "132808.184000", "132808.187000", "132808.189000", "132808.192000", "132808.202000", "132808.205000", "132808.207000", "132808.210000", "132808.212000", "132808.215000", "132808.217000", "132808.220000", "132808.222000", "132808.225000", "132808.227000", "132808.230000", "132808.232000", "132808.235000", "132808.237000", "132848.166000", "132848.169000", "132848.171000", "132848.174000", "132848.177000", "132848.179000", "132848.182000", "132848.184000", "132848.187000", "132848.189000", "132848.192000", "132848.194000", "132848.197000", "132848.199000", "132848.202000", "132848.204000", "132848.207000", "132848.209000", "132848.212000", "132848.214000", "132848.217000", "132848.219000", "132848.222000", "132848.230000", "132848.233000", "132848.235000", "132848.238000", "132928.164000", "132928.167000", "132928.169000", "132928.172000", "132928.174000", "132928.177000", "132928.179000", "132928.182000", "132928.184000", "132928.187000", "132928.189000", "132928.192000", "132928.194000", "132928.197000", "132928.199000", "132928.202000", "132928.204000", "132928.207000", "132928.210000", "132928.212000", "132928.215000", "132928.217000", "132928.220000", "132928.222000", "132928.225000", "132928.227000", "132928.230000", "133008.162000", "133008.173000", "133008.175000", "133008.178000", "133008.180000", "133008.183000", "133008.185000", "133008.188000", "133008.190000", "133008.193000", "133008.195000", "133008.198000", "133008.200000", "133008.203000", "133008.205000", "133008.208000", "133008.210000", "133008.213000", "133008.215000", "133008.218000", "133008.220000", "133008.223000", "133008.226000", "133008.228000", "133008.231000", "133008.233000", "133008.236000", "133048.156000", "133048.159000", "133048.162000", "133048.164000", "133048.167000", "133048.169000", "133048.172000", "133048.174000", "133048.177000", "133048.180000", "133048.182000", "133048.185000", "133048.187000", "133048.190000", "133048.192000", "133048.195000", "133048.197000", "133048.200000", "133048.202000", "133048.205000", "133048.207000", "133048.210000", "133048.212000", "133048.215000", "133048.217000", "133048.220000", "133128.615000", "133128.617000", "133128.620000", "133128.623000", "133128.625000", "133128.628000", "133128.630000", "133128.633000", "133128.635000", "133128.638000", "133128.640000", "133128.643000", "133128.645000", "133128.648000", "133128.650000", "133128.653000", "133128.655000", "133128.658000", "133128.660000", "133128.663000", "133128.665000", "133128.668000", "133128.670000", "133128.673000", "133128.675000", "133128.678000", "133128.680000", "133208.162000", "133208.164000", "133208.167000", "133208.170000", "133208.172000", "133208.175000", "133208.177000", "133208.180000", "133208.182000", "133208.185000", "133208.187000", "133208.190000", "133208.192000", "133208.195000", "133208.197000", "133208.200000", "133208.202000", "133208.205000", "133208.207000", "133208.210000", "133208.212000", "133208.215000", "133208.217000", "133208.220000", "133208.222000", "133208.225000", "133208.227000", "133248.164000", "133248.167000", "133248.169000", "133248.172000", "133248.174000", "133248.177000", "133248.179000", "133248.182000", "133248.184000", "133248.187000", "133248.189000", "133248.192000", "133248.195000", "133248.197000", "133248.200000", "133248.202000", "133248.205000", "133248.207000", "133248.210000", "133248.212000", "133248.215000", "133248.217000", "133248.220000", "133248.223000", "133248.225000", "133248.229000", "133248.232000", "133328.161000", "133328.164000", "133328.166000", "133328.169000", "133328.171000", "133328.174000", "133328.182000", "133328.185000", "133328.187000", "133328.190000", "133328.192000", "133328.195000", "133328.197000", "133328.200000", "133328.202000", "133328.205000", "133328.208000", "133328.210000", "133328.213000", "133328.215000", "133328.218000", "133328.220000", "133328.223000", "133328.225000", "133328.228000", "133328.230000", "133328.233000", "133408.168000", "133408.171000", "133408.174000", "133408.176000", "133408.179000", "133408.181000", "133408.184000", "133408.186000", "133408.189000", "133408.191000", "133408.194000", "133408.196000", "133408.199000", "133408.201000", "133408.204000", "133408.206000", "133408.209000", "133408.211000", "133408.214000", "133408.216000", "133408.219000", "133408.221000", "133408.224000", "133408.226000", "133408.229000", "133408.232000", "133408.234000", "133448.177000", "133448.180000", "133448.182000", "133448.185000", "133448.187000", "133448.190000", "133448.193000", "133448.195000", "133448.198000", "133448.200000", "133448.203000", "133448.205000", "133448.208000", "133448.210000", "133448.213000", "133448.216000", "133448.218000", "133448.221000", "133448.223000", "133448.226000", "133448.228000", "133448.231000", "133448.233000", "133448.236000", "133448.238000", "133448.241000", "133448.243000", "133502.290000", "133502.293000", "133502.296000", "133502.298000", "133502.301000", "133502.303000", "133502.306000", "133502.309000", "133502.311000"],
