{
  "AcquisitionMatrixPE": 104,
  "AcquisitionNumber": 1,
  "AcquisitionTime": "16:32:39.380000",
  "BandwidthPerPixelPhaseEncode": 17.17,
  "BaseResolution": 104,
  "BodyPartExamined": "BRAIN",
  "CoilCombinationMethod": "Sum of Squares",
  "ConsistencyInfo": "N4_VE11C_LATEST_20160120",
  "ConversionSoftware": "dcm2niix",
  "ConversionSoftwareVersion": "v1.0.20211006",
  "DerivedVendorReportedEchoSpacing": 0.000560011,
  "DeviceSerialNumber": "167006",
  "DwellTime": 2.1e-06,
  "EchoTime": 0.037,
  "EchoTime1": 0.037,
  "EchoTime2": 0.001,
  "EchoTrainLength": 104,
  "EffectiveEchoSpacing": 0.000560011,
  "FlipAngle": 52,
  "HeudiconvVersion": "0.10.0",
  "ImageComments": "Unaliased MB4/PE3/LB",
  "ImageOrientationPatientDICOM": [0.998543, 0.028438, 0.0458698, -0.0149891, 0.962606, -0.27049],
  "ImageOrientationText": "Tra>Cor(-15.7)>Sag(3.0)",
  "ImageType": [
    "ORIGINAL",
    "PRIMARY",
    "P",
    "MB",
    "ND",
    "MOSAIC",
    "PHASE"
],
  "ImagingFrequency": 123.259,
  "InPlanePhaseEncodingDirectionDICOM": "COL",
  "InstitutionAddress": "Chemin Queen-Mary 4565,Montreal,District,CA,H3W 1W5",
  "InstitutionName": "IUGM",
  "InstitutionalDepartmentName": "Department",
  "MRAcquisitionType": "2D",
  "MagneticFieldStrength": 3,
  "Manufacturer": "Siemens",
  "ManufacturersModelName": "Prisma_fit",
  "MatrixCoilMode": "SENSE",
  "Modality": "MR",
  "MultibandAccelerationFactor": 4,
  "PartialFourier": 1,
  "PatientPosition": "HFS",
  "PercentPhaseFOV": 100,
  "PercentSampling": 100,
  "PhaseEncodingDirection": "j",
  "PhaseEncodingSteps": 104,
  "PhaseResolution": 1,
  "PixelBandwidth": 2290,
  "ProcedureStepDescription": "games^mario",
  "ProtocolName": "func_task-mario_run-01",
  "PulseSequenceDetails": "%CustomerSeq%\\cmrr_mbep2d_bold",
  "ReceiveCoilActiveElements": "HC1-7;NC1,2",
  "ReceiveCoilName": "HeadNeck_64",
  "ReconMatrixPE": 104,
  "RepetitionTime": 1.49,
  "SAR": 0.0381219,
  "ScanOptions": "FS",
  "ScanningSequence": "EP",
  "SequenceName": "epfid2d1_104",
  "SequenceVariant": "SK\\SS",
  "SeriesDescription": "func_task-mario_run-01",
  "SeriesNumber": 14,
  "ShimSetting": [639, -7211, -8789, 729, 35, -7, 69, -10],
  "SliceThickness": 2,
  "SliceTiming": [0, 0.785, 0.0975, 0.8825, 0.1975, 0.98, 0.295, 1.0775, 0.3925, 1.1775, 0.49, 1.275, 0.5875, 1.3725, 0.6875, 0, 0.785, 0.0975, 0.8825, 0.1975, 0.98, 0.295, 1.0775, 0.3925, 1.1775, 0.49, 1.275, 0.5875, 1.3725, 0.6875, 0, 0.785, 0.0975, 0.8825, 0.1975, 0.98, 0.295, 1.0775, 0.3925, 1.1775, 0.49, 1.275, 0.5875, 1.3725, 0.6875, 0, 0.785, 0.0975, 0.8825, 0.1975, 0.98, 0.295, 1.0775, 0.3925, 1.1775, 0.49, 1.275, 0.5875, 1.3725, 0.6875],
  "SoftwareVersions": "syngo MR E11",
  "SpacingBetweenSlices": 2,
  "StationName": "MRC35049",
  "TaskName": "mario",
  "TotalReadoutTime": 0.0576811,
  "TxRefAmp": 216.969,
  "WipMemBlock": "9e96a52f-bbf7-4c51-9048-fba11a9a9e12||Sequence: R016 ve11c/master r/e634e98; Dec 19 2017 11:00:25 by eja",
  "dcmmeta_affine": [
    [-1.9970850944519043, -0.029978236183524132, 0.10369338095188141, 107.51407623291016],
    [-0.056875940412282944, 1.9252123832702637, -0.5388156175613403, -69.51490020751953],
    [0.09173952788114548, 0.5409791469573975, 1.9232590198516846, -67.43500518798828],
    [0.0, 0.0, 0.0, 1.0]
],
  "dcmmeta_reorient_transform": [
    [0.0, -1.0, 0.0, 103.0],
    [1.0, 0.0, 0.0, 0.0],
    [0.0, 0.0, 1.0, 0.0],
    [0.0, 0.0, 0.0, 1.0]
],
  "dcmmeta_shape": [104, 104, 60, 472],
  "dcmmeta_slice_dim": 2,
  "dcmmeta_version": 0.6,
  "global": {
    "const": {
      "AcquisitionMatrix": [104, 0, 0, 104],
      "AngioFlag": "N",
      "BitsAllocated": 16,
      "BitsStored": 16,
      "BodyPartExamined": "BRAIN",
      "Columns": 832,
      "EchoNumbers": 1,
      "EchoTime": 37.0,
      "EchoTrainLength": 104,
      "FlipAngle": 52.0,
      "HighBit": 15,
      "ImageOrientationPatient": [0.99854256125526, 0.02843796980991, 0.04586976384149, -0.0149891184278, 0.96260620658813, -0.270489588278],
      "ImagePositionPatient": [-820.45322275989, -850.26213939147, 151.80908226732],
      "ImageType": [
        "ORIGINAL",
        "PRIMARY",
        "P",
        "MB",
        "ND",
        "MOSAIC"
],
      "ImagedNucleus": "1H",
      "ImagingFrequency": 123.258859,
      "InPlanePhaseEncodingDirection": "COL",
      "LargestImagePixelValue": 4095,
      "MRAcquisitionType": "2D",
      "MagneticFieldStrength": 3.0,
      "Manufacturer": "SIEMENS",
      "ManufacturerModelName": "Prisma_fit",
      "Modality": "MR",
      "NumberOfAverages": 1.0,
      "NumberOfPhaseEncodingSteps": 104,
      "PercentPhaseFieldOfView": 100.0,
      "PercentSampling": 100.0,
      "PerformedProcedureStepStartTime": "160722.475000",
      "PhotometricInterpretation": "MONOCHROME2",
      "PixelBandwidth": 2290.0,
      "PixelRepresentation": 0,
      "PixelSpacing": [2.0, 2.0],
      "ProtocolName": "func_task-mario_run-01",
      "RepetitionTime": 1490.0,
      "RescaleIntercept": -4096.0,
      "RescaleSlope": 2.0,
      "RescaleType": "US",
      "Rows": 832,
      "SAR": 0.03812193155688,
      "SamplesPerPixel": 1,
      "ScanOptions": "FS",
      "ScanningSequence": "EP",
      "SequenceName": "epfid2d1_104",
      "SequenceVariant": [
        "SK",
        "SS"
],
      "SeriesDescription": "func_task-mario_run-01",
      "SeriesNumber": 14,
      "SeriesTime": "163412.239000",
      "SliceLocation": -40.545385242753,
      "SliceThickness": 2.0,
      "SmallestImagePixelValue": 0,
      "SoftwareVersions": "syngo MR E11",
      "SpacingBetweenSlices": 1.9999999146273,
      "SpecificCharacterSet": "ISO_IR 100",
      "StudyID": "1",
      "StudyTime": "160722.380000",
      "TransmitCoilName": "Body",
      "VariableFlipAngleFlag": "N",
      "WindowCenterWidthExplanation": "Algo1",
      "dBdt": 0.0},
    "slices": {}
  },
  "time": {
    "samples": {
      "AcquisitionNumber": [1, 2, 3, 4, 5, 6, 7, 8, 9, 10, 11, 12, 13, 14, 15, 16, 17, 18, 19, 20, 21, 22, 23, 24, 25, 26, 27, 28, 29, 30, 31, 32, 33, 34, 35, 36, 37, 38, 39, 40, 41, 42, 43, 44, 45, 46, 47, 48, 49, 50, 51, 52, 53, 54, 55, 56, 57, 58, 59, 60, 61, 62, 63, 64, 65, 66, 67, 68, 69, 70, 71, 72, 73, 74, 75, 76, 77, 78, 79, 80, 81, 82, 83, 84, 85, 86, 87, 88, 89, 90, 91, 92, 93, 94, 95, 96, 97, 98, 99, 100, 101, 102, 103, 104, 105, 106, 107, 108, 109, 110, 111, 112, 113, 114, 115, 116, 117, 118, 119, 120, 121, 122, 123, 124, 125, 126, 127, 128, 129, 130, 131, 132, 133, 134, 135, 136, 137, 138, 139, 140, 141, 142, 143, 144, 145, 146, 147, 148, 149, 150, 151, 152, 153, 154, 155, 156, 157, 158, 159, 160, 161, 162, 163, 164, 165, 166, 167, 168, 169, 170, 171, 172, 173, 174, 175, 176, 177, 178, 179, 180, 181, 182, 183, 184, 185, 186, 187, 188, 189, 190, 191, 192, 193, 194, 195, 196, 197, 198, 199, 200, 201, 202, 203, 204, 205, 206, 207, 208, 209, 210, 211, 212, 213, 214, 215, 216, 217, 218, 219, 220, 221, 222, 223, 224, 225, 226, 227, 228, 229, 230, 231, 232, 233, 234, 235, 236, 237, 238, 239, 240, 241, 242, 243, 244, 245, 246, 247, 248, 249, 250, 251, 252, 253, 254, 255, 256, 257, 258, 259, 260, 261, 262, 263, 264, 265, 266, 267, 268, 269, 270, 271, 272, 273, 274, 275, 276, 277, 278, 279, 280, 281, 282, 283, 284, 285, 286, 287, 288, 289, 290, 291, 292, 293, 294, 295, 296, 297, 298, 299, 300, 301, 302, 303, 304, 305, 306, 307, 308, 309, 310, 311, 312, 313, 314, 315, 316, 317, 318, 319, 320, 321, 322, 323, 324, 325, 326, 327, 328, 329, 330, 331, 332, 333, 334, 335, 336, 337, 338, 339, 340, 341, 342, 343, 344, 345, 346, 347, 348, 349, 350, 351, 352, 353, 354, 355, 356, 357, 358, 359, 360, 361, 362, 363, 364, 365, 366, 367, 368, 369, 370, 371, 372, 373, 374, 375, 376, 377, 378, 379, 380, 381, 382, 383, 384, 385, 386, 387, 388, 389, 390, 391, 392, 393, 394, 395, 396, 397, 398, 399, 400, 401, 402, 403, 404, 405, 406, 407, 408, 409, 410, 411, 412, 413, 414, 415, 416, 417, 418, 419, 420, 421, 422, 423, 424, 425, 426, 427, 428, 429, 430, 431, 432, 433, 434, 435, 436, 437, 438, 439, 440, 441, 442, 443, 444, 445, 446, 447, 448, 449, 450, 451, 452, 453, 454, 455, 456, 457, 458, 459, 460, 461, 462, 463, 464, 465, 466, 467, 468, 469, 470, 471, 472],
      "AcquisitionTime": ["163239.380000", "163240.870000", "163242.360000", "163243.850000", "163245.340000", "163246.830000", "163248.320000", "163249.810000", "163251.300000", "163252.790000", "163254.280000", "163255.770000", "163257.260000", "163258.750000", "163300.240000", "163301.730000", "163303.220000", "163304.710000", "163306.200000", "163307.690000", "163309.180000", "163310.670000", "163312.160000", "163313.650000", "163315.140000", "163316.630000", "163318.120000", "163319.610000", "163321.100000", "163322.590000", "163324.080000", "163325.570000", "163327.060000", "163328.550000", "163330.040000", "163331.530000", "163333.020000", "163334.510000", "163336.000000", "163337.490000", "163338.980000", "163340.470000", "163341.960000", "163343.450000", "163344.940000", "163346.430000", "163347.920000", "163349.410000", "163350.900000", "163352.390000", "163353.880000", "163355.370000", "163356.860000", "163358.350000", "163359.840000", "163401.330000", "163402.820000", "163404.310000", "163405.800000", "163407.290000", "163408.780000", "163410.270000", "163411.760000", "163413.250000", "163414.740000", "163416.230000", "163417.720000", "163419.210000", "163420.700000", "163422.190000", "163423.680000", "163425.170000", "163426.660000", "163428.150000", "163429.640000", "163431.130000", "163432.620000", "163434.110000", "163435.600000", "163437.090000", "163438.580000", "163440.070000", "163441.560000", "163443.050000", "163444.540000", "163446.030000", "163447.520000", "163449.010000", "163450.500000", "163451.990000", "163453.480000", "163454.970000", "163456.460000", "163457.950000", "163459.440000", "163500.930000", "163502.420000", "163503.910000", "163505.400000", "163506.890000", "163508.380000", "163509.870000", "163511.360000", "163512.850000", "163514.340000", "163515.830000", "163517.320000", "163518.810000", "163520.300000", "163521.790000", "163523.280000", "163524.770000", "163526.260000", "163527.750000", "163529.240000", "163530.730000", "163532.220000", "163533.710000", "163535.200000", "163536.690000", "163538.180000", "163539.670000", "163541.160000", "163542.650000", "163544.140000", "163545.630000", "163547.120000", "163548.610000", "163550.100000", "163551.590000", "163553.080000", "163554.570000", "163556.060000", "163557.550000", "163559.040000", "163600.530000", "163602.020000", "163603.510000", "163605.000000", "163606.490000", "163607.980000", "163609.470000", "163610.960000", "163612.450000", "163613.940000", "163615.430000", "163616.920000", "163618.410000", "163619.900000", "163621.390000", "163622.880000", "163624.370000", "163625.860000", "163627.350000", "163628.840000", "163630.330000", "163631.820000", "163633.310000", "163634.800000", "163636.290000", "163637.780000", "163639.270000", "163640.760000", "163642.250000", "163643.740000", "163645.230000", "163646.720000", "163648.210000", "163649.700000", "163651.190000", "163652.680000", "163654.170000", "163655.660000", "163657.150000", "163658.640000", "163700.130000", "163701.620000", "163703.110000", "163704.600000", "163706.090000", "163707.580000", "163709.070000", "163710.560000", "163712.050000", "163713.540000", "163715.030000", "163716.520000", "163718.010000", "163719.500000", "163720.990000", "163722.480000", "163723.970000", "163725.460000", "163726.950000", "163728.440000", "163729.930000", "163731.420000", "163732.910000", "163734.400000", "163735.890000", "163737.380000", "163738.870000", "163740.360000", "163741.850000", "163743.340000", "163744.830000", "163746.320000", "163747.810000", "163749.300000", "163750.790000", "163752.280000", "163753.770000", "163755.260000", "163756.750000", "163758.240000", "163759.730000", "163801.220000", "163802.710000", "163804.200000", "163805.690000", "163807.180000", "163808.670000", "163810.160000", "163811.650000", "163813.140000", "163814.630000", "163816.120000", "163817.610000", "163819.100000", "163820.590000", "163822.080000", "163823.570000", "163825.060000", "163826.550000", "163828.040000", "163829.530000", "163831.020000", "163832.510000", "163834.000000", "163835.490000", "163836.980000", "163838.470000", "163839.960000", "163841.450000", "163842.940000", "163844.430000", "163845.920000", "163847.410000", "163848.900000", "163850.390000", "163851.880000", "163853.370000", "163854.860000", "163856.350000", "163857.840000", "163859.330000", "163900.820000", "163902.310000", "163903.800000", "163905.290000", "163906.780000", "163908.270000", "163909.760000", "163911.250000", "163912.740000", "163914.230000", "163915.720000", "163917.210000", "163918.700000", "163920.190000", "163921.680000", "163923.170000", "163924.660000", "163926.150000", "163927.640000", "163929.130000", "163930.620000", "163932.110000", "163933.600000", "163935.090000", "163936.580000", "163938.070000", "163939.560000", "163941.050000", "163942.540000", "163944.030000", "163945.520000", "163947.010000", "163948.500000", "163949.990000", "163951.480000", "163952.970000", "163954.460000", "163955.950000", "163957.440000", "163958.930000", "164000.420000", "164001.910000", "164003.400000", "164004.890000", "164006.380000", "164007.870000", "164009.360000", "164010.850000", "164012.340000", "164013.830000", "164015.320000", "164016.810000", "164018.300000", "164019.790000", "164021.280000", "164022.770000", "164024.260000", "164025.750000", "164027.240000", "164028.730000", "164030.220000", "164031.710000", "164033.200000", "164034.690000", "164036.180000", "164037.670000", "164039.160000", "164040.650000", "164042.140000", "164043.630000", "164045.120000", "164046.610000", "164048.100000", "164049.590000", "164051.080000", "164052.570000", "164054.060000", "164055.550000", "164057.040000", "164058.530000", "164100.020000", "164101.510000", "164103.000000", "164104.490000", "164105.980000", "164107.470000", "164108.960000", "164110.450000", "164111.940000", "164113.430000", "164114.920000", "164116.410000", "164117.900000", "164119.390000", "164120.880000", "164122.370000", "164123.860000", "164125.350000", "164126.840000", "164128.330000", "164129.820000", "164131.310000", "164132.800000", "164134.290000", "164135.780000", "164137.270000", "164138.760000", "164140.250000", "164141.740000", "164143.230000", "164144.720000", "164146.210000", "164147.700000", "164149.190000", "164150.680000", "164152.170000", "164153.660000", "164155.150000", "164156.640000", "164158.130000", "164159.620000", "164201.110000", "164202.600000", "164204.090000", "164205.580000", "164207.070000", "164208.560000", "164210.050000", "164211.540000", "164213.030000", "164214.520000", "164216.010000", "164217.500000", "164218.990000", "164220.480000", "164221.970000", "164223.460000", "164224.950000", "164226.440000", "164227.930000", "164229.420000", "164230.910000", "164232.400000", "164233.890000", "164235.380000", "164236.870000", "164238.360000", "164239.850000", "164241.340000", "164242.830000", "164244.320000", "164245.810000", "164247.300000", "164248.790000", "164250.280000", "164251.770000", "164253.260000", "164254.750000", "164256.240000", "164257.730000", "164259.220000", "164300.710000", "164302.200000", "164303.690000", "164305.180000", "164306.670000", "164308.160000", "164309.650000", "164311.140000", "164312.630000", "164314.120000", "164315.610000", "164317.100000", "164318.590000", "164320.080000", "164321.570000", "164323.060000", "164324.550000", "164326.040000", "164327.530000", "164329.020000", "164330.510000", "164332.000000", "164333.490000", "164334.980000", "164336.470000", "164337.960000", "164339.450000", "164340.940000", "164342.430000", "164343.920000", "164345.410000", "164346.900000", "164348.390000", "164349.880000", "164351.370000", "164352.860000", "164354.350000", "164355.840000", "164357.330000", "164358.820000", "164400.310000", "164401.800000", "164403.290000", "164404.780000", "164406.270000", "164407.760000", "164409.250000", "164410.740000", "164412.230000", "164413.720000", "164415.210000", "164416.700000", "164418.190000", "164419.680000", "164421.170000"],
      "ContentTime": ["163412.241000", "163412.244000", "163412.246000", "163412.253000", "163412.256000", "163412.258000", "163412.261000", "163412.263000", "163412.266000", "163412.268000", "163412.271000", "163412.273000", "163412.275000", "163412.278000", "163412.280000", "163412.283000", "163412.285000", "163412.288000", "163412.290000", "163412.293000", "163412.295000", "163412.298000", "163412.300000", "163412.302000", "163432.170000", "163432.179000", "163432.181000", "163432.184000", "163432.186000", "163432.188000", "163432.191000", "163432.193000", "163432.196000", "163432.198000", "163432.201000", "163432.203000", "163432.205000", "163432.208000", "163432.210000", "163432.213000", "163432.215000", "163432.218000", "163432.220000", "163432.223000", "163452.163000", "163452.166000", "163452.169000", "163452.171000", "163452.174000", "163452.176000", "163452.178000", "163452.181000", "163452.183000", "163452.186000", "163452.188000", "163452.191000", "163452.193000", "163452.196000", "163452.198000", "163452.201000", "163452.203000", "163452.206000", "163452.208000", "163452.210000", "163512.150000", "163512.153000", "163512.156000", "163512.158000", "163512.161000", "163512.163000", "163512.166000", "163512.168000", "163512.171000", "163512.173000", "163512.175000", "163512.178000", "163512.180000", "163512.183000", "163512.190000", "163512.198000", "163512.201000", "163512.203000", "163512.205000", "163512.208000", "163532.155000", "163532.158000", "163532.161000", "163532.163000", "163532.166000", "163532.168000", "163532.170000", "163532.173000", "163532.175000", "163532.178000", "163532.180000", "163532.183000", "163532.185000", "163532.188000", "163532.190000", "163532.193000", "163532.195000", "163532.208000", "163532.211000", "163532.213000", "163552.167000", "163552.169000", "163552.172000", "163552.174000", "163552.177000", "163552.179000", "163552.182000", "163552.184000", "163552.187000", "163552.189000", "163552.192000", "163552.194000", "163552.197000", "163552.199000", "163552.201000", "163552.204000", "163552.206000", "163552.209000", "163552.211000", "163552.214000", "163632.232000", "163632.235000", "163632.237000", "163632.240000", "163632.242000", "163632.255000", "163632.258000", "163632.260000", "163632.263000", "163632.265000", "163632.268000", "163632.270000", "163632.273000", "163632.275000", "163632.278000", "163632.280000", "163632.283000", "163632.285000", "163632.288000", "163632.302000", "163632.305000", "163632.307000", "163632.310000", "163632.313000", "163632.315000", "163632.318000", "163632.320000", "163632.323000", "163632.325000", "163632.328000", "163632.330000", "163712.188000", "163712.191000", "163712.193000", "163712.196000", "163712.198000", "163712.202000", "163712.204000", "163712.207000", "163712.209000", "163712.212000", "163712.214000", "163712.217000", "163712.219000", "163712.222000", "163712.224000", "163712.227000", "163712.229000", "163712.232000", "163712.234000", "163712.237000", "163712.239000", "163712.242000", "163712.244000", "163712.247000", "163712.249000", "163712.252000", "163712.254000", "163752.721000", "163752.724000", "163752.726000", "163752.728000", "163752.731000", "163752.733000", "163752.736000", "163752.738000", "163752.741000", "163752.743000", "163752.746000", "163752.748000", "163752.761000", "163752.763000", "163752.766000", "163752.768000", "163752.771000", "163752.773000", "163752.776000", "163752.778000", "163752.781000", "163752.783000", "163752.785000", "163752.788000", "163752.790000", "163752.793000", "163752.795000", "163832.187000", "163832.190000", "163832.192000", "163832.195000", "163832.197000", "163832.200000", "163832.202000", "163832.205000", "163832.207000", "163832.210000", "163832.212000", "163832.215000", "163832.217000", "163832.220000", "163832.222000", "163832.225000", "163832.227000", "163832.230000", "163832.232000", "163832.235000", "163832.237000", "163832.240000", "163832.242000", "163832.245000", "163832.247000", "163832.249000", "163832.252000", "163912.206000", "163912.209000", "163912.211000", "163912.214000", "163912.216000", "163912.219000", "163912.221000", "163912.224000", "163912.226000", "163912.229000", "163912.231000", "163912.234000", "163912.236000", "163912.239000", "163912.241000", "163912.243000", "163912.246000", "163912.248000", "163912.251000", "163912.253000", "163912.256000", "163912.258000", "163912.261000", "163912.263000", "163912.266000", "163912.268000", "163912.271000", "163952.197000", "163952.199000", "163952.202000", "163952.204000", "163952.207000", "163952.209000", "163952.212000", "163952.215000", "163952.217000", "163952.219000", "163952.222000", "163952.224000", "163952.227000", "163952.229000", "163952.232000", "163952.234000", "163952.237000", "163952.239000", "163952.242000", "163952.244000", "163952.247000", "163952.249000", "163952.251000", "163952.254000", "163952.256000", "163952.259000", "163952.261000", "164032.194000", "164032.197000", "164032.200000", "164032.202000", "164032.205000", "164032.207000", "164032.209000", "164032.212000", "164032.214000", "164032.217000", "164032.219000", "164032.222000", "164032.224000", "164032.227000", "164032.229000", "164032.232000", "164032.234000", "164032.237000", "164032.239000", "164032.241000", "164032.244000", "164032.246000", "164032.249000", "164032.251000", "164032.254000", "164032.256000", "164032.259000", "164112.195000", "164112.198000", "164112.200000", "164112.203000", "164112.205000", "164112.208000", "164112.210000", "164112.213000", "164112.215000", "164112.218000", "164112.220000", "164112.224000", "164112.228000", "164112.231000", "164112.234000", "164112.237000", "164112.239000", "164112.242000", "164112.244000", "164112.247000", "164112.249000", "164112.252000", "164112.254000", "164112.257000", "164112.259000", "164112.262000", "164152.186000", "164152.189000", "164152.191000", "164152.194000", "164152.196000", "164152.199000", "164152.201000", "164152.204000", "164152.206000", "164152.209000", "164152.211000", "164152.214000", "164152.216000", "164152.219000", "164152.221000", "164152.224000", "164152.226000", "164152.229000", "164152.231000", "164152.233000", "164152.236000", "164152.238000", "164152.241000", "164152.243000", "164152.246000", "164152.248000", "164152.251000", "164232.205000", "164232.208000", "164232.211000", "164232.213000", "164232.216000", "164232.218000", "164232.221000", "164232.232000", "164232.234000", "164232.240000", "164232.242000", "164232.245000", "164232.248000", "164232.250000", "164232.253000", "164232.255000", "164232.258000", "164232.260000", "164232.263000", "164232.265000", "164232.268000", "164232.270000", "164232.273000", "164232.275000", "164232.278000", "164232.280000", "164232.283000", "164312.186000", "164312.189000", "164312.191000", "164312.194000", "164312.196000", "164312.199000", "164312.201000", "164312.203000", "164312.206000", "164312.208000", "164312.211000", "164312.213000", "164312.216000", "164312.218000", "164312.221000", "164312.223000", "164312.226000", "164312.228000", "164312.230000", "164312.233000", "164312.235000", "164312.238000", "164312.240000", "164312.243000", "164312.245000", "164312.248000", "164312.250000", "164352.212000", "164352.214000", "164352.217000", "164352.219000", "164352.222000", "164352.224000", "164352.227000", "164352.229000", "164352.232000", "164352.234000", "164352.236000", "164352.239000", "164352.241000", "164352.244000", "164352.246000", "164352.249000", "164352.251000", "164352.254000", "164352.256000", "164352.259000", "164352.261000", "164352.264000", "164352.266000", "164352.269000", "164352.271000", "164352.274000", "164352.276000", "164424.268000", "164424.271000", "164424.274000", "164424.277000", "164424.279000", "164424.282000", "164424.284000", "164424.287000", "164424.289000", "164424.292000", "164424.294000", "164424.297000", "164424.300000", "164424.302000", "164424.305000", "164424.307000", "164424.310000", "164424.312000", "164424.315000", "164424.317000", "164424.320000"],
