{
  "AcquisitionMatrixPE": 104,
  "AcquisitionNumber": 1,
  "AcquisitionTime": "17:13:45.322500",
  "BandwidthPerPixelPhaseEncode": 17.17,
  "BaseResolution": 104,
  "BodyPartExamined": "BRAIN",
  "CoilCombinationMethod": "Sum of Squares",
  "ConsistencyInfo": "N4_VE11C_LATEST_20160120",
  "ConversionSoftware": "dcm2niix",
  "ConversionSoftwareVersion": "v1.0.20211006",
  "DerivedVendorReportedEchoSpacing": 0.000560011,
  "DeviceSerialNumber": "167006",
  "DwellTime": 2.1e-06,
  "EchoTime": 0.037,
  "EchoTime1": 0.037,
  "EchoTime2": 0.001,
  "EchoTrainLength": 104,
  "EffectiveEchoSpacing": 0.000560011,
  "FlipAngle": 52,
  "HeudiconvVersion": "0.10.0",
  "ImageComments": "Unaliased MB4/PE3/LB",
  "ImageOrientationPatientDICOM": [0.998543, 0.028438, 0.0458698, -0.0149891, 0.962606, -0.27049],
  "ImageOrientationText": "Tra>Cor(-15.7)>Sag(3.0)",
  "ImageType": [
    "ORIGINAL",
    "PRIMARY",
    "P",
    "MB",
    "ND",
    "MOSAIC",
    "PHASE"
],
  "ImagingFrequency": 123.259,
  "InPlanePhaseEncodingDirectionDICOM": "COL",
  "InstitutionAddress": "Chemin Queen-Mary 4565,Montreal,District,CA,H3W 1W5",
  "InstitutionName": "IUGM",
  "InstitutionalDepartmentName": "Department",
  "MRAcquisitionType": "2D",
  "MagneticFieldStrength": 3,
  "Manufacturer": "Siemens",
  "ManufacturersModelName": "Prisma_fit",
  "MatrixCoilMode": "SENSE",
  "Modality": "MR",
  "MultibandAccelerationFactor": 4,
  "PartialFourier": 1,
  "PatientPosition": "HFS",
  "PercentPhaseFOV": 100,
  "PercentSampling": 100,
  "PhaseEncodingDirection": "j",
  "PhaseEncodingSteps": 104,
  "PhaseResolution": 1,
  "PixelBandwidth": 2290,
  "ProcedureStepDescription": "games^mario",
  "ProtocolName": "func_task-mario_run-04",
  "PulseSequenceDetails": "%CustomerSeq%\\cmrr_mbep2d_bold",
  "ReceiveCoilActiveElements": "HC1-7;NC1,2",
  "ReceiveCoilName": "HeadNeck_64",
  "ReconMatrixPE": 104,
  "RepetitionTime": 1.49,
  "SAR": 0.0381219,
  "ScanOptions": "FS",
  "ScanningSequence": "EP",
  "SequenceName": "epfid2d1_104",
  "SequenceVariant": "SK\\SS",
  "SeriesDescription": "func_task-mario_run-04",
  "SeriesNumber": 23,
  "ShimSetting": [639, -7211, -8789, 729, 35, -7, 69, -10],
  "SliceThickness": 2,
  "SliceTiming": [0, 0.7825, 0.0975, 0.88, 0.195, 0.9775, 0.2925, 1.0775, 0.39, 1.175, 0.4875, 1.2725, 0.5875, 1.37, 0.685, 0, 0.7825, 0.0975, 0.88, 0.195, 0.9775, 0.2925, 1.0775, 0.39, 1.175, 0.4875, 1.2725, 0.5875, 1.37, 0.685, 0, 0.7825, 0.0975, 0.88, 0.195, 0.9775, 0.2925, 1.0775, 0.39, 1.175, 0.4875, 1.2725, 0.5875, 1.37, 0.685, 0, 0.7825, 0.0975, 0.88, 0.195, 0.9775, 0.2925, 1.0775, 0.39, 1.175, 0.4875, 1.2725, 0.5875, 1.37, 0.685],
  "SoftwareVersions": "syngo MR E11",
  "SpacingBetweenSlices": 2,
  "StationName": "MRC35049",
  "TaskName": "mario",
  "TotalReadoutTime": 0.0576811,
  "TxRefAmp": 216.969,
  "WipMemBlock": "7505a1ff-cb59-4e0d-ba66-bc2e16bec1c1||Sequence: R016 ve11c/master r/e634e98; Dec 19 2017 11:00:25 by eja",
  "dcmmeta_affine": [
    [-1.9970850944519043, -0.029978236183524132, 0.10369338095188141, 107.51407623291016],
    [-0.056875940412282944, 1.9252123832702637, -0.5388156175613403, -69.51490020751953],
    [0.09173952788114548, 0.5409791469573975, 1.9232590198516846, -67.43500518798828],
    [0.0, 0.0, 0.0, 1.0]
],
  "dcmmeta_reorient_transform": [
    [0.0, -1.0, 0.0, 103.0],
    [1.0, 0.0, 0.0, 0.0],
    [0.0, 0.0, 1.0, 0.0],
    [0.0, 0.0, 0.0, 1.0]
],
  "dcmmeta_shape": [104, 104, 60, 527],
  "dcmmeta_slice_dim": 2,
  "dcmmeta_version": 0.6,
  "global": {
    "const": {
      "AcquisitionMatrix": [104, 0, 0, 104],
      "AngioFlag": "N",
      "BitsAllocated": 16,
      "BitsStored": 16,
      "BodyPartExamined": "BRAIN",
      "Columns": 832,
      "EchoNumbers": 1,
      "EchoTime": 37.0,
      "EchoTrainLength": 104,
      "FlipAngle": 52.0,
      "HighBit": 15,
      "ImageOrientationPatient": [0.99854256125526, 0.02843796980991, 0.04586976384149, -0.0149891184278, 0.96260620658813, -0.270489588278],
      "ImagePositionPatient": [-820.45322275989, -850.26213939147, 151.80908226732],
      "ImageType": [
        "ORIGINAL",
        "PRIMARY",
        "P",
        "MB",
        "ND",
        "MOSAIC"
],
      "ImagedNucleus": "1H",
      "ImagingFrequency": 123.258881,
      "InPlanePhaseEncodingDirection": "COL",
      "LargestImagePixelValue": 4095,
      "MRAcquisitionType": "2D",
      "MagneticFieldStrength": 3.0,
      "Manufacturer": "SIEMENS",
      "ManufacturerModelName": "Prisma_fit",
      "Modality": "MR",
      "NumberOfAverages": 1.0,
      "NumberOfPhaseEncodingSteps": 104,
      "PercentPhaseFieldOfView": 100.0,
      "PercentSampling": 100.0,
      "PerformedProcedureStepStartTime": "160722.475000",
      "PhotometricInterpretation": "MONOCHROME2",
      "PixelBandwidth": 2290.0,
      "PixelRepresentation": 0,
      "PixelSpacing": [2.0, 2.0],
      "ProtocolName": "func_task-mario_run-04",
      "RepetitionTime": 1490.0,
      "RescaleIntercept": -4096.0,
      "RescaleSlope": 2.0,
      "RescaleType": "US",
      "Rows": 832,
      "SAR": 0.03812193155688,
      "SamplesPerPixel": 1,
      "ScanOptions": "FS",
      "ScanningSequence": "EP",
      "SequenceName": "epfid2d1_104",
      "SequenceVariant": [
        "SK",
        "SS"
],
      "SeriesDescription": "func_task-mario_run-04",
      "SeriesNumber": 23,
      "SeriesTime": "171512.268000",
      "SliceLocation": -40.545385242753,
      "SliceThickness": 2.0,
      "SmallestImagePixelValue": 0,
      "SoftwareVersions": "syngo MR E11",
      "SpacingBetweenSlices": 1.9999999146273,
      "SpecificCharacterSet": "ISO_IR 100",
      "StudyID": "1",
      "StudyTime": "160722.380000",
      "TransmitCoilName": "Body",
      "VariableFlipAngleFlag": "N",
      "WindowCenterWidthExplanation": "Algo1",
      "dBdt": 0.0},
    "slices": {}
  },
  "time": {
    "samples": {
      "AcquisitionNumber": [1, 2, 3, 4, 5, 6, 7, 8, 9, 10, 11, 12, 13, 14, 15, 16, 17, 18, 19, 20, 21, 22, 23, 24, 25, 26, 27, 28, 29, 30, 31, 32, 33, 34, 35, 36, 37, 38, 39, 40, 41, 42, 43, 44, 45, 46, 47, 48, 49, 50, 51, 52, 53, 54, 55, 56, 57, 58, 59, 60, 61, 62, 63, 64, 65, 66, 67, 68, 69, 70, 71, 72, 73, 74, 75, 76, 77, 78, 79, 80, 81, 82, 83, 84, 85, 86, 87, 88, 89, 90, 91, 92, 93, 94, 95, 96, 97, 98, 99, 100, 101, 102, 103, 104, 105, 106, 107, 108, 109, 110, 111, 112, 113, 114, 115, 116, 117, 118, 119, 120, 121, 122, 123, 124, 125, 126, 127, 128, 129, 130, 131, 132, 133, 134, 135, 136, 137, 138, 139, 140, 141, 142, 143, 144, 145, 146, 147, 148, 149, 150, 151, 152, 153, 154, 155, 156, 157, 158, 159, 160, 161, 162, 163, 164, 165, 166, 167, 168, 169, 170, 171, 172, 173, 174, 175, 176, 177, 178, 179, 180, 181, 182, 183, 184, 185, 186, 187, 188, 189, 190, 191, 192, 193, 194, 195, 196, 197, 198, 199, 200, 201, 202, 203, 204, 205, 206, 207, 208, 209, 210, 211, 212, 213, 214, 215, 216, 217, 218, 219, 220, 221, 222, 223, 224, 225, 226, 227, 228, 229, 230, 231, 232, 233, 234, 235, 236, 237, 238, 239, 240, 241, 242, 243, 244, 245, 246, 247, 248, 249, 250, 251, 252, 253, 254, 255, 256, 257, 258, 259, 260, 261, 262, 263, 264, 265, 266, 267, 268, 269, 270, 271, 272, 273, 274, 275, 276, 277, 278, 279, 280, 281, 282, 283, 284, 285, 286, 287, 288, 289, 290, 291, 292, 293, 294, 295, 296, 297, 298, 299, 300, 301, 302, 303, 304, 305, 306, 307, 308, 309, 310, 311, 312, 313, 314, 315, 316, 317, 318, 319, 320, 321, 322, 323, 324, 325, 326, 327, 328, 329, 330, 331, 332, 333, 334, 335, 336, 337, 338, 339, 340, 341, 342, 343, 344, 345, 346, 347, 348, 349, 350, 351, 352, 353, 354, 355, 356, 357, 358, 359, 360, 361, 362, 363, 364, 365, 366, 367, 368, 369, 370, 371, 372, 373, 374, 375, 376, 377, 378, 379, 380, 381, 382, 383, 384, 385, 386, 387, 388, 389, 390, 391, 392, 393, 394, 395, 396, 397, 398, 399, 400, 401, 402, 403, 404, 405, 406, 407, 408, 409, 410, 411, 412, 413, 414, 415, 416, 417, 418, 419, 420, 421, 422, 423, 424, 425, 426, 427, 428, 429, 430, 431, 432, 433, 434, 435, 436, 437, 438, 439, 440, 441, 442, 443, 444, 445, 446, 447, 448, 449, 450, 451, 452, 453, 454, 455, 456, 457, 458, 459, 460, 461, 462, 463, 464, 465, 466, 467, 468, 469, 470, 471, 472, 473, 474, 475, 476, 477, 478, 479, 480, 481, 482, 483, 484, 485, 486, 487, 488, 489, 490, 491, 492, 493, 494, 495, 496, 497, 498, 499, 500, 501, 502, 503, 504, 505, 506, 507, 508, 509, 510, 511, 512, 513, 514, 515, 516, 517, 518, 519, 520, 521, 522, 523, 524, 525, 526, 527],
      "AcquisitionTime": ["171345.322500", "171346.812500", "171348.302500", "171349.792500", "171351.282500", "171352.772500", "171354.262500", "171355.752500", "171357.242500", "171358.732500", "171400.222500", "171401.712500", "171403.202500", "171404.692500", "171406.182500", "171407.672500", "171409.162500", "171410.652500", "171412.142500", "171413.632500", "171415.122500", "171416.612500", "171418.102500", "171419.592500", "171421.082500", "171422.572500", "171424.062500", "171425.552500", "171427.042500", "171428.532500", "171430.022500", "171431.512500", "171433.002500", "171434.492500", "171435.982500", "171437.472500", "171438.962500", "171440.452500", "171441.942500", "171443.432500", "171444.922500", "171446.412500", "171447.902500", "171449.392500", "171450.882500", "171452.372500", "171453.862500", "171455.352500", "171456.842500", "171458.332500", "171459.822500", "171501.312500", "171502.802500", "171504.292500", "171505.782500", "171507.272500", "171508.762500", "171510.252500", "171511.742500", "171513.232500", "171514.722500", "171516.212500", "171517.702500", "171519.192500", "171520.682500", "171522.172500", "171523.662500", "171525.152500", "171526.642500", "171528.132500", "171529.622500", "171531.112500", "171532.602500", "171534.092500", "171535.582500", "171537.072500", "171538.562500", "171540.052500", "171541.542500", "171543.032500", "171544.522500", "171546.012500", "171547.502500", "171548.992500", "171550.482500", "171551.972500", "171553.462500", "171554.952500", "171556.442500", "171557.932500", "171559.422500", "171600.912500", "171602.402500", "171603.892500", "171605.382500", "171606.872500", "171608.362500", "171609.852500", "171611.342500", "171612.832500", "171614.322500", "171615.812500", "171617.302500", "171618.792500", "171620.282500", "171621.772500", "171623.262500", "171624.752500", "171626.242500", "171627.732500", "171629.222500", "171630.712500", "171632.202500", "171633.692500", "171635.182500", "171636.672500", "171638.162500", "171639.652500", "171641.142500", "171642.632500", "171644.122500", "171645.612500", "171647.102500", "171648.592500", "171650.082500", "171651.572500", "171653.062500", "171654.552500", "171656.042500", "171657.532500", "171659.022500", "171700.512500", "171702.002500", "171703.492500", "171704.982500", "171706.472500", "171707.962500", "171709.452500", "171710.942500", "171712.432500", "171713.922500", "171715.412500", "171716.902500", "171718.392500", "171719.882500", "171721.372500", "171722.862500", "171724.352500", "171725.842500", "171727.332500", "171728.822500", "171730.312500", "171731.802500", "171733.292500", "171734.782500", "171736.272500", "171737.762500", "171739.252500", "171740.742500", "171742.232500", "171743.722500", "171745.212500", "171746.702500", "171748.192500", "171749.682500", "171751.172500", "171752.662500", "171754.152500", "171755.642500", "171757.132500", "171758.622500", "171800.112500", "171801.602500", "171803.092500", "171804.582500", "171806.072500", "171807.562500", "171809.052500", "171810.542500", "171812.032500", "171813.522500", "171815.012500", "171816.502500", "171817.992500", "171819.482500", "171820.972500", "171822.462500", "171823.952500", "171825.442500", "171826.932500", "171828.422500", "171829.912500", "171831.402500", "171832.892500", "171834.382500", "171835.872500", "171837.362500", "171838.852500", "171840.342500", "171841.832500", "171843.322500", "171844.812500", "171846.302500", "171847.792500", "171849.282500", "171850.772500", "171852.262500", "171853.752500", "171855.242500", "171856.732500", "171858.222500", "171859.712500", "171901.202500", "171902.692500", "171904.182500", "171905.672500", "171907.162500", "171908.652500", "171910.142500", "171911.632500", "171913.122500", "171914.612500", "171916.102500", "171917.592500", "171919.082500", "171920.572500", "171922.062500", "171923.552500", "171925.042500", "171926.532500", "171928.022500", "171929.512500", "171931.002500", "171932.492500", "171933.982500", "171935.472500", "171936.962500", "171938.452500", "171939.942500", "171941.432500", "171942.922500", "171944.412500", "171945.902500", "171947.392500", "171948.882500", "171950.372500", "171951.862500", "171953.352500", "171954.842500", "171956.332500", "171957.822500", "171959.312500", "172000.802500", "172002.292500", "172003.782500", "172005.272500", "172006.762500", "172008.252500", "172009.742500", "172011.232500", "172012.722500", "172014.212500", "172015.702500", "172017.192500", "172018.682500", "172020.172500", "172021.662500", "172023.152500", "172024.642500", "172026.132500", "172027.622500", "172029.112500", "172030.602500", "172032.092500", "172033.582500", "172035.072500", "172036.562500", "172038.052500", "172039.542500", "172041.032500", "172042.522500", "172044.012500", "172045.502500", "172046.992500", "172048.482500", "172049.972500", "172051.462500", "172052.952500", "172054.442500", "172055.932500", "172057.422500", "172058.912500", "172100.402500", "172101.892500", "172103.382500", "172104.872500", "172106.362500", "172107.852500", "172109.342500", "172110.832500", "172112.322500", "172113.812500", "172115.302500", "172116.792500", "172118.282500", "172119.772500", "172121.262500", "172122.752500", "172124.242500", "172125.732500", "172127.222500", "172128.712500", "172130.202500", "172131.692500", "172133.182500", "172134.672500", "172136.162500", "172137.652500", "172139.142500", "172140.632500", "172142.122500", "172143.612500", "172145.102500", "172146.592500", "172148.082500", "172149.572500", "172151.062500", "172152.552500", "172154.042500", "172155.532500", "172157.022500", "172158.512500", "172200.002500", "172201.492500", "172202.982500", "172204.472500", "172205.962500", "172207.452500", "172208.942500", "172210.432500", "172211.922500", "172213.412500", "172214.902500", "172216.392500", "172217.882500", "172219.372500", "172220.862500", "172222.352500", "172223.842500", "172225.332500", "172226.822500", "172228.312500", "172229.802500", "172231.292500", "172232.782500", "172234.272500", "172235.762500", "172237.252500", "172238.742500", "172240.232500", "172241.722500", "172243.212500", "172244.702500", "172246.192500", "172247.682500", "172249.172500", "172250.662500", "172252.152500", "172253.642500", "172255.132500", "172256.622500", "172258.112500", "172259.602500", "172301.092500", "172302.582500", "172304.072500", "172305.562500", "172307.052500", "172308.542500", "172310.032500", "172311.522500", "172313.012500", "172314.502500", "172315.992500", "172317.482500", "172318.972500", "172320.462500", "172321.952500", "172323.442500", "172324.932500", "172326.422500", "172327.912500", "172329.402500", "172330.892500", "172332.382500", "172333.872500", "172335.362500", "172336.852500", "172338.342500", "172339.832500", "172341.322500", "172342.812500", "172344.302500", "172345.792500", "172347.282500", "172348.772500", "172350.262500", "172351.752500", "172353.242500", "172354.732500", "172356.222500", "172357.712500", "172359.202500", "172400.692500", "172402.182500", "172403.672500", "172405.162500", "172406.652500", "172408.142500", "172409.632500", "172411.122500", "172412.612500", "172414.102500", "172415.592500", "172417.082500", "172418.572500", "172420.062500", "172421.552500", "172423.042500", "172424.532500", "172426.022500", "172427.512500", "172429.002500", "172430.492500", "172431.982500", "172433.472500", "172434.962500", "172436.452500", "172437.942500", "172439.432500", "172440.922500", "172442.412500", "172443.902500", "172445.392500", "172446.882500", "172448.372500", "172449.862500", "172451.352500", "172452.842500", "172454.332500", "172455.822500", "172457.312500", "172458.802500", "172500.292500", "172501.782500", "172503.272500", "172504.762500", "172506.252500", "172507.742500", "172509.232500", "172510.722500", "172512.212500", "172513.702500", "172515.192500", "172516.682500", "172518.172500", "172519.662500", "172521.152500", "172522.642500", "172524.132500", "172525.622500", "172527.112500", "172528.602500", "172530.092500", "172531.582500", "172533.072500", "172534.562500", "172536.052500", "172537.542500", "172539.032500", "172540.522500", "172542.012500", "172543.502500", "172544.992500", "172546.482500", "172547.972500", "172549.462500", "172550.952500", "172552.442500", "172553.932500", "172555.422500", "172556.912500", "172558.402500", "172559.892500", "172601.382500", "172602.872500", "172604.362500", "172605.852500", "172607.342500", "172608.832500", "172610.322500", "172611.812500", "172613.302500", "172614.792500", "172616.282500", "172617.772500", "172619.262500", "172620.752500", "172622.242500", "172623.732500", "172625.222500", "172626.712500", "172628.202500", "172629.692500", "172631.182500", "172632.672500", "172634.162500", "172635.652500", "172637.142500", "172638.632500", "172640.122500", "172641.612500", "172643.102500", "172644.592500", "172646.082500", "172647.572500", "172649.062500"],
      "ContentTime": ["171512.270000", "171512.273000", "171512.275000", "171512.278000", "171512.280000", "171512.283000", "171512.285000", "171512.288000", "171512.290000", "171512.293000", "171512.295000", "171512.298000", "171512.300000", "171512.303000", "171512.305000", "171512.311000", "171512.314000", "171512.316000", "171512.319000", "171512.321000", "171512.324000", "171512.326000", "171512.329000", "171512.331000", "171512.334000", "171512.337000", "171512.339000", "171512.342000", "171512.345000", "171512.348000", "171512.350000", "171512.353000", "171512.356000", "171512.358000", "171532.158000", "171532.161000", "171532.164000", "171532.166000", "171532.169000", "171532.171000", "171532.174000", "171532.176000", "171532.179000", "171532.181000", "171532.184000", "171532.187000", "171532.189000", "171532.191000", "171532.194000", "171532.196000", "171532.199000", "171532.205000", "171532.208000", "171532.210000", "171552.157000", "171552.160000", "171552.162000", "171552.165000", "171552.167000", "171552.170000", "171552.173000", "171552.175000", "171552.178000", "171552.180000", "171552.183000", "171552.185000", "171552.188000", "171552.190000", "171552.193000", "171552.195000", "171552.198000", "171552.200000", "171552.203000", "171552.205000", "171612.162000", "171612.165000", "171612.167000", "171612.170000", "171612.172000", "171612.178000", "171612.181000", "171612.184000", "171612.186000", "171612.189000", "171612.191000", "171612.193000", "171612.196000", "171612.199000", "171612.201000", "171612.203000", "171612.206000", "171612.209000", "171612.211000", "171612.213000", "171612.216000", "171652.598000", "171652.601000", "171652.603000", "171652.606000", "171652.608000", "171652.611000", "171652.613000", "171652.616000", "171652.618000", "171652.621000", "171652.623000", "171652.626000", "171652.628000", "171652.631000", "171652.633000", "171652.636000", "171652.638000", "171652.641000", "171652.643000", "171652.646000", "171652.648000", "171652.651000", "171652.653000", "171652.656000", "171652.658000", "171652.661000", "171652.663000", "171652.674000", "171652.676000", "171652.679000", "171712.145000", "171712.147000", "171712.150000", "171712.152000", "171712.154000", "171712.157000", "171712.159000", "171712.162000", "171712.164000", "171712.167000", "171712.169000", "171712.172000", "171712.174000", "171752.177000", "171752.179000", "171752.182000", "171752.184000", "171752.187000", "171752.189000", "171752.192000", "171752.194000", "171752.197000", "171752.199000", "171752.202000", "171752.204000", "171752.206000", "171752.209000", "171752.211000", "171752.214000", "171752.216000", "171752.219000", "171752.221000", "171752.223000", "171752.226000", "171752.228000", "171752.231000", "171752.233000", "171752.236000", "171752.238000", "171752.241000", "171832.172000", "171832.175000", "171832.178000", "171832.180000", "171832.182000", "171832.185000", "171832.187000", "171832.190000", "171832.192000", "171832.195000", "171832.197000", "171832.200000", "171832.202000", "171832.205000", "171832.207000", "171832.210000", "171832.212000", "171832.214000", "171832.217000", "171832.219000", "171832.222000", "171832.224000", "171832.227000", "171832.229000", "171832.232000", "171832.234000", "171832.236000", "171912.186000", "171912.188000", "171912.191000", "171912.193000", "171912.195000", "171912.198000", "171912.200000", "171912.203000", "171912.205000", "171912.208000", "171912.210000", "171912.213000", "171912.215000", "171912.218000", "171912.220000", "171912.222000", "171912.225000", "171912.227000", "171912.230000", "171912.232000", "171912.235000", "171912.237000", "171912.239000", "171912.242000", "171912.244000", "171912.247000", "171952.177000", "171952.180000", "171952.183000", "171952.185000", "171952.187000", "171952.190000", "171952.192000", "171952.195000", "171952.197000", "171952.200000", "171952.202000", "171952.204000", "171952.207000", "171952.209000", "171952.212000", "171952.214000", "171952.217000", "171952.219000", "171952.228000", "171952.231000", "171952.233000", "171952.236000", "171952.238000", "171952.241000", "171952.243000", "171952.246000", "171952.248000", "172032.191000", "172032.193000", "172032.196000", "172032.198000", "172032.201000", "172032.203000", "172032.206000", "172032.208000", "172032.211000", "172032.213000", "172032.216000", "172032.218000", "172032.220000", "172032.223000", "172032.225000", "172032.228000", "172032.230000", "172032.233000", "172032.235000", "172032.238000", "172032.240000", "172032.243000", "172032.245000", "172032.248000", "172032.250000", "172032.252000", "172032.255000", "172112.181000", "172112.183000", "172112.186000", "172112.189000", "172112.191000", "172112.195000", "172112.197000", "172112.200000", "172112.202000", "172112.205000", "172112.207000", "172112.210000", "172112.212000", "172112.215000", "172112.218000", "172112.220000", "172112.222000", "172112.225000", "172112.227000", "172112.230000", "172112.232000", "172112.235000", "172112.237000", "172112.240000", "172112.242000", "172112.245000", "172112.248000", "172152.199000", "172152.202000", "172152.205000", "172152.207000", "172152.209000", "172152.212000", "172152.214000", "172152.217000", "172152.219000", "172152.222000", "172152.224000", "172152.227000", "172152.229000", "172152.232000", "172152.234000", "172152.237000", "172152.239000", "172152.241000", "172152.244000", "172152.247000", "172152.249000", "172152.252000", "172152.254000", "172152.257000", "172152.259000", "172152.262000", "172152.264000", "172232.179000", "172232.182000", "172232.185000", "172232.187000", "172232.190000", "172232.192000", "172232.195000", "172232.197000", "172232.200000", "172232.202000", "172232.204000", "172232.207000", "172232.210000", "172232.212000", "172232.215000", "172232.217000", "172232.219000", "172232.222000", "172232.224000", "172232.227000", "172232.229000", "172232.232000", "172232.234000", "172232.237000", "172232.239000", "172232.241000", "172232.244000", "172312.199000", "172312.202000", "172312.204000", "172312.207000", "172312.209000", "172312.212000", "172312.221000", "172312.224000", "172312.226000", "172312.228000", "172312.231000", "172312.233000", "172312.236000", "172312.238000", "172312.241000", "172312.243000", "172312.245000", "172312.248000", "172312.250000", "172312.253000", "172312.255000", "172312.258000", "172312.260000", "172312.263000", "172312.265000", "172312.268000", "172312.270000", "172352.178000", "172352.181000", "172352.184000", "172352.187000", "172352.189000", "172352.192000", "172352.195000", "172352.197000", "172352.200000", "172352.225000", "172352.228000", "172352.230000", "172352.233000", "172352.235000", "172352.238000", "172352.240000", "172352.243000", "172352.245000", "172352.247000", "172352.250000", "172352.252000", "172352.255000", "172352.257000", "172352.260000", "172352.262000", "172352.265000", "172432.205000", "172432.207000", "172432.215000", "172432.217000", "172432.220000", "172432.222000", "172432.225000", "172432.227000", "172432.230000", "172432.232000", "172432.235000", "172432.237000", "172432.240000", "172432.242000", "172432.245000", "172432.247000", "172432.250000", "172432.252000", "172432.255000", "172432.257000", "172432.260000", "172432.262000", "172432.265000", "172432.267000", "172432.270000", "172432.272000", "172432.275000", "172512.202000", "172512.204000", "172512.207000", "172512.209000", "172512.212000", "172512.214000", "172512.217000", "172512.228000", "172512.231000", "172512.233000", "172512.236000", "172512.238000", "172512.241000", "172512.243000", "172512.245000", "172512.248000", "172512.250000", "172512.253000", "172512.255000", "172512.258000", "172512.260000", "172512.263000", "172512.265000", "172512.267000", "172512.270000", "172512.272000", "172512.275000", "172552.181000", "172552.184000", "172552.187000", "172552.189000", "172552.192000", "172552.194000", "172552.197000", "172552.199000", "172552.202000", "172552.204000", "172552.207000", "172552.209000", "172552.212000", "172552.214000", "172552.217000", "172552.226000", "172552.229000", "172552.231000", "172552.234000", "172552.236000", "172552.239000", "172552.241000", "172552.244000", "172552.246000", "172552.249000", "172552.251000", "172552.254000", "172632.195000", "172632.198000", "172632.200000", "172632.203000", "172632.205000", "172632.208000", "172632.210000", "172632.213000", "172632.215000", "172632.218000", "172632.220000", "172632.223000", "172632.225000", "172632.228000", "172632.230000", "172632.233000", "172632.235000", "172632.238000", "172632.240000", "172632.243000", "172632.245000", "172632.253000", "172632.256000", "172632.258000", "172632.261000", "172632.263000", "172632.266000", "172652.383000", "172652.386000", "172652.389000", "172652.391000", "172652.394000", "172652.396000", "172652.399000", "172652.401000", "172652.403000", "172652.406000", "172652.409000", "172652.411000", "172652.413000"],
