{
  "AcquisitionMatrixPE": 104,
  "AcquisitionNumber": 1,
  "AcquisitionTime": "14:25:57.860000",
  "BandwidthPerPixelPhaseEncode": 17.17,
  "BaseResolution": 104,
  "BodyPartExamined": "BRAIN",
  "CoilString": "HC1-7;NC1_2",
  "ConsistencyInfo": "N4_VE11C_LATEST_20160120",
  "ConversionSoftware": "dcm2niix",
  "ConversionSoftwareVersion": "v1.0.20190902",
  "DerivedVendorReportedEchoSpacing": 0.000560011,
  "DeviceSerialNumber": "167006",
  "DwellTime": 2.1e-06,
  "EchoTime": 0.037,
  "EchoTrainLength": 104,
  "EffectiveEchoSpacing": 0.000560011,
  "FlipAngle": 52,
  "HeudiconvVersion": "0.10.0",
  "ImageComments": "Unaliased_MB4_PE3_LB",
  "ImageOrientationPatientDICOM": [0.999951, 0.00925734, 0.00337892, -0.0062829, 0.863028, -0.505116],
  "ImageType": [
    "ORIGINAL",
    "PRIMARY",
    "P",
    "MB",
    "ND",
    "MOSAIC"
],
  "ImagingFrequency": 123.259,
  "InPlanePhaseEncodingDirectionDICOM": "COL",
  "InstitutionAddress": "Chemin_Queen-Mary_4565_Montreal_District_CA_H3W_1W5",
  "InstitutionName": "IUGM",
  "InstitutionalDepartmentName": "Department",
  "MRAcquisitionType": "2D",
  "MagneticFieldStrength": 3,
  "Manufacturer": "Siemens",
  "ManufacturersModelName": "Prisma_fit",
  "Modality": "MR",
  "MultibandAccelerationFactor": 4,
  "PartialFourier": 1,
  "PatientPosition": "HFS",
  "PercentPhaseFOV": 100,
  "PhaseEncodingDirection": "j",
  "PhaseEncodingSteps": 104,
  "PhaseResolution": 1,
  "PixelBandwidth": 2290,
  "ProcedureStepDescription": "games_mario",
  "ProtocolName": "func_task-mario_run-04",
  "PulseSequenceDetails": "%CustomerSeq%_cmrr_mbep2d_bold",
  "ReceiveCoilActiveElements": "HC1-7;NC1,2",
  "ReceiveCoilName": "HeadNeck_64",
  "ReconMatrixPE": 104,
  "RepetitionTime": 1.49,
  "SAR": 0.0553838,
  "ScanOptions": "FS",
  "ScanningSequence": "EP",
  "SequenceName": "epfid2d1_104",
  "SequenceVariant": "SK_SS",
  "SeriesDescription": "func_task-mario_run-04",
  "SeriesNumber": 20,
  "ShimSetting": [617, -7171, -8865, 310, 23, -113, -14, -57],
  "SliceThickness": 2,
  "SliceTiming": [0, 0.785, 0.1, 0.8825, 0.1975, 0.98, 0.295, 1.0775, 0.3925, 1.1775, 0.49, 1.275, 0.59, 1.3725, 0.6875, 0, 0.785, 0.1, 0.8825, 0.1975, 0.98, 0.295, 1.0775, 0.3925, 1.1775, 0.49, 1.275, 0.59, 1.3725, 0.6875, 0, 0.785, 0.1, 0.8825, 0.1975, 0.98, 0.295, 1.0775, 0.3925, 1.1775, 0.49, 1.275, 0.59, 1.3725, 0.6875, 0, 0.785, 0.1, 0.8825, 0.1975, 0.98, 0.295, 1.0775, 0.3925, 1.1775, 0.49, 1.275, 0.59, 1.3725, 0.6875],
  "SoftwareVersions": "syngo_MR_E11",
  "SpacingBetweenSlices": 2,
  "StationName": "MRC35049",
  "TaskName": "mario",
  "TotalReadoutTime": 0.0576811,
  "TxRefAmp": 286.472,
  "WipMemBlock": "2b0b9944-6fd2-4ffb-bc09-aeec79eded9e||Sequence: R016 ve11c/master r/e634e98; Dec 19 2017 11:00:25 by eja",
  "dcmmeta_affine": [
    [-1.9999028444290161, -0.012565802782773972, 0.015184275805950165, 107.73764038085938],
    [-0.01851467601954937, 1.726056694984436, -1.0101412534713745, -50.71147537231445],
    [0.006757842376828194, 1.0102328062057495, 1.7260891199111938, -95.2027587890625],
    [0.0, 0.0, 0.0, 1.0]
],
  "dcmmeta_reorient_transform": [
    [0.0, -1.0, 0.0, 103.0],
    [1.0, 0.0, 0.0, 0.0],
    [0.0, 0.0, 1.0, 0.0],
    [0.0, 0.0, 0.0, 1.0]
],
  "dcmmeta_shape": [104, 104, 60, 441],
  "dcmmeta_slice_dim": 2,
  "dcmmeta_version": 0.6,
  "global": {
    "const": {
      "AcquisitionMatrix": [104, 0, 0, 104],
      "AngioFlag": "N",
      "BitsAllocated": 16,
      "BitsStored": 16,
      "BodyPartExamined": "BRAIN",
      "Columns": 832,
      "EchoNumbers": 1,
      "EchoTime": 37.0,
      "EchoTrainLength": 104,
      "FlipAngle": 52.0,
      "HighBit": 15,
      "ImageOrientationPatient": [0.99995144111502, 0.00925733778454, 0.0033789212983, -0.0062829014706, 0.86302835249833, -0.505116410279],
      "ImagePositionPatient": [-829.83406142711, -762.09634672013, 374.11611161441],
      "ImageType": [
        "ORIGINAL",
        "PRIMARY",
        "P",
        "MB",
        "ND",
        "MOSAIC"
],
      "ImagedNucleus": "1H",
      "ImagingFrequency": 123.258939,
      "InPlanePhaseEncodingDirection": "COL",
      "LargestImagePixelValue": 4095,
      "MRAcquisitionType": "2D",
      "MagneticFieldStrength": 3.0,
      "Manufacturer": "SIEMENS",
      "ManufacturerModelName": "Prisma_fit",
      "Modality": "MR",
      "NumberOfAverages": 1.0,
      "NumberOfPhaseEncodingSteps": 104,
      "PercentPhaseFieldOfView": 100.0,
      "PercentSampling": 100.0,
      "PerformedProcedureStepStartTime": "134445.256000",
      "PhotometricInterpretation": "MONOCHROME2",
      "PixelBandwidth": 2290.0,
      "PixelRepresentation": 0,
      "PixelSpacing": [2.0, 2.0],
      "ProtocolName": "func_task-mario_run-04",
      "RepetitionTime": 1490.0,
      "RescaleIntercept": -4096.0,
      "RescaleSlope": 2.0,
      "RescaleType": "US",
      "Rows": 832,
      "SAR": 0.05538377760352,
      "SamplesPerPixel": 1,
      "ScanOptions": "FS",
      "ScanningSequence": "EP",
      "SequenceName": "epfid2d1_104",
      "SequenceVariant": [
        "SK",
        "SS"
],
      "SeriesDescription": "func_task-mario_run-04",
      "SeriesNumber": 20,
      "SeriesTime": "142728.376000",
      "SliceLocation": -55.733391852622,
      "SliceThickness": 2.0,
      "SmallestImagePixelValue": 0,
      "SoftwareVersions": "syngo MR E11",
      "SpacingBetweenSlices": 1.9999999320517,
      "SpecificCharacterSet": "ISO_IR 100",
      "StudyID": "1",
      "StudyTime": "134445.193000",
      "TransmitCoilName": "Body",
      "VariableFlipAngleFlag": "N",
      "WindowCenterWidthExplanation": "Algo1",
      "dBdt": 0.0},
    "slices": {}
  },
  "time": {
    "samples": {
      "AcquisitionNumber": [1, 2, 3, 4, 5, 6, 7, 8, 9, 10, 11, 12, 13, 14, 15, 16, 17, 18, 19, 20, 21, 22, 23, 24, 25, 26, 27, 28, 29, 30, 31, 32, 33, 34, 35, 36, 37, 38, 39, 40, 41, 42, 43, 44, 45, 46, 47, 48, 49, 50, 51, 52, 53, 54, 55, 56, 57, 58, 59, 60, 61, 62, 63, 64, 65, 66, 67, 68, 69, 70, 71, 72, 73, 74, 75, 76, 77, 78, 79, 80, 81, 82, 83, 84, 85, 86, 87, 88, 89, 90, 91, 92, 93, 94, 95, 96, 97, 98, 99, 100, 101, 102, 103, 104, 105, 106, 107, 108, 109, 110, 111, 112, 113, 114, 115, 116, 117, 118, 119, 120, 121, 122, 123, 124, 125, 126, 127, 128, 129, 130, 131, 132, 133, 134, 135, 136, 137, 138, 139, 140, 141, 142, 143, 144, 145, 146, 147, 148, 149, 150, 151, 152, 153, 154, 155, 156, 157, 158, 159, 160, 161, 162, 163, 164, 165, 166, 167, 168, 169, 170, 171, 172, 173, 174, 175, 176, 177, 178, 179, 180, 181, 182, 183, 184, 185, 186, 187, 188, 189, 190, 191, 192, 193, 194, 195, 196, 197, 198, 199, 200, 201, 202, 203, 204, 205, 206, 207, 208, 209, 210, 211, 212, 213, 214, 215, 216, 217, 218, 219, 220, 221, 222, 223, 224, 225, 226, 227, 228, 229, 230, 231, 232, 233, 234, 235, 236, 237, 238, 239, 240, 241, 242, 243, 244, 245, 246, 247, 248, 249, 250, 251, 252, 253, 254, 255, 256, 257, 258, 259, 260, 261, 262, 263, 264, 265, 266, 267, 268, 269, 270, 271, 272, 273, 274, 275, 276, 277, 278, 279, 280, 281, 282, 283, 284, 285, 286, 287, 288, 289, 290, 291, 292, 293, 294, 295, 296, 297, 298, 299, 300, 301, 302, 303, 304, 305, 306, 307, 308, 309, 310, 311, 312, 313, 314, 315, 316, 317, 318, 319, 320, 321, 322, 323, 324, 325, 326, 327, 328, 329, 330, 331, 332, 333, 334, 335, 336, 337, 338, 339, 340, 341, 342, 343, 344, 345, 346, 347, 348, 349, 350, 351, 352, 353, 354, 355, 356, 357, 358, 359, 360, 361, 362, 363, 364, 365, 366, 367, 368, 369, 370, 371, 372, 373, 374, 375, 376, 377, 378, 379, 380, 381, 382, 383, 384, 385, 386, 387, 388, 389, 390, 391, 392, 393, 394, 395, 396, 397, 398, 399, 400, 401, 402, 403, 404, 405, 406, 407, 408, 409, 410, 411, 412, 413, 414, 415, 416, 417, 418, 419, 420, 421, 422, 423, 424, 425, 426, 427, 428, 429, 430, 431, 432, 433, 434, 435, 436, 437, 438, 439, 440, 441],
      "AcquisitionTime": ["142557.860000", "142559.350000", "142600.840000", "142602.330000", "142603.820000", "142605.310000", "142606.800000", "142608.290000", "142609.780000", "142611.270000", "142612.760000", "142614.250000", "142615.740000", "142617.230000", "142618.720000", "142620.210000", "142621.700000", "142623.190000", "142624.680000", "142626.170000", "142627.660000", "142629.150000", "142630.640000", "142632.130000", "142633.620000", "142635.110000", "142636.600000", "142638.090000", "142639.580000", "142641.070000", "142642.560000", "142644.050000", "142645.540000", "142647.030000", "142648.520000", "142650.010000", "142651.500000", "142652.990000", "142654.480000", "142655.970000", "142657.460000", "142658.950000", "142700.440000", "142701.930000", "142703.420000", "142704.910000", "142706.400000", "142707.890000", "142709.380000", "142710.870000", "142712.360000", "142713.850000", "142715.340000", "142716.830000", "142718.320000", "142719.810000", "142721.300000", "142722.790000", "142724.280000", "142725.770000", "142727.260000", "142728.750000", "142730.240000", "142731.730000", "142733.220000", "142734.710000", "142736.200000", "142737.690000", "142739.180000", "142740.670000", "142742.160000", "142743.650000", "142745.140000", "142746.630000", "142748.120000", "142749.610000", "142751.100000", "142752.590000", "142754.080000", "142755.570000", "142757.060000", "142758.550000", "142800.040000", "142801.530000", "142803.020000", "142804.510000", "142806.000000", "142807.490000", "142808.980000", "142810.470000", "142811.960000", "142813.450000", "142814.940000", "142816.430000", "142817.920000", "142819.410000", "142820.900000", "142822.390000", "142823.880000", "142825.370000", "142826.860000", "142828.350000", "142829.840000", "142831.330000", "142832.820000", "142834.310000", "142835.800000", "142837.290000", "142838.780000", "142840.270000", "142841.760000", "142843.250000", "142844.740000", "142846.230000", "142847.720000", "142849.210000", "142850.700000", "142852.190000", "142853.680000", "142855.170000", "142856.660000", "142858.150000", "142859.640000", "142901.130000", "142902.620000", "142904.110000", "142905.600000", "142907.090000", "142908.580000", "142910.070000", "142911.560000", "142913.050000", "142914.540000", "142916.030000", "142917.520000", "142919.010000", "142920.500000", "142921.990000", "142923.480000", "142924.970000", "142926.460000", "142927.950000", "142929.440000", "142930.930000", "142932.420000", "142933.910000", "142935.400000", "142936.890000", "142938.380000", "142939.870000", "142941.360000", "142942.850000", "142944.340000", "142945.830000", "142947.320000", "142948.810000", "142950.300000", "142951.790000", "142953.280000", "142954.770000", "142956.260000", "142957.750000", "142959.240000", "143000.730000", "143002.220000", "143003.710000", "143005.200000", "143006.690000", "143008.180000", "143009.670000", "143011.160000", "143012.650000", "143014.140000", "143015.630000", "143017.120000", "143018.610000", "143020.100000", "143021.590000", "143023.080000", "143024.570000", "143026.060000", "143027.550000", "143029.040000", "143030.530000", "143032.020000", "143033.510000", "143035.000000", "143036.490000", "143037.980000", "143039.470000", "143040.960000", "143042.450000", "143043.940000", "143045.430000", "143046.920000", "143048.410000", "143049.900000", "143051.390000", "143052.880000", "143054.370000", "143055.860000", "143057.350000", "143058.840000", "143100.330000", "143101.820000", "143103.310000", "143104.800000", "143106.290000", "143107.780000", "143109.270000", "143110.760000", "143112.250000", "143113.740000", "143115.230000", "143116.720000", "143118.210000", "143119.700000", "143121.190000", "143122.680000", "143124.170000", "143125.660000", "143127.150000", "143128.640000", "143130.130000", "143131.620000", "143133.110000", "143134.600000", "143136.090000", "143137.580000", "143139.070000", "143140.560000", "143142.050000", "143143.540000", "143145.030000", "143146.520000", "143148.010000", "143149.500000", "143150.990000", "143152.480000", "143153.970000", "143155.460000", "143156.950000", "143158.440000", "143159.930000", "143201.420000", "143202.910000", "143204.400000", "143205.890000", "143207.380000", "143208.870000", "143210.360000", "143211.850000", "143213.340000", "143214.830000", "143216.320000", "143217.810000", "143219.300000", "143220.790000", "143222.280000", "143223.770000", "143225.260000", "143226.750000", "143228.240000", "143229.730000", "143231.220000", "143232.710000", "143234.200000", "143235.690000", "143237.180000", "143238.670000", "143240.160000", "143241.650000", "143243.140000", "143244.630000", "143246.120000", "143247.610000", "143249.100000", "143250.590000", "143252.080000", "143253.570000", "143255.060000", "143256.550000", "143258.040000", "143259.530000", "143301.020000", "143302.510000", "143304.000000", "143305.490000", "143306.980000", "143308.470000", "143309.960000", "143311.450000", "143312.940000", "143314.430000", "143315.920000", "143317.410000", "143318.900000", "143320.390000", "143321.880000", "143323.370000", "143324.860000", "143326.350000", "143327.840000", "143329.330000", "143330.820000", "143332.310000", "143333.800000", "143335.290000", "143336.780000", "143338.270000", "143339.760000", "143341.250000", "143342.740000", "143344.230000", "143345.720000", "143347.210000", "143348.700000", "143350.190000", "143351.680000", "143353.170000", "143354.660000", "143356.150000", "143357.640000", "143359.130000", "143400.620000", "143402.110000", "143403.600000", "143405.090000", "143406.580000", "143408.070000", "143409.560000", "143411.050000", "143412.540000", "143414.030000", "143415.520000", "143417.010000", "143418.500000", "143419.990000", "143421.480000", "143422.970000", "143424.460000", "143425.950000", "143427.440000", "143428.930000", "143430.420000", "143431.910000", "143433.400000", "143434.890000", "143436.380000", "143437.870000", "143439.360000", "143440.850000", "143442.340000", "143443.830000", "143445.320000", "143446.810000", "143448.300000", "143449.790000", "143451.280000", "143452.770000", "143454.260000", "143455.750000", "143457.240000", "143458.730000", "143500.220000", "143501.710000", "143503.200000", "143504.690000", "143506.180000", "143507.670000", "143509.160000", "143510.650000", "143512.140000", "143513.630000", "143515.120000", "143516.610000", "143518.100000", "143519.590000", "143521.080000", "143522.570000", "143524.060000", "143525.550000", "143527.040000", "143528.530000", "143530.020000", "143531.510000", "143533.000000", "143534.490000", "143535.980000", "143537.470000", "143538.960000", "143540.450000", "143541.940000", "143543.430000", "143544.920000", "143546.410000", "143547.900000", "143549.390000", "143550.880000", "143552.370000", "143553.860000", "143555.350000", "143556.840000", "143558.330000", "143559.820000", "143601.310000", "143602.800000", "143604.290000", "143605.780000", "143607.270000", "143608.760000", "143610.250000", "143611.740000", "143613.230000", "143614.720000", "143616.210000", "143617.700000", "143619.190000", "143620.680000", "143622.170000", "143623.660000", "143625.150000", "143626.640000", "143628.130000", "143629.620000", "143631.110000", "143632.600000", "143634.090000", "143635.580000", "143637.070000", "143638.560000", "143640.050000", "143641.540000", "143643.030000", "143644.520000", "143646.010000", "143647.500000", "143648.990000", "143650.480000", "143651.970000", "143653.460000"],
      "ContentTime": ["142728.378000", "142728.381000", "142728.383000", "142728.386000", "142728.388000", "142728.391000", "142728.394000", "142728.396000", "142728.399000", "142728.401000", "142728.404000", "142728.406000", "142728.409000", "142728.411000", "142728.414000", "142728.416000", "142728.419000", "142728.421000", "142728.424000", "142728.427000", "142728.429000", "142728.443000", "142728.445000", "142728.448000", "142728.450000", "142728.453000", "142728.455000", "142728.458000", "142728.460000", "142728.463000", "142728.466000", "142728.468000", "142728.471000", "142728.480000", "142728.483000", "142728.485000", "142728.488000", "142748.261000", "142748.264000", "142748.266000", "142748.269000", "142748.271000", "142748.274000", "142748.276000", "142748.279000", "142748.282000", "142748.284000", "142748.287000", "142748.289000", "142748.292000", "142748.298000", "142748.300000", "142748.303000", "142748.306000", "142748.308000", "142748.311000", "142748.313000", "142808.277000", "142808.280000", "142808.282000", "142808.285000", "142808.288000", "142808.290000", "142808.293000", "142808.295000", "142808.298000", "142808.300000", "142808.303000", "142808.306000", "142808.308000", "142808.311000", "142808.313000", "142808.316000", "142808.318000", "142808.321000", "142808.323000", "142808.326000", "142808.329000", "142828.247000", "142828.250000", "142828.253000", "142828.255000", "142828.258000", "142828.260000", "142828.263000", "142828.266000", "142828.268000", "142828.271000", "142828.273000", "142828.276000", "142828.278000", "142828.281000", "142828.283000", "142828.286000", "142828.289000", "142828.291000", "142828.294000", "142828.296000", "142908.301000", "142908.303000", "142908.306000", "142908.309000", "142908.311000", "142908.314000", "142908.316000", "142908.319000", "142908.321000", "142908.324000", "142908.326000", "142908.329000", "142908.332000", "142908.334000", "142908.337000", "142908.339000", "142908.342000", "142908.344000", "142908.347000", "142908.349000", "142908.352000", "142908.355000", "142908.357000", "142908.360000", "142908.363000", "142908.365000", "142908.368000", "142908.370000", "142908.373000", "142948.292000", "142948.295000", "142948.297000", "142948.300000", "142948.302000", "142948.305000", "142948.308000", "142948.310000", "142948.313000", "142948.315000", "142948.318000", "142948.320000", "142948.323000", "142948.325000", "142948.328000", "142948.330000", "142948.333000", "142948.336000", "142948.338000", "142948.341000", "142948.343000", "142948.346000", "142948.349000", "142948.351000", "142948.354000", "142948.356000", "142948.359000", "143008.239000", "143008.242000", "143008.245000", "143008.247000", "143008.250000", "143008.253000", "143008.255000", "143008.258000", "143008.260000", "143008.263000", "143008.265000", "143008.268000", "143008.271000", "143048.286000", "143048.289000", "143048.292000", "143048.294000", "143048.297000", "143048.299000", "143048.302000", "143048.305000", "143048.307000", "143048.310000", "143048.312000", "143048.315000", "143048.317000", "143048.320000", "143048.322000", "143048.325000", "143048.328000", "143048.330000", "143048.333000", "143048.335000", "143048.338000", "143048.340000", "143048.343000", "143048.346000", "143048.348000", "143048.351000", "143048.353000", "143128.294000", "143128.297000", "143128.300000", "143128.302000", "143128.305000", "143128.307000", "143128.310000", "143128.312000", "143128.315000", "143128.318000", "143128.320000", "143128.323000", "143128.325000", "143128.328000", "143128.330000", "143128.333000", "143128.335000", "143128.338000", "143128.341000", "143128.343000", "143128.346000", "143128.348000", "143128.351000", "143128.354000", "143128.356000", "143128.359000", "143128.361000", "143208.280000", "143208.283000", "143208.285000", "143208.288000", "143208.291000", "143208.293000", "143208.296000", "143208.298000", "143208.301000", "143208.303000", "143208.306000", "143208.308000", "143208.311000", "143208.314000", "143208.316000", "143208.319000", "143208.321000", "143208.324000", "143208.326000", "143208.329000", "143208.331000", "143208.334000", "143208.337000", "143208.339000", "143208.342000", "143208.344000", "143208.347000", "143248.293000", "143248.296000", "143248.299000", "143248.301000", "143248.304000", "143248.306000", "143248.309000", "143248.312000", "143248.314000", "143248.317000", "143248.319000", "143248.322000", "143248.324000", "143248.327000", "143248.329000", "143248.332000", "143248.335000", "143248.337000", "143248.340000", "143248.342000", "143248.345000", "143248.347000", "143248.350000", "143248.353000", "143248.355000", "143248.358000", "143248.360000", "143328.712000", "143328.715000", "143328.717000", "143328.720000", "143328.722000", "143328.725000", "143328.727000", "143328.730000", "143328.733000", "143328.735000", "143328.738000", "143328.740000", "143328.743000", "143328.745000", "143328.748000", "143328.751000", "143328.753000", "143328.756000", "143328.758000", "143328.761000", "143328.763000", "143328.766000", "143328.769000", "143328.771000", "143328.774000", "143328.777000", "143328.779000", "143408.288000", "143408.291000", "143408.294000", "143408.296000", "143408.299000", "143408.302000", "143408.304000", "143408.307000", "143408.309000", "143408.312000", "143408.314000", "143408.317000", "143408.320000", "143408.322000", "143408.325000", "143408.327000", "143408.330000", "143408.332000", "143408.335000", "143408.337000", "143408.340000", "143408.343000", "143408.345000", "143408.348000", "143408.350000", "143408.353000", "143448.284000", "143448.287000", "143448.289000", "143448.292000", "143448.294000", "143448.297000", "143448.300000", "143448.302000", "143448.305000", "143448.307000", "143448.310000", "143448.312000", "143448.315000", "143448.318000", "143448.320000", "143448.323000", "143448.325000", "143448.328000", "143448.330000", "143448.333000", "143448.335000", "143448.338000", "143448.341000", "143448.343000", "143448.346000", "143448.348000", "143448.352000", "143528.309000", "143528.312000", "143528.315000", "143528.317000", "143528.320000", "143528.322000", "143528.325000", "143528.327000", "143528.330000", "143528.332000", "143528.335000", "143528.337000", "143528.340000", "143528.343000", "143528.345000", "143528.348000", "143528.350000", "143528.353000", "143528.355000", "143528.358000", "143528.360000", "143528.363000", "143528.366000", "143528.368000", "143528.371000", "143528.373000", "143528.376000", "143608.293000", "143608.296000", "143608.299000", "143608.301000", "143608.304000", "143608.307000", "143608.309000", "143608.312000", "143608.314000", "143608.317000", "143608.319000", "143608.322000", "143608.324000", "143608.327000", "143608.329000", "143608.332000", "143608.335000", "143608.337000", "143608.340000", "143608.342000", "143608.345000", "143608.347000", "143608.350000", "143608.353000", "143608.355000", "143608.358000", "143608.360000", "143648.314000", "143648.317000", "143648.319000", "143648.322000", "143648.325000", "143648.327000", "143648.330000", "143648.332000", "143648.335000", "143648.337000", "143648.340000", "143648.342000", "143648.345000", "143648.348000", "143648.350000", "143648.353000", "143648.355000", "143648.358000", "143648.360000", "143648.363000", "143648.366000", "143648.368000", "143648.371000", "143648.373000", "143648.376000", "143648.378000", "143648.381000", "143656.102000", "143656.105000", "143656.107000", "143656.110000", "143656.113000"],
