{
  "AcquisitionMatrixPE": 104,
  "AcquisitionNumber": 1,
  "AcquisitionTime": "13:48:39.220000",
  "BandwidthPerPixelPhaseEncode": 17.17,
  "BaseResolution": 104,
  "BodyPartExamined": "BRAIN",
  "CoilString": "HC1-7;NC1_2",
  "ConsistencyInfo": "N4_VE11C_LATEST_20160120",
  "ConversionSoftware": "dcm2niix",
  "ConversionSoftwareVersion": "v1.0.20190902",
  "DerivedVendorReportedEchoSpacing": 0.000560011,
  "DeviceSerialNumber": "167006",
  "DwellTime": 2.1e-06,
  "EchoTime": 0.037,
  "EchoTrainLength": 104,
  "EffectiveEchoSpacing": 0.000560011,
  "FlipAngle": 52,
  "HeudiconvVersion": "0.10.0",
  "ImageComments": "Unaliased_MB4_PE3_LB",
  "ImageOrientationPatientDICOM": [0.999951, 0.00925734, 0.00337892, -0.0062829, 0.863028, -0.505116],
  "ImageType": [
    "ORIGINAL",
    "PRIMARY",
    "M",
    "MB",
    "ND",
    "MOSAIC"
],
  "ImagingFrequency": 123.259,
  "InPlanePhaseEncodingDirectionDICOM": "COL",
  "InstitutionAddress": "Chemin_Queen-Mary_4565_Montreal_District_CA_H3W_1W5",
  "InstitutionName": "IUGM",
  "InstitutionalDepartmentName": "Department",
  "MRAcquisitionType": "2D",
  "MagneticFieldStrength": 3,
  "Manufacturer": "Siemens",
  "ManufacturersModelName": "Prisma_fit",
  "Modality": "MR",
  "MultibandAccelerationFactor": 4,
  "PartialFourier": 1,
  "PatientPosition": "HFS",
  "PercentPhaseFOV": 100,
  "PhaseEncodingDirection": "j",
  "PhaseEncodingSteps": 104,
  "PhaseResolution": 1,
  "PixelBandwidth": 2290,
  "ProcedureStepDescription": "games_mario",
  "ProtocolName": "func_task-mario_run-01",
  "PulseSequenceDetails": "%CustomerSeq%_cmrr_mbep2d_bold",
  "ReceiveCoilActiveElements": "HC1-7;NC1,2",
  "ReceiveCoilName": "HeadNeck_64",
  "ReconMatrixPE": 104,
  "RepetitionTime": 1.49,
  "SAR": 0.0553838,
  "ScanOptions": "FS",
  "ScanningSequence": "EP",
  "SequenceName": "epfid2d1_104",
  "SequenceVariant": "SK_SS",
  "SeriesDescription": "func_task-mario_run-01",
  "SeriesNumber": 10,
  "ShimSetting": [617, -7171, -8865, 310, 23, -113, -14, -57],
  "SliceThickness": 2,
  "SliceTiming": [0, 0.785, 0.1, 0.8825, 0.1975, 0.98, 0.295, 1.08, 0.3925, 1.1775, 0.49, 1.275, 0.59, 1.3725, 0.6875, 0, 0.785, 0.1, 0.8825, 0.1975, 0.98, 0.295, 1.08, 0.3925, 1.1775, 0.49, 1.275, 0.59, 1.3725, 0.6875, 0, 0.785, 0.1, 0.8825, 0.1975, 0.98, 0.295, 1.08, 0.3925, 1.1775, 0.49, 1.275, 0.59, 1.3725, 0.6875, 0, 0.785, 0.1, 0.8825, 0.1975, 0.98, 0.295, 1.08, 0.3925, 1.1775, 0.49, 1.275, 0.59, 1.3725, 0.6875],
  "SoftwareVersions": "syngo_MR_E11",
  "SpacingBetweenSlices": 2,
  "StationName": "MRC35049",
  "TaskName": "mario",
  "TotalReadoutTime": 0.0576811,
  "TxRefAmp": 286.472,
  "WipMemBlock": "563f5533-8abe-4733-9d96-ee031f34156e||Sequence: R016 ve11c/master r/e634e98; Dec 19 2017 11:00:25 by eja",
  "dcmmeta_affine": [
    [-1.9999028444290161, -0.012565802782773972, 0.015184275805950165, 107.73764038085938],
    [-0.01851467601954937, 1.726056694984436, -1.0101412534713745, -50.71147537231445],
    [0.006757842376828194, 1.0102328062057495, 1.7260891199111938, -95.2027587890625],
    [0.0, 0.0, 0.0, 1.0]
],
  "dcmmeta_reorient_transform": [
    [0.0, -1.0, 0.0, 103.0],
    [1.0, 0.0, 0.0, 0.0],
    [0.0, 0.0, 1.0, 0.0],
    [0.0, 0.0, 0.0, 1.0]
],
  "dcmmeta_shape": [104, 104, 60, 416],
  "dcmmeta_slice_dim": 2,
  "dcmmeta_version": 0.6,
  "global": {
    "const": {
      "AcquisitionMatrix": [104, 0, 0, 104],
      "AngioFlag": "N",
      "BitsAllocated": 16,
      "BitsStored": 16,
      "BodyPartExamined": "BRAIN",
      "Columns": 832,
      "EchoNumbers": 1,
      "EchoTime": 37.0,
      "EchoTrainLength": 104,
      "FlipAngle": 52.0,
      "HighBit": 15,
      "ImageOrientationPatient": [0.99995144111502, 0.00925733778454, 0.0033789212983, -0.0062829014706, 0.86302835249833, -0.505116410279],
      "ImagePositionPatient": [-829.83406142711, -762.09634672013, 374.11611161441],
      "ImageType": [
        "ORIGINAL",
        "PRIMARY",
        "M",
        "MB",
        "ND",
        "MOSAIC"
],
      "ImagedNucleus": "1H",
      "ImagingFrequency": 123.258917,
      "InPlanePhaseEncodingDirection": "COL",
      "MRAcquisitionType": "2D",
      "MagneticFieldStrength": 3.0,
      "Manufacturer": "SIEMENS",
      "ManufacturerModelName": "Prisma_fit",
      "Modality": "MR",
      "NumberOfAverages": 1.0,
      "NumberOfPhaseEncodingSteps": 104,
      "PercentPhaseFieldOfView": 100.0,
      "PercentSampling": 100.0,
      "PerformedProcedureStepStartTime": "134445.256000",
      "PhotometricInterpretation": "MONOCHROME2",
      "PixelBandwidth": 2290.0,
      "PixelRepresentation": 0,
      "PixelSpacing": [2.0, 2.0],
      "ProtocolName": "func_task-mario_run-01",
      "RepetitionTime": 1490.0,
      "Rows": 832,
      "SAR": 0.05538377760352,
      "SamplesPerPixel": 1,
      "ScanOptions": "FS",
      "ScanningSequence": "EP",
      "SequenceName": "epfid2d1_104",
      "SequenceVariant": [
        "SK",
        "SS"
],
      "SeriesDescription": "func_task-mario_run-01",
      "SeriesNumber": 10,
      "SeriesTime": "135008.191000",
      "SliceLocation": -55.733391852622,
      "SliceThickness": 2.0,
      "SmallestImagePixelValue": 0,
      "SoftwareVersions": "syngo MR E11",
      "SpacingBetweenSlices": 1.9999999320517,
      "SpecificCharacterSet": "ISO_IR 100",
      "StudyID": "1",
      "StudyTime": "134445.193000",
      "TransmitCoilName": "Body",
      "VariableFlipAngleFlag": "N",
      "WindowCenterWidthExplanation": "Algo1",
      "dBdt": 0.0},
    "slices": {}
  },
  "time": {
    "samples": {
      "AcquisitionNumber": [1, 2, 3, 4, 5, 6, 7, 8, 9, 10, 11, 12, 13, 14, 15, 16, 17, 18, 19, 20, 21, 22, 23, 24, 25, 26, 27, 28, 29, 30, 31, 32, 33, 34, 35, 36, 37, 38, 39, 40, 41, 42, 43, 44, 45, 46, 47, 48, 49, 50, 51, 52, 53, 54, 55, 56, 57, 58, 59, 60, 61, 62, 63, 64, 65, 66, 67, 68, 69, 70, 71, 72, 73, 74, 75, 76, 77, 78, 79, 80, 81, 82, 83, 84, 85, 86, 87, 88, 89, 90, 91, 92, 93, 94, 95, 96, 97, 98, 99, 100, 101, 102, 103, 104, 105, 106, 107, 108, 109, 110, 111, 112, 113, 114, 115, 116, 117, 118, 119, 120, 121, 122, 123, 124, 125, 126, 127, 128, 129, 130, 131, 132, 133, 134, 135, 136, 137, 138, 139, 140, 141, 142, 143, 144, 145, 146, 147, 148, 149, 150, 151, 152, 153, 154, 155, 156, 157, 158, 159, 160, 161, 162, 163, 164, 165, 166, 167, 168, 169, 170, 171, 172, 173, 174, 175, 176, 177, 178, 179, 180, 181, 182, 183, 184, 185, 186, 187, 188, 189, 190, 191, 192, 193, 194, 195, 196, 197, 198, 199, 200, 201, 202, 203, 204, 205, 206, 207, 208, 209, 210, 211, 212, 213, 214, 215, 216, 217, 218, 219, 220, 221, 222, 223, 224, 225, 226, 227, 228, 229, 230, 231, 232, 233, 234, 235, 236, 237, 238, 239, 240, 241, 242, 243, 244, 245, 246, 247, 248, 249, 250, 251, 252, 253, 254, 255, 256, 257, 258, 259, 260, 261, 262, 263, 264, 265, 266, 267, 268, 269, 270, 271, 272, 273, 274, 275, 276, 277, 278, 279, 280, 281, 282, 283, 284, 285, 286, 287, 288, 289, 290, 291, 292, 293, 294, 295, 296, 297, 298, 299, 300, 301, 302, 303, 304, 305, 306, 307, 308, 309, 310, 311, 312, 313, 314, 315, 316, 317, 318, 319, 320, 321, 322, 323, 324, 325, 326, 327, 328, 329, 330, 331, 332, 333, 334, 335, 336, 337, 338, 339, 340, 341, 342, 343, 344, 345, 346, 347, 348, 349, 350, 351, 352, 353, 354, 355, 356, 357, 358, 359, 360, 361, 362, 363, 364, 365, 366, 367, 368, 369, 370, 371, 372, 373, 374, 375, 376, 377, 378, 379, 380, 381, 382, 383, 384, 385, 386, 387, 388, 389, 390, 391, 392, 393, 394, 395, 396, 397, 398, 399, 400, 401, 402, 403, 404, 405, 406, 407, 408, 409, 410, 411, 412, 413, 414, 415, 416],
      "AcquisitionTime": ["134839.220000", "134840.710000", "134842.200000", "134843.690000", "134845.180000", "134846.670000", "134848.160000", "134849.650000", "134851.140000", "134852.630000", "134854.120000", "134855.610000", "134857.100000", "134858.590000", "134900.080000", "134901.570000", "134903.060000", "134904.550000", "134906.040000", "134907.530000", "134909.020000", "134910.510000", "134912.000000", "134913.490000", "134914.980000", "134916.470000", "134917.960000", "134919.450000", "134920.940000", "134922.430000", "134923.920000", "134925.410000", "134926.900000", "134928.390000", "134929.880000", "134931.370000", "134932.860000", "134934.350000", "134935.840000", "134937.330000", "134938.820000", "134940.310000", "134941.800000", "134943.290000", "134944.780000", "134946.270000", "134947.760000", "134949.250000", "134950.740000", "134952.230000", "134953.720000", "134955.210000", "134956.700000", "134958.190000", "134959.680000", "135001.170000", "135002.660000", "135004.150000", "135005.640000", "135007.130000", "135008.620000", "135010.110000", "135011.600000", "135013.090000", "135014.580000", "135016.070000", "135017.560000", "135019.050000", "135020.540000", "135022.030000", "135023.520000", "135025.010000", "135026.500000", "135027.990000", "135029.480000", "135030.970000", "135032.460000", "135033.950000", "135035.440000", "135036.930000", "135038.420000", "135039.910000", "135041.400000", "135042.890000", "135044.380000", "135045.870000", "135047.360000", "135048.850000", "135050.340000", "135051.830000", "135053.320000", "135054.810000", "135056.300000", "135057.790000", "135059.280000", "135100.770000", "135102.260000", "135103.750000", "135105.240000", "135106.730000", "135108.220000", "135109.710000", "135111.200000", "135112.690000", "135114.180000", "135115.670000", "135117.160000", "135118.650000", "135120.140000", "135121.630000", "135123.120000", "135124.610000", "135126.100000", "135127.590000", "135129.080000", "135130.570000", "135132.060000", "135133.550000", "135135.040000", "135136.530000", "135138.020000", "135139.510000", "135141.000000", "135142.490000", "135143.980000", "135145.470000", "135146.960000", "135148.450000", "135149.940000", "135151.430000", "135152.920000", "135154.410000", "135155.900000", "135157.390000", "135158.880000", "135200.370000", "135201.860000", "135203.350000", "135204.840000", "135206.330000", "135207.820000", "135209.310000", "135210.800000", "135212.290000", "135213.780000", "135215.270000", "135216.760000", "135218.250000", "135219.740000", "135221.230000", "135222.720000", "135224.210000", "135225.700000", "135227.190000", "135228.680000", "135230.170000", "135231.660000", "135233.150000", "135234.640000", "135236.130000", "135237.620000", "135239.110000", "135240.600000", "135242.090000", "135243.580000", "135245.070000", "135246.560000", "135248.050000", "135249.540000", "135251.030000", "135252.520000", "135254.010000", "135255.500000", "135256.990000", "135258.480000", "135259.970000", "135301.460000", "135302.950000", "135304.440000", "135305.930000", "135307.420000", "135308.910000", "135310.400000", "135311.890000", "135313.380000", "135314.870000", "135316.360000", "135317.850000", "135319.340000", "135320.830000", "135322.320000", "135323.810000", "135325.300000", "135326.790000", "135328.280000", "135329.770000", "135331.260000", "135332.750000", "135334.240000", "135335.730000", "135337.220000", "135338.710000", "135340.200000", "135341.690000", "135343.180000", "135344.670000", "135346.160000", "135347.650000", "135349.140000", "135350.630000", "135352.120000", "135353.610000", "135355.100000", "135356.590000", "135358.080000", "135359.570000", "135401.060000", "135402.550000", "135404.040000", "135405.530000", "135407.020000", "135408.510000", "135410.000000", "135411.490000", "135412.980000", "135414.470000", "135415.960000", "135417.450000", "135418.940000", "135420.430000", "135421.920000", "135423.410000", "135424.900000", "135426.390000", "135427.880000", "135429.370000", "135430.860000", "135432.350000", "135433.840000", "135435.330000", "135436.820000", "135438.310000", "135439.800000", "135441.290000", "135442.780000", "135444.270000", "135445.760000", "135447.250000", "135448.740000", "135450.230000", "135451.720000", "135453.210000", "135454.700000", "135456.190000", "135457.680000", "135459.170000", "135500.660000", "135502.150000", "135503.640000", "135505.130000", "135506.620000", "135508.110000", "135509.600000", "135511.090000", "135512.580000", "135514.070000", "135515.560000", "135517.050000", "135518.540000", "135520.030000", "135521.520000", "135523.010000", "135524.500000", "135525.990000", "135527.480000", "135528.970000", "135530.460000", "135531.950000", "135533.440000", "135534.930000", "135536.420000", "135537.910000", "135539.400000", "135540.890000", "135542.380000", "135543.870000", "135545.360000", "135546.850000", "135548.340000", "135549.830000", "135551.320000", "135552.810000", "135554.300000", "135555.790000", "135557.280000", "135558.770000", "135600.260000", "135601.750000", "135603.240000", "135604.730000", "135606.220000", "135607.710000", "135609.200000", "135610.690000", "135612.180000", "135613.670000", "135615.160000", "135616.650000", "135618.140000", "135619.630000", "135621.120000", "135622.610000", "135624.100000", "135625.590000", "135627.080000", "135628.570000", "135630.060000", "135631.550000", "135633.040000", "135634.530000", "135636.020000", "135637.510000", "135639.000000", "135640.490000", "135641.980000", "135643.470000", "135644.960000", "135646.450000", "135647.940000", "135649.430000", "135650.920000", "135652.410000", "135653.900000", "135655.390000", "135656.880000", "135658.370000", "135659.860000", "135701.350000", "135702.840000", "135704.330000", "135705.820000", "135707.310000", "135708.800000", "135710.290000", "135711.780000", "135713.270000", "135714.760000", "135716.250000", "135717.740000", "135719.230000", "135720.720000", "135722.210000", "135723.700000", "135725.190000", "135726.680000", "135728.170000", "135729.660000", "135731.150000", "135732.640000", "135734.130000", "135735.620000", "135737.110000", "135738.600000", "135740.090000", "135741.580000", "135743.070000", "135744.560000", "135746.050000", "135747.540000", "135749.030000", "135750.520000", "135752.010000", "135753.500000", "135754.990000", "135756.480000", "135757.970000", "135759.460000", "135800.950000", "135802.440000", "135803.930000", "135805.420000", "135806.910000", "135808.400000", "135809.890000", "135811.380000", "135812.870000", "135814.360000", "135815.850000", "135817.340000", "135818.830000", "135820.320000", "135821.810000", "135823.300000", "135824.790000", "135826.280000", "135827.770000", "135829.260000", "135830.750000", "135832.240000", "135833.730000", "135835.220000", "135836.710000", "135838.200000", "135839.690000", "135841.180000", "135842.670000", "135844.160000", "135845.650000", "135847.140000", "135848.630000", "135850.120000", "135851.610000", "135853.100000", "135854.590000", "135856.080000", "135857.570000"],
      "ContentTime": ["135008.194000", "135008.198000", "135008.201000", "135008.205000", "135008.208000", "135008.211000", "135008.215000", "135008.218000", "135008.222000", "135008.225000", "135008.228000", "135008.232000", "135008.235000", "135008.239000", "135008.242000", "135008.245000", "135008.249000", "135008.252000", "135008.256000", "135008.259000", "135008.262000", "135008.266000", "135008.269000", "135008.273000", "135008.276000", "135008.279000", "135008.283000", "135008.286000", "135008.290000", "135008.293000", "135008.297000", "135008.300000", "135008.304000", "135008.307000", "135028.144000", "135028.148000", "135028.151000", "135028.155000", "135028.158000", "135028.162000", "135028.165000", "135028.168000", "135028.172000", "135028.175000", "135028.178000", "135028.182000", "135028.185000", "135028.189000", "135028.192000", "135028.196000", "135028.200000", "135028.203000", "135028.206000", "135028.210000", "135048.144000", "135048.148000", "135048.151000", "135048.155000", "135048.158000", "135048.162000", "135048.165000", "135048.169000", "135048.172000", "135048.175000", "135048.179000", "135048.182000", "135048.186000", "135048.189000", "135048.192000", "135048.196000", "135048.199000", "135048.202000", "135048.206000", "135048.209000", "135108.144000", "135108.148000", "135108.151000", "135108.155000", "135108.158000", "135108.162000", "135108.165000", "135108.168000", "135108.172000", "135108.175000", "135108.179000", "135108.182000", "135108.186000", "135108.189000", "135108.192000", "135108.196000", "135108.199000", "135108.202000", "135108.206000", "135108.209000", "135148.144000", "135148.148000", "135148.151000", "135148.155000", "135148.158000", "135148.162000", "135148.165000", "135148.168000", "135148.172000", "135148.175000", "135148.179000", "135148.182000", "135148.185000", "135148.189000", "135148.192000", "135148.196000", "135148.199000", "135148.202000", "135148.206000", "135148.209000", "135148.213000", "135148.216000", "135148.220000", "135148.223000", "135148.227000", "135148.230000", "135148.233000", "135148.237000", "135148.240000", "135148.244000", "135148.247000", "135148.250000", "135228.145000", "135228.149000", "135228.152000", "135228.156000", "135228.159000", "135228.163000", "135228.166000", "135228.170000", "135228.173000", "135228.176000", "135228.180000", "135228.183000", "135228.187000", "135228.190000", "135228.193000", "135228.197000", "135228.200000", "135228.204000", "135228.207000", "135228.210000", "135228.214000", "135228.217000", "135228.221000", "135228.224000", "135228.227000", "135228.231000", "135228.234000", "135308.144000", "135308.148000", "135308.151000", "135308.155000", "135308.158000", "135308.162000", "135308.165000", "135308.169000", "135308.172000", "135308.175000", "135308.179000", "135308.188000", "135308.192000", "135308.195000", "135308.199000", "135308.202000", "135308.205000", "135308.209000", "135308.212000", "135308.216000", "135308.219000", "135308.222000", "135308.226000", "135308.229000", "135308.233000", "135308.236000", "135308.240000", "135348.144000", "135348.148000", "135348.151000", "135348.155000", "135348.158000", "135348.162000", "135348.165000", "135348.169000", "135348.172000", "135348.176000", "135348.179000", "135348.182000", "135348.186000", "135348.189000", "135348.193000", "135348.196000", "135348.212000", "135348.215000", "135348.219000", "135348.222000", "135348.226000", "135348.229000", "135348.232000", "135348.236000", "135348.239000", "135348.243000", "135348.254000", "135428.144000", "135428.148000", "135428.152000", "135428.155000", "135428.158000", "135428.162000", "135428.165000", "135428.169000", "135428.172000", "135428.175000", "135428.179000", "135428.182000", "135428.186000", "135428.189000", "135428.193000", "135428.196000", "135428.200000", "135428.205000", "135428.209000", "135428.212000", "135428.216000", "135428.220000", "135428.224000", "135428.229000", "135428.232000", "135428.236000", "135508.144000", "135508.148000", "135508.152000", "135508.155000", "135508.158000", "135508.162000", "135508.165000", "135508.169000", "135508.172000", "135508.175000", "135508.179000", "135508.182000", "135508.186000", "135508.189000", "135508.192000", "135508.196000", "135508.199000", "135508.203000", "135508.206000", "135508.209000", "135508.213000", "135508.216000", "135508.220000", "135508.223000", "135508.226000", "135508.230000", "135508.233000", "135548.144000", "135548.148000", "135548.152000", "135548.155000", "135548.158000", "135548.162000", "135548.165000", "135548.169000", "135548.172000", "135548.175000", "135548.179000", "135548.182000", "135548.186000", "135548.189000", "135548.193000", "135548.196000", "135548.199000", "135548.203000", "135548.206000", "135548.210000", "135548.213000", "135548.217000", "135548.220000", "135548.224000", "135548.227000", "135548.230000", "135548.234000", "135628.145000", "135628.148000", "135628.152000", "135628.155000", "135628.159000", "135628.162000", "135628.166000", "135628.169000", "135628.172000", "135628.176000", "135628.179000", "135628.183000", "135628.186000", "135628.189000", "135628.193000", "135628.203000", "135628.207000", "135628.210000", "135628.213000", "135628.217000", "135628.220000", "135628.224000", "135628.227000", "135628.230000", "135628.234000", "135628.237000", "135628.240000", "135708.145000", "135708.149000", "135708.153000", "135708.156000", "135708.159000", "135708.163000", "135708.166000", "135708.170000", "135708.173000", "135708.176000", "135708.180000", "135708.183000", "135708.194000", "135708.197000", "135708.200000", "135708.204000", "135708.207000", "135708.210000", "135708.215000", "135708.218000", "135708.222000", "135708.225000", "135708.228000", "135708.232000", "135708.235000", "135708.238000", "135708.242000", "135748.144000", "135748.148000", "135748.152000", "135748.155000", "135748.158000", "135748.162000", "135748.165000", "135748.169000", "135748.179000", "135748.182000", "135748.186000", "135748.189000", "135748.192000", "135748.196000", "135748.199000", "135748.202000", "135748.206000", "135748.209000", "135748.213000", "135748.216000", "135748.219000", "135748.223000", "135748.226000", "135748.229000", "135748.233000", "135748.236000", "135748.240000", "135828.145000", "135828.148000", "135828.152000", "135828.155000", "135828.159000", "135828.162000", "135828.165000", "135828.170000", "135828.174000", "135828.189000", "135828.192000", "135828.196000", "135828.199000", "135828.202000", "135828.206000", "135828.209000", "135828.213000", "135828.216000", "135828.219000", "135828.223000", "135828.226000", "135828.230000", "135828.233000", "135828.236000", "135828.240000", "135828.243000", "135828.247000", "135900.695000", "135900.699000", "135900.702000", "135900.706000", "135900.709000", "135900.713000", "135900.716000", "135900.720000", "135900.723000", "135900.727000", "135900.730000", "135900.733000", "135900.737000", "135900.740000", "135900.750000", "135900.754000", "135900.757000", "135900.760000", "135900.764000", "135900.767000", "135900.771000"],
      "InstanceCreationTime": ["135008.194000", "135008.198000", "135008.201000", "135008.205000", "135008.208000", "135008.211000", "135008.215000", "135008.218000", "135008.222000", "135008.225000", "135008.228000", "135008.232000", "135008.235000", "135008.239000", "135008.242000", "135008.245000", "135008.249000", "135008.252000", "135008.256000", "135008.259000", "135008.262000", "135008.266000", "135008.269000", "135008.273000", "135008.276000", "135008.279000", "135008.283000", "135008.286000", "135008.290000", "135008.293000", "135008.297000", "135008.300000", "135008.304000", "135008.307000", "135028.144000", "135028.148000", "135028.151000", "135028.155000", "135028.158000", "135028.162000", "135028.165000", "135028.168000", "135028.172000", "135028.175000", "135028.178000", "135028.182000", "135028.185000", "135028.189000", "135028.192000", "135028.196000", "135028.200000", "135028.203000", "135028.206000", "135028.210000", "135048.144000", "135048.148000", "135048.151000", "135048.155000", "135048.158000", "135048.162000", "135048.165000", "135048.169000", "135048.172000", "135048.175000", "135048.179000", "135048.182000", "135048.186000", "135048.189000", "135048.192000", "135048.196000", "135048.199000", "135048.202000", "135048.206000", "135048.209000", "135108.144000", "135108.148000", "135108.151000", "135108.155000", "135108.158000", "135108.162000", "135108.165000", "135108.168000", "135108.172000", "135108.175000", "135108.179000", "135108.182000", "135108.186000", "135108.189000", "135108.192000", "135108.196000", "135108.199000", "135108.202000", "135108.206000", "135108.209000", "135148.144000", "135148.148000", "135148.151000", "135148.155000", "135148.158000", "135148.162000", "135148.165000", "135148.168000", "135148.172000", "135148.175000", "135148.179000", "135148.182000", "135148.185000", "135148.189000", "135148.192000", "135148.196000", "135148.199000", "135148.202000", "135148.206000", "135148.209000", "135148.213000", "135148.216000", "135148.220000", "135148.223000", "135148.227000", "135148.230000", "135148.233000", "135148.237000", "135148.240000", "135148.244000", "135148.247000", "135148.250000", "135228.145000", "135228.149000", "135228.152000", "135228.156000", "135228.159000", "135228.163000", "135228.166000", "135228.170000", "135228.173000", "135228.176000", "135228.180000", "135228.183000", "135228.187000", "135228.190000", "135228.193000", "135228.197000", "135228.200000", "135228.204000", "135228.207000", "135228.210000", "135228.214000", "135228.217000", "135228.221000", "135228.224000", "135228.227000", "135228.231000", "135228.234000", "135308.144000", "135308.148000", "135308.151000", "135308.155000", "135308.158000", "135308.162000", "135308.165000", "135308.169000", "135308.172000", "135308.175000", "135308.179000", "135308.188000", "135308.192000", "135308.195000", "135308.199000", "135308.202000", "135308.205000", "135308.209000", "135308.212000", "135308.216000", "135308.219000", "135308.222000", "135308.226000", "135308.229000", "135308.233000", "135308.236000", "135308.240000", "135348.144000", "135348.148000", "135348.151000", "135348.155000", "135348.158000", "135348.162000", "135348.165000", "135348.169000", "135348.172000", "135348.176000", "135348.179000", "135348.182000", "135348.186000", "135348.189000", "135348.193000", "135348.196000", "135348.212000", "135348.215000", "135348.219000", "135348.222000", "135348.226000", "135348.229000", "135348.232000", "135348.236000", "135348.239000", "135348.243000", "135348.254000", "135428.144000", "135428.148000", "135428.152000", "135428.155000", "135428.158000", "135428.162000", "135428.165000", "135428.169000", "135428.172000", "135428.175000", "135428.179000", "135428.182000", "135428.186000", "135428.189000", "135428.193000", "135428.196000", "135428.200000", "135428.205000", "135428.209000", "135428.212000", "135428.216000", "135428.220000", "135428.224000", "135428.229000", "135428.232000", "135428.236000", "135508.144000", "135508.148000", "135508.152000", "135508.155000", "135508.158000", "135508.162000", "135508.165000", "135508.169000", "135508.172000", "135508.175000", "135508.179000", "135508.182000", "135508.186000", "135508.189000", "135508.192000", "135508.196000", "135508.199000", "135508.203000", "135508.206000", "135508.209000", "135508.213000", "135508.216000", "135508.220000", "135508.223000", "135508.226000", "135508.230000", "135508.233000", "135548.144000", "135548.148000", "135548.152000", "135548.155000", "135548.158000", "135548.162000", "135548.165000", "135548.169000", "135548.172000", "135548.175000", "135548.179000", "135548.182000", "135548.186000", "135548.189000", "135548.193000", "135548.196000", "135548.199000", "135548.203000", "135548.206000", "135548.210000", "135548.213000", "135548.217000", "135548.220000", "135548.224000", "135548.227000", "135548.230000", "135548.234000", "135628.145000", "135628.148000", "135628.152000", "135628.155000", "135628.159000", "135628.162000", "135628.166000", "135628.169000", "135628.172000", "135628.176000", "135628.179000", "135628.183000", "135628.186000", "135628.189000", "135628.193000", "135628.203000", "135628.207000", "135628.210000", "135628.213000", "135628.217000", "135628.220000", "135628.224000", "135628.227000", "135628.230000", "135628.234000", "135628.237000", "135628.240000", "135708.145000", "135708.149000", "135708.153000", "135708.156000", "135708.159000", "135708.163000", "135708.166000", "135708.170000", "135708.173000", "135708.176000", "135708.180000", "135708.183000", "135708.194000", "135708.197000", "135708.200000", "135708.204000", "135708.207000", "135708.210000", "135708.215000", "135708.218000", "135708.222000", "135708.225000", "135708.228000", "135708.232000", "135708.235000", "135708.238000", "135708.242000", "135748.144000", "135748.148000", "135748.152000", "135748.155000", "135748.158000", "135748.162000", "135748.165000", "135748.169000", "135748.179000", "135748.182000", "135748.186000", "135748.189000", "135748.192000", "135748.196000", "135748.199000", "135748.202000", "135748.206000", "135748.209000", "135748.213000", "135748.216000", "135748.219000", "135748.223000", "135748.226000", "135748.229000", "135748.233000", "135748.236000", "135748.240000", "135828.145000", "135828.148000", "135828.152000", "135828.155000", "135828.159000", "135828.162000", "135828.165000", "135828.170000", "135828.174000", "135828.189000", "135828.192000", "135828.196000", "135828.199000", "135828.202000", "135828.206000", "135828.209000", "135828.213000", "135828.216000", "135828.219000", "135828.223000", "135828.226000", "135828.230000", "135828.233000", "135828.236000", "135828.240000", "135828.243000", "135828.247000", "135900.695000", "135900.699000", "135900.702000", "135900.706000", "135900.709000", "135900.713000", "135900.716000", "135900.720000", "135900.723000", "135900.727000", "135900.730000", "135900.733000", "135900.737000", "135900.740000", "135900.750000", "135900.754000", "135900.757000", "135900.760000", "135900.764000", "135900.767000", "135900.771000"],
