{
  "AcquisitionMatrixPE": 104,
  "AcquisitionNumber": 1,
  "AcquisitionTime": "14:51:8.820000",
  "BandwidthPerPixelPhaseEncode": 17.17,
  "BaseResolution": 104,
  "BodyPartExamined": "BRAIN",
  "CoilString": "HC1-7;NC1_2",
  "ConsistencyInfo": "N4_VE11C_LATEST_20160120",
  "ConversionSoftware": "dcm2niix",
  "ConversionSoftwareVersion": "v1.0.20190902",
  "DerivedVendorReportedEchoSpacing": 0.000560011,
  "DeviceSerialNumber": "167006",
  "DwellTime": 2.1e-06,
  "EchoTime": 0.037,
  "EchoTrainLength": 104,
  "EffectiveEchoSpacing": 0.000560011,
  "FlipAngle": 52,
  "HeudiconvVersion": "0.10.0",
  "ImageComments": "Unaliased_MB4_PE3_LB",
  "ImageOrientationPatientDICOM": [0.999951, 0.00925734, 0.00337892, -0.0062829, 0.863028, -0.505116],
  "ImageType": [
    "ORIGINAL",
    "PRIMARY",
    "P",
    "MB",
    "ND",
    "MOSAIC"
],
  "ImagingFrequency": 123.259,
  "InPlanePhaseEncodingDirectionDICOM": "COL",
  "InstitutionAddress": "Chemin_Queen-Mary_4565_Montreal_District_CA_H3W_1W5",
  "InstitutionName": "IUGM",
  "InstitutionalDepartmentName": "Department",
  "MRAcquisitionType": "2D",
  "MagneticFieldStrength": 3,
  "Manufacturer": "Siemens",
  "ManufacturersModelName": "Prisma_fit",
  "Modality": "MR",
  "MultibandAccelerationFactor": 4,
  "PartialFourier": 1,
  "PatientPosition": "HFS",
  "PercentPhaseFOV": 100,
  "PhaseEncodingDirection": "j",
  "PhaseEncodingSteps": 104,
  "PhaseResolution": 1,
  "PixelBandwidth": 2290,
  "ProcedureStepDescription": "games_mario",
  "ProtocolName": "func_task-mario_run-06",
  "PulseSequenceDetails": "%CustomerSeq%_cmrr_mbep2d_bold",
  "ReceiveCoilActiveElements": "HC1-7;NC1,2",
  "ReceiveCoilName": "HeadNeck_64",
  "ReconMatrixPE": 104,
  "RepetitionTime": 1.49,
  "SAR": 0.0553838,
  "ScanOptions": "FS",
  "ScanningSequence": "EP",
  "SequenceName": "epfid2d1_104",
  "SequenceVariant": "SK_SS",
  "SeriesDescription": "func_task-mario_run-06",
  "SeriesNumber": 26,
  "ShimSetting": [617, -7171, -8865, 310, 23, -113, -14, -57],
  "SliceThickness": 2,
  "SliceTiming": [0, 0.785, 0.0975, 0.8825, 0.1975, 0.98, 0.295, 1.0775, 0.3925, 1.1775, 0.49, 1.275, 0.5875, 1.3725, 0.6875, 0, 0.785, 0.0975, 0.8825, 0.1975, 0.98, 0.295, 1.0775, 0.3925, 1.1775, 0.49, 1.275, 0.5875, 1.3725, 0.6875, 0, 0.785, 0.0975, 0.8825, 0.1975, 0.98, 0.295, 1.0775, 0.3925, 1.1775, 0.49, 1.275, 0.5875, 1.3725, 0.6875, 0, 0.785, 0.0975, 0.8825, 0.1975, 0.98, 0.295, 1.0775, 0.3925, 1.1775, 0.49, 1.275, 0.5875, 1.3725, 0.6875],
  "SoftwareVersions": "syngo_MR_E11",
  "SpacingBetweenSlices": 2,
  "StationName": "MRC35049",
  "TaskName": "mario",
  "TotalReadoutTime": 0.0576811,
  "TxRefAmp": 286.472,
  "WipMemBlock": "fe0281f7-a6e9-49d5-a259-e2b134505328||Sequence: R016 ve11c/master r/e634e98; Dec 19 2017 11:00:25 by eja",
  "dcmmeta_affine": [
    [-1.9999028444290161, -0.012565802782773972, 0.015184275805950165, 107.73764038085938],
    [-0.01851467601954937, 1.726056694984436, -1.0101412534713745, -50.71147537231445],
    [0.006757842376828194, 1.0102328062057495, 1.7260891199111938, -95.2027587890625],
    [0.0, 0.0, 0.0, 1.0]
],
  "dcmmeta_reorient_transform": [
    [0.0, -1.0, 0.0, 103.0],
    [1.0, 0.0, 0.0, 0.0],
    [0.0, 0.0, 1.0, 0.0],
    [0.0, 0.0, 0.0, 1.0]
],
  "dcmmeta_shape": [104, 104, 60, 434],
  "dcmmeta_slice_dim": 2,
  "dcmmeta_version": 0.6,
  "global": {
    "const": {
      "AcquisitionMatrix": [104, 0, 0, 104],
      "AngioFlag": "N",
      "BitsAllocated": 16,
      "BitsStored": 16,
      "BodyPartExamined": "BRAIN",
      "Columns": 832,
      "EchoNumbers": 1,
      "EchoTime": 37.0,
      "EchoTrainLength": 104,
      "FlipAngle": 52.0,
      "HighBit": 15,
      "ImageOrientationPatient": [0.99995144111502, 0.00925733778454, 0.0033789212983, -0.0062829014706, 0.86302835249833, -0.505116410279],
      "ImagePositionPatient": [-829.83406142711, -762.09634672013, 374.11611161441],
      "ImageType": [
        "ORIGINAL",
        "PRIMARY",
        "P",
        "MB",
        "ND",
        "MOSAIC"
],
      "ImagedNucleus": "1H",
      "ImagingFrequency": 123.258942,
      "InPlanePhaseEncodingDirection": "COL",
      "LargestImagePixelValue": 4095,
      "MRAcquisitionType": "2D",
      "MagneticFieldStrength": 3.0,
      "Manufacturer": "SIEMENS",
      "ManufacturerModelName": "Prisma_fit",
      "Modality": "MR",
      "NumberOfAverages": 1.0,
      "NumberOfPhaseEncodingSteps": 104,
      "PercentPhaseFieldOfView": 100.0,
      "PercentSampling": 100.0,
      "PerformedProcedureStepStartTime": "134445.256000",
      "PhotometricInterpretation": "MONOCHROME2",
      "PixelBandwidth": 2290.0,
      "PixelRepresentation": 0,
      "PixelSpacing": [2.0, 2.0],
      "ProtocolName": "func_task-mario_run-06",
      "RepetitionTime": 1490.0,
      "RescaleIntercept": -4096.0,
      "RescaleSlope": 2.0,
      "RescaleType": "US",
      "Rows": 832,
      "SAR": 0.05538377760352,
      "SamplesPerPixel": 1,
      "ScanOptions": "FS",
      "ScanningSequence": "EP",
      "SequenceName": "epfid2d1_104",
      "SequenceVariant": [
        "SK",
        "SS"
],
      "SeriesDescription": "func_task-mario_run-06",
      "SeriesNumber": 26,
      "SeriesTime": "145228.323000",
      "SliceLocation": -55.733391852622,
      "SliceThickness": 2.0,
      "SmallestImagePixelValue": 0,
      "SoftwareVersions": "syngo MR E11",
      "SpacingBetweenSlices": 1.9999999320517,
      "SpecificCharacterSet": "ISO_IR 100",
      "StudyID": "1",
      "StudyTime": "134445.193000",
      "TransmitCoilName": "Body",
      "VariableFlipAngleFlag": "N",
      "WindowCenterWidthExplanation": "Algo1",
      "dBdt": 0.0},
    "slices": {}
  },
  "time": {
    "samples": {
      "AcquisitionNumber": [1, 2, 3, 4, 5, 6, 7, 8, 9, 10, 11, 12, 13, 14, 15, 16, 17, 18, 19, 20, 21, 22, 23, 24, 25, 26, 27, 28, 29, 30, 31, 32, 33, 34, 35, 36, 37, 38, 39, 40, 41, 42, 43, 44, 45, 46, 47, 48, 49, 50, 51, 52, 53, 54, 55, 56, 57, 58, 59, 60, 61, 62, 63, 64, 65, 66, 67, 68, 69, 70, 71, 72, 73, 74, 75, 76, 77, 78, 79, 80, 81, 82, 83, 84, 85, 86, 87, 88, 89, 90, 91, 92, 93, 94, 95, 96, 97, 98, 99, 100, 101, 102, 103, 104, 105, 106, 107, 108, 109, 110, 111, 112, 113, 114, 115, 116, 117, 118, 119, 120, 121, 122, 123, 124, 125, 126, 127, 128, 129, 130, 131, 132, 133, 134, 135, 136, 137, 138, 139, 140, 141, 142, 143, 144, 145, 146, 147, 148, 149, 150, 151, 152, 153, 154, 155, 156, 157, 158, 159, 160, 161, 162, 163, 164, 165, 166, 167, 168, 169, 170, 171, 172, 173, 174, 175, 176, 177, 178, 179, 180, 181, 182, 183, 184, 185, 186, 187, 188, 189, 190, 191, 192, 193, 194, 195, 196, 197, 198, 199, 200, 201, 202, 203, 204, 205, 206, 207, 208, 209, 210, 211, 212, 213, 214, 215, 216, 217, 218, 219, 220, 221, 222, 223, 224, 225, 226, 227, 228, 229, 230, 231, 232, 233, 234, 235, 236, 237, 238, 239, 240, 241, 242, 243, 244, 245, 246, 247, 248, 249, 250, 251, 252, 253, 254, 255, 256, 257, 258, 259, 260, 261, 262, 263, 264, 265, 266, 267, 268, 269, 270, 271, 272, 273, 274, 275, 276, 277, 278, 279, 280, 281, 282, 283, 284, 285, 286, 287, 288, 289, 290, 291, 292, 293, 294, 295, 296, 297, 298, 299, 300, 301, 302, 303, 304, 305, 306, 307, 308, 309, 310, 311, 312, 313, 314, 315, 316, 317, 318, 319, 320, 321, 322, 323, 324, 325, 326, 327, 328, 329, 330, 331, 332, 333, 334, 335, 336, 337, 338, 339, 340, 341, 342, 343, 344, 345, 346, 347, 348, 349, 350, 351, 352, 353, 354, 355, 356, 357, 358, 359, 360, 361, 362, 363, 364, 365, 366, 367, 368, 369, 370, 371, 372, 373, 374, 375, 376, 377, 378, 379, 380, 381, 382, 383, 384, 385, 386, 387, 388, 389, 390, 391, 392, 393, 394, 395, 396, 397, 398, 399, 400, 401, 402, 403, 404, 405, 406, 407, 408, 409, 410, 411, 412, 413, 414, 415, 416, 417, 418, 419, 420, 421, 422, 423, 424, 425, 426, 427, 428, 429, 430, 431, 432, 433, 434],
      "AcquisitionTime": ["145108.820000", "145110.310000", "145111.800000", "145113.290000", "145114.780000", "145116.270000", "145117.760000", "145119.250000", "145120.740000", "145122.230000", "145123.720000", "145125.210000", "145126.700000", "145128.190000", "145129.680000", "145131.170000", "145132.660000", "145134.150000", "145135.640000", "145137.130000", "145138.620000", "145140.110000", "145141.600000", "145143.090000", "145144.580000", "145146.070000", "145147.560000", "145149.050000", "145150.540000", "145152.030000", "145153.520000", "145155.010000", "145156.500000", "145157.990000", "145159.480000", "145200.970000", "145202.460000", "145203.950000", "145205.440000", "145206.930000", "145208.420000", "145209.910000", "145211.400000", "145212.890000", "145214.380000", "145215.870000", "145217.360000", "145218.850000", "145220.340000", "145221.830000", "145223.320000", "145224.810000", "145226.300000", "145227.790000", "145229.280000", "145230.770000", "145232.260000", "145233.750000", "145235.240000", "145236.730000", "145238.220000", "145239.710000", "145241.200000", "145242.690000", "145244.180000", "145245.670000", "145247.160000", "145248.650000", "145250.140000", "145251.630000", "145253.120000", "145254.610000", "145256.100000", "145257.590000", "145259.080000", "145300.570000", "145302.060000", "145303.550000", "145305.040000", "145306.530000", "145308.020000", "145309.510000", "145311.000000", "145312.490000", "145313.980000", "145315.470000", "145316.960000", "145318.450000", "145319.940000", "145321.430000", "145322.920000", "145324.410000", "145325.900000", "145327.390000", "145328.880000", "145330.370000", "145331.860000", "145333.350000", "145334.840000", "145336.330000", "145337.820000", "145339.310000", "145340.800000", "145342.290000", "145343.780000", "145345.270000", "145346.760000", "145348.250000", "145349.740000", "145351.230000", "145352.720000", "145354.210000", "145355.700000", "145357.190000", "145358.680000", "145400.170000", "145401.660000", "145403.150000", "145404.640000", "145406.130000", "145407.620000", "145409.110000", "145410.600000", "145412.090000", "145413.580000", "145415.070000", "145416.560000", "145418.050000", "145419.540000", "145421.030000", "145422.520000", "145424.010000", "145425.500000", "145426.990000", "145428.480000", "145429.970000", "145431.460000", "145432.950000", "145434.440000", "145435.930000", "145437.420000", "145438.910000", "145440.400000", "145441.890000", "145443.380000", "145444.870000", "145446.360000", "145447.850000", "145449.340000", "145450.830000", "145452.320000", "145453.810000", "145455.300000", "145456.790000", "145458.280000", "145459.770000", "145501.260000", "145502.750000", "145504.240000", "145505.730000", "145507.220000", "145508.710000", "145510.200000", "145511.690000", "145513.180000", "145514.670000", "145516.160000", "145517.650000", "145519.140000", "145520.630000", "145522.120000", "145523.610000", "145525.100000", "145526.590000", "145528.080000", "145529.570000", "145531.060000", "145532.550000", "145534.040000", "145535.530000", "145537.020000", "145538.510000", "145540.000000", "145541.490000", "145542.980000", "145544.470000", "145545.960000", "145547.450000", "145548.940000", "145550.430000", "145551.920000", "145553.410000", "145554.900000", "145556.390000", "145557.880000", "145559.370000", "145600.860000", "145602.350000", "145603.840000", "145605.330000", "145606.820000", "145608.310000", "145609.800000", "145611.290000", "145612.780000", "145614.270000", "145615.760000", "145617.250000", "145618.740000", "145620.230000", "145621.720000", "145623.210000", "145624.700000", "145626.190000", "145627.680000", "145629.170000", "145630.660000", "145632.150000", "145633.640000", "145635.130000", "145636.620000", "145638.110000", "145639.600000", "145641.090000", "145642.580000", "145644.070000", "145645.560000", "145647.050000", "145648.540000", "145650.030000", "145651.520000", "145653.010000", "145654.500000", "145655.990000", "145657.480000", "145658.970000", "145700.460000", "145701.950000", "145703.440000", "145704.930000", "145706.420000", "145707.910000", "145709.400000", "145710.890000", "145712.380000", "145713.870000", "145715.360000", "145716.850000", "145718.340000", "145719.830000", "145721.320000", "145722.810000", "145724.300000", "145725.790000", "145727.280000", "145728.770000", "145730.260000", "145731.750000", "145733.240000", "145734.730000", "145736.220000", "145737.710000", "145739.200000", "145740.690000", "145742.180000", "145743.670000", "145745.160000", "145746.650000", "145748.140000", "145749.630000", "145751.120000", "145752.610000", "145754.100000", "145755.590000", "145757.080000", "145758.570000", "145800.060000", "145801.550000", "145803.040000", "145804.530000", "145806.020000", "145807.510000", "145809.000000", "145810.490000", "145811.980000", "145813.470000", "145814.960000", "145816.450000", "145817.940000", "145819.430000", "145820.920000", "145822.410000", "145823.900000", "145825.390000", "145826.880000", "145828.370000", "145829.860000", "145831.350000", "145832.840000", "145834.330000", "145835.820000", "145837.310000", "145838.800000", "145840.290000", "145841.780000", "145843.270000", "145844.760000", "145846.250000", "145847.740000", "145849.230000", "145850.720000", "145852.210000", "145853.700000", "145855.190000", "145856.680000", "145858.170000", "145859.660000", "145901.150000", "145902.640000", "145904.130000", "145905.620000", "145907.110000", "145908.600000", "145910.090000", "145911.580000", "145913.070000", "145914.560000", "145916.050000", "145917.540000", "145919.030000", "145920.520000", "145922.010000", "145923.500000", "145924.990000", "145926.480000", "145927.970000", "145929.460000", "145930.950000", "145932.440000", "145933.930000", "145935.420000", "145936.910000", "145938.400000", "145939.890000", "145941.380000", "145942.870000", "145944.360000", "145945.850000", "145947.340000", "145948.830000", "145950.320000", "145951.810000", "145953.300000", "145954.790000", "145956.280000", "145957.770000", "145959.260000", "150000.750000", "150002.240000", "150003.730000", "150005.220000", "150006.710000", "150008.200000", "150009.690000", "150011.180000", "150012.670000", "150014.160000", "150015.650000", "150017.140000", "150018.630000", "150020.120000", "150021.610000", "150023.100000", "150024.590000", "150026.080000", "150027.570000", "150029.060000", "150030.550000", "150032.040000", "150033.530000", "150035.020000", "150036.510000", "150038.000000", "150039.490000", "150040.980000", "150042.470000", "150043.960000", "150045.450000", "150046.940000", "150048.430000", "150049.920000", "150051.410000", "150052.900000", "150054.390000", "150055.880000", "150057.370000", "150058.860000", "150100.350000", "150101.840000", "150103.330000", "150104.820000", "150106.310000", "150107.800000", "150109.290000", "150110.780000", "150112.270000", "150113.760000", "150115.250000", "150116.740000", "150118.230000", "150119.720000", "150121.210000", "150122.700000", "150124.190000", "150125.680000", "150127.170000", "150128.660000", "150130.150000", "150131.640000", "150133.130000", "150134.620000", "150136.110000", "150137.600000", "150139.090000", "150140.580000", "150142.070000", "150143.560000", "150145.050000", "150146.540000", "150148.030000", "150149.520000", "150151.010000", "150152.500000", "150153.990000"],
      "ContentTime": ["145228.326000", "145228.328000", "145228.331000", "145228.337000", "145228.340000", "145228.342000", "145228.345000", "145228.347000", "145228.350000", "145228.352000", "145228.355000", "145228.357000", "145228.360000", "145228.362000", "145228.365000", "145228.367000", "145228.370000", "145228.373000", "145228.375000", "145228.378000", "145228.380000", "145228.383000", "145228.385000", "145228.388000", "145248.250000", "145248.252000", "145248.255000", "145248.257000", "145248.260000", "145248.262000", "145248.265000", "145248.268000", "145248.278000", "145248.280000", "145248.283000", "145248.286000", "145248.288000", "145248.291000", "145248.293000", "145248.296000", "145248.298000", "145248.301000", "145248.303000", "145248.306000", "145308.272000", "145308.275000", "145308.277000", "145308.280000", "145308.282000", "145308.285000", "145308.287000", "145308.290000", "145308.293000", "145308.295000", "145308.306000", "145308.308000", "145308.311000", "145308.313000", "145308.316000", "145308.318000", "145308.321000", "145308.324000", "145308.326000", "145308.329000", "145328.254000", "145328.256000", "145328.259000", "145328.262000", "145328.264000", "145328.267000", "145328.269000", "145328.272000", "145328.274000", "145328.277000", "145328.279000", "145328.282000", "145328.284000", "145328.287000", "145328.290000", "145328.292000", "145328.303000", "145328.306000", "145328.308000", "145328.311000", "145348.252000", "145348.255000", "145348.258000", "145348.260000", "145348.263000", "145348.266000", "145348.268000", "145348.271000", "145348.273000", "145348.276000", "145348.279000", "145348.282000", "145348.285000", "145348.288000", "145348.290000", "145348.293000", "145348.297000", "145348.300000", "145348.303000", "145348.305000", "145428.318000", "145428.321000", "145428.323000", "145428.326000", "145428.328000", "145428.331000", "145428.333000", "145428.336000", "145428.339000", "145428.341000", "145428.344000", "145428.352000", "145428.354000", "145428.357000", "145428.359000", "145428.362000", "145428.365000", "145428.367000", "145428.370000", "145428.372000", "145428.375000", "145428.377000", "145428.380000", "145428.383000", "145428.385000", "145428.388000", "145428.390000", "145428.393000", "145428.395000", "145508.297000", "145508.300000", "145508.303000", "145508.305000", "145508.308000", "145508.310000", "145508.313000", "145508.315000", "145508.318000", "145508.321000", "145508.323000", "145508.326000", "145508.328000", "145508.331000", "145508.333000", "145508.336000", "145508.338000", "145508.341000", "145508.344000", "145508.346000", "145508.349000", "145508.351000", "145508.354000", "145508.356000", "145508.359000", "145508.361000", "145508.364000", "145548.299000", "145548.302000", "145548.305000", "145548.307000", "145548.310000", "145548.313000", "145548.315000", "145548.318000", "145548.320000", "145548.323000", "145548.325000", "145548.328000", "145548.331000", "145548.333000", "145548.336000", "145548.338000", "145548.341000", "145548.343000", "145548.346000", "145548.349000", "145548.351000", "145548.354000", "145548.356000", "145548.359000", "145548.361000", "145548.364000", "145548.366000", "145628.301000", "145628.304000", "145628.307000", "145628.309000", "145628.312000", "145628.315000", "145628.317000", "145628.320000", "145628.322000", "145628.325000", "145628.328000", "145628.330000", "145628.333000", "145628.335000", "145628.338000", "145628.340000", "145628.343000", "145628.346000", "145628.348000", "145628.351000", "145628.353000", "145628.356000", "145628.358000", "145628.361000", "145628.364000", "145628.366000", "145628.369000", "145708.289000", "145708.293000", "145708.295000", "145708.298000", "145708.301000", "145708.304000", "145708.307000", "145708.310000", "145708.312000", "145708.315000", "145708.317000", "145708.320000", "145708.323000", "145708.325000", "145708.328000", "145708.331000", "145708.333000", "145708.336000", "145708.338000", "145708.341000", "145708.343000", "145708.346000", "145708.349000", "145708.351000", "145708.354000", "145708.356000", "145748.705000", "145748.708000", "145748.711000", "145748.714000", "145748.716000", "145748.719000", "145748.721000", "145748.724000", "145748.726000", "145748.729000", "145748.731000", "145748.734000", "145748.737000", "145748.739000", "145748.742000", "145748.744000", "145748.747000", "145748.750000", "145748.752000", "145748.755000", "145748.757000", "145748.760000", "145748.762000", "145748.765000", "145748.767000", "145748.794000", "145748.797000", "145828.302000", "145828.305000", "145828.308000", "145828.311000", "145828.313000", "145828.316000", "145828.318000", "145828.321000", "145828.323000", "145828.326000", "145828.329000", "145828.331000", "145828.334000", "145828.336000", "145828.339000", "145828.341000", "145828.344000", "145828.347000", "145828.349000", "145828.352000", "145828.355000", "145828.357000", "145828.360000", "145828.362000", "145828.365000", "145828.373000", "145828.376000", "145908.299000", "145908.302000", "145908.304000", "145908.307000", "145908.310000", "145908.312000", "145908.315000", "145908.317000", "145908.320000", "145908.322000", "145908.325000", "145908.327000", "145908.330000", "145908.333000", "145908.335000", "145908.338000", "145908.340000", "145908.343000", "145908.345000", "145908.348000", "145908.351000", "145908.353000", "145908.356000", "145908.358000", "145908.361000", "145908.363000", "145908.366000", "145948.302000", "145948.305000", "145948.308000", "145948.310000", "145948.313000", "145948.315000", "145948.318000", "145948.320000", "145948.323000", "145948.326000", "145948.328000", "145948.331000", "145948.333000", "145948.336000", "145948.338000", "145948.341000", "145948.344000", "145948.346000", "145948.349000", "145948.352000", "145948.354000", "145948.357000", "145948.359000", "145948.362000", "145948.364000", "145948.367000", "145948.369000", "150008.226000", "150008.229000", "150008.232000", "150008.234000", "150008.237000", "150008.239000", "150008.242000", "150008.244000", "150008.247000", "150008.249000", "150008.252000", "150008.255000", "150008.257000", "150048.292000", "150048.295000", "150048.297000", "150048.300000", "150048.303000", "150048.305000", "150048.308000", "150048.310000", "150048.313000", "150048.315000", "150048.318000", "150048.321000", "150048.323000", "150048.326000", "150048.328000", "150048.331000", "150048.333000", "150048.336000", "150048.339000", "150048.341000", "150048.344000", "150048.346000", "150048.349000", "150048.351000", "150048.354000", "150048.356000", "150048.359000", "150128.276000", "150128.279000", "150128.281000", "150128.284000", "150128.287000", "150128.289000", "150128.292000", "150128.294000", "150128.297000", "150128.299000", "150128.302000", "150128.304000", "150128.307000", "150128.310000", "150128.312000", "150128.315000", "150128.317000", "150128.320000", "150128.322000", "150128.325000", "150128.327000", "150128.330000", "150128.333000", "150128.335000", "150128.338000", "150128.340000", "150128.343000", "150156.387000", "150156.389000", "150156.392000", "150156.394000", "150156.397000", "150156.400000", "150156.402000", "150156.405000", "150156.407000", "150156.410000", "150156.413000", "150156.415000", "150156.418000", "150156.420000", "150156.423000", "150156.426000", "150156.428000", "150156.431000", "150156.433000"],
      "InstanceCreationTime": ["145228.326000", "145228.328000", "145228.331000", "145228.337000", "145228.340000", "145228.342000", "145228.345000", "145228.347000", "145228.350000", "145228.352000", "145228.355000", "145228.357000", "145228.360000", "145228.362000", "145228.365000", "145228.367000", "145228.370000", "145228.373000", "145228.375000", "145228.378000", "145228.380000", "145228.383000", "145228.385000", "145228.388000", "145248.250000", "145248.252000", "145248.255000", "145248.257000", "145248.260000", "145248.262000", "145248.265000", "145248.268000", "145248.278000", "145248.280000", "145248.283000", "145248.286000", "145248.288000", "145248.291000", "145248.293000", "145248.296000", "145248.298000", "145248.301000", "145248.303000", "145248.306000", "145308.272000", "145308.275000", "145308.277000", "145308.280000", "145308.282000", "145308.285000", "145308.287000", "145308.290000", "145308.293000", "145308.295000", "145308.306000", "145308.308000", "145308.311000", "145308.313000", "145308.316000", "145308.318000", "145308.321000", "145308.324000", "145308.326000", "145308.329000", "145328.254000", "145328.256000", "145328.259000", "145328.262000", "145328.264000", "145328.267000", "145328.269000", "145328.272000", "145328.274000", "145328.277000", "145328.279000", "145328.282000", "145328.284000", "145328.287000", "145328.290000", "145328.292000", "145328.303000", "145328.306000", "145328.308000", "145328.311000", "145348.252000", "145348.255000", "145348.258000", "145348.260000", "145348.263000", "145348.266000", "145348.268000", "145348.271000", "145348.273000", "145348.276000", "145348.279000", "145348.282000", "145348.285000", "145348.288000", "145348.290000", "145348.293000", "145348.297000", "145348.300000", "145348.303000", "145348.305000", "145428.318000", "145428.321000", "145428.323000", "145428.326000", "145428.328000", "145428.331000", "145428.333000", "145428.336000", "145428.339000", "145428.341000", "145428.344000", "145428.352000", "145428.354000", "145428.357000", "145428.359000", "145428.362000", "145428.365000", "145428.367000", "145428.370000", "145428.372000", "145428.375000", "145428.377000", "145428.380000", "145428.383000", "145428.385000", "145428.388000", "145428.390000", "145428.393000", "145428.395000", "145508.297000", "145508.300000", "145508.303000", "145508.305000", "145508.308000", "145508.310000", "145508.313000", "145508.315000", "145508.318000", "145508.321000", "145508.323000", "145508.326000", "145508.328000", "145508.331000", "145508.333000", "145508.336000", "145508.338000", "145508.341000", "145508.344000", "145508.346000", "145508.349000", "145508.351000", "145508.354000", "145508.356000", "145508.359000", "145508.361000", "145508.364000", "145548.299000", "145548.302000", "145548.305000", "145548.307000", "145548.310000", "145548.313000", "145548.315000", "145548.318000", "145548.320000", "145548.323000", "145548.325000", "145548.328000", "145548.331000", "145548.333000", "145548.336000", "145548.338000", "145548.341000", "145548.343000", "145548.346000", "145548.349000", "145548.351000", "145548.354000", "145548.356000", "145548.359000", "145548.361000", "145548.364000", "145548.366000", "145628.301000", "145628.304000", "145628.307000", "145628.309000", "145628.312000", "145628.315000", "145628.317000", "145628.320000", "145628.322000", "145628.325000", "145628.328000", "145628.330000", "145628.333000", "145628.335000", "145628.338000", "145628.340000", "145628.343000", "145628.346000", "145628.348000", "145628.351000", "145628.353000", "145628.356000", "145628.358000", "145628.361000", "145628.364000", "145628.366000", "145628.369000", "145708.289000", "145708.293000", "145708.295000", "145708.298000", "145708.301000", "145708.304000", "145708.307000", "145708.310000", "145708.312000", "145708.315000", "145708.317000", "145708.320000", "145708.323000", "145708.325000", "145708.328000", "145708.331000", "145708.333000", "145708.336000", "145708.338000", "145708.341000", "145708.343000", "145708.346000", "145708.349000", "145708.351000", "145708.354000", "145708.356000", "145748.705000", "145748.708000", "145748.711000", "145748.714000", "145748.716000", "145748.719000", "145748.721000", "145748.724000", "145748.726000", "145748.729000", "145748.731000", "145748.734000", "145748.737000", "145748.739000", "145748.742000", "145748.744000", "145748.747000", "145748.750000", "145748.752000", "145748.755000", "145748.757000", "145748.760000", "145748.762000", "145748.765000", "145748.767000", "145748.794000", "145748.797000", "145828.302000", "145828.305000", "145828.308000", "145828.311000", "145828.313000", "145828.316000", "145828.318000", "145828.321000", "145828.323000", "145828.326000", "145828.329000", "145828.331000", "145828.334000", "145828.336000", "145828.339000", "145828.341000", "145828.344000", "145828.347000", "145828.349000", "145828.352000", "145828.355000", "145828.357000", "145828.360000", "145828.362000", "145828.365000", "145828.373000", "145828.376000", "145908.299000", "145908.302000", "145908.304000", "145908.307000", "145908.310000", "145908.312000", "145908.315000", "145908.317000", "145908.320000", "145908.322000", "145908.325000", "145908.327000", "145908.330000", "145908.333000", "145908.335000", "145908.338000", "145908.340000", "145908.343000", "145908.345000", "145908.348000", "145908.351000", "145908.353000", "145908.356000", "145908.358000", "145908.361000", "145908.363000", "145908.366000", "145948.302000", "145948.305000", "145948.308000", "145948.310000", "145948.313000", "145948.315000", "145948.318000", "145948.320000", "145948.323000", "145948.326000", "145948.328000", "145948.331000", "145948.333000", "145948.336000", "145948.338000", "145948.341000", "145948.344000", "145948.346000", "145948.349000", "145948.352000", "145948.354000", "145948.357000", "145948.359000", "145948.362000", "145948.364000", "145948.367000", "145948.369000", "150008.226000", "150008.229000", "150008.232000", "150008.234000", "150008.237000", "150008.239000", "150008.242000", "150008.244000", "150008.247000", "150008.249000", "150008.252000", "150008.255000", "150008.257000", "150048.292000", "150048.295000", "150048.297000", "150048.300000", "150048.303000", "150048.305000", "150048.308000", "150048.310000", "150048.313000", "150048.315000", "150048.318000", "150048.321000", "150048.323000", "150048.326000", "150048.328000", "150048.331000", "150048.333000", "150048.336000", "150048.339000", "150048.341000", "150048.344000", "150048.346000", "150048.349000", "150048.351000", "150048.354000", "150048.356000", "150048.359000", "150128.276000", "150128.279000", "150128.281000", "150128.284000", "150128.287000", "150128.289000", "150128.292000", "150128.294000", "150128.297000", "150128.299000", "150128.302000", "150128.304000", "150128.307000", "150128.310000", "150128.312000", "150128.315000", "150128.317000", "150128.320000", "150128.322000", "150128.325000", "150128.327000", "150128.330000", "150128.333000", "150128.335000", "150128.338000", "150128.340000", "150128.343000", "150156.387000", "150156.389000", "150156.392000", "150156.394000", "150156.397000", "150156.400000", "150156.402000", "150156.405000", "150156.407000", "150156.410000", "150156.413000", "150156.415000", "150156.418000", "150156.420000", "150156.423000", "150156.426000", "150156.428000", "150156.431000", "150156.433000"],
