{
  "AcquisitionMatrixPE": 104,
  "AcquisitionNumber": 1,
  "AcquisitionTime": "14:38:27.790000",
  "BandwidthPerPixelPhaseEncode": 17.17,
  "BaseResolution": 104,
  "BodyPartExamined": "BRAIN",
  "CoilString": "HC1-7;NC1_2",
  "ConsistencyInfo": "N4_VE11C_LATEST_20160120",
  "ConversionSoftware": "dcm2niix",
  "ConversionSoftwareVersion": "v1.0.20190902",
  "DerivedVendorReportedEchoSpacing": 0.000560011,
  "DeviceSerialNumber": "167006",
  "DwellTime": 2.1e-06,
  "EchoTime": 0.037,
  "EchoTrainLength": 104,
  "EffectiveEchoSpacing": 0.000560011,
  "FlipAngle": 52,
  "HeudiconvVersion": "0.10.0",
  "ImageComments": "Unaliased_MB4_PE3_LB",
  "ImageOrientationPatientDICOM": [0.999951, 0.00925734, 0.00337892, -0.0062829, 0.863028, -0.505116],
  "ImageType": [
    "ORIGINAL",
    "PRIMARY",
    "P",
    "MB",
    "ND",
    "MOSAIC"
],
  "ImagingFrequency": 123.259,
  "InPlanePhaseEncodingDirectionDICOM": "COL",
  "InstitutionAddress": "Chemin_Queen-Mary_4565_Montreal_District_CA_H3W_1W5",
  "InstitutionName": "IUGM",
  "InstitutionalDepartmentName": "Department",
  "MRAcquisitionType": "2D",
  "MagneticFieldStrength": 3,
  "Manufacturer": "Siemens",
  "ManufacturersModelName": "Prisma_fit",
  "Modality": "MR",
  "MultibandAccelerationFactor": 4,
  "PartialFourier": 1,
  "PatientPosition": "HFS",
  "PercentPhaseFOV": 100,
  "PhaseEncodingDirection": "j",
  "PhaseEncodingSteps": 104,
  "PhaseResolution": 1,
  "PixelBandwidth": 2290,
  "ProcedureStepDescription": "games_mario",
  "ProtocolName": "func_task-mario_run-05",
  "PulseSequenceDetails": "%CustomerSeq%_cmrr_mbep2d_bold",
  "ReceiveCoilActiveElements": "HC1-7;NC1,2",
  "ReceiveCoilName": "HeadNeck_64",
  "ReconMatrixPE": 104,
  "RepetitionTime": 1.49,
  "SAR": 0.0553838,
  "ScanOptions": "FS",
  "ScanningSequence": "EP",
  "SequenceName": "epfid2d1_104",
  "SequenceVariant": "SK_SS",
  "SeriesDescription": "func_task-mario_run-05",
  "SeriesNumber": 23,
  "ShimSetting": [617, -7171, -8865, 310, 23, -113, -14, -57],
  "SliceThickness": 2,
  "SliceTiming": [0, 0.7825, 0.0975, 0.88, 0.195, 0.9775, 0.2925, 1.0775, 0.39, 1.175, 0.4875, 1.2725, 0.5875, 1.37, 0.685, 0, 0.7825, 0.0975, 0.88, 0.195, 0.9775, 0.2925, 1.0775, 0.39, 1.175, 0.4875, 1.2725, 0.5875, 1.37, 0.685, 0, 0.7825, 0.0975, 0.88, 0.195, 0.9775, 0.2925, 1.0775, 0.39, 1.175, 0.4875, 1.2725, 0.5875, 1.37, 0.685, 0, 0.7825, 0.0975, 0.88, 0.195, 0.9775, 0.2925, 1.0775, 0.39, 1.175, 0.4875, 1.2725, 0.5875, 1.37, 0.685],
  "SoftwareVersions": "syngo_MR_E11",
  "SpacingBetweenSlices": 2,
  "StationName": "MRC35049",
  "TaskName": "mario",
  "TotalReadoutTime": 0.0576811,
  "TxRefAmp": 286.472,
  "WipMemBlock": "bb7ee8e1-5772-42ae-806b-747ca5b54408||Sequence: R016 ve11c/master r/e634e98; Dec 19 2017 11:00:25 by eja",
  "dcmmeta_affine": [
    [-1.9999028444290161, -0.012565802782773972, 0.015184275805950165, 107.73764038085938],
    [-0.01851467601954937, 1.726056694984436, -1.0101412534713745, -50.71147537231445],
    [0.006757842376828194, 1.0102328062057495, 1.7260891199111938, -95.2027587890625],
    [0.0, 0.0, 0.0, 1.0]
],
  "dcmmeta_reorient_transform": [
    [0.0, -1.0, 0.0, 103.0],
    [1.0, 0.0, 0.0, 0.0],
    [0.0, 0.0, 1.0, 0.0],
    [0.0, 0.0, 0.0, 1.0]
],
  "dcmmeta_shape": [104, 104, 60, 434],
  "dcmmeta_slice_dim": 2,
  "dcmmeta_version": 0.6,
  "global": {
    "const": {
      "AcquisitionMatrix": [104, 0, 0, 104],
      "AngioFlag": "N",
      "BitsAllocated": 16,
      "BitsStored": 16,
      "BodyPartExamined": "BRAIN",
      "Columns": 832,
      "EchoNumbers": 1,
      "EchoTime": 37.0,
      "EchoTrainLength": 104,
      "FlipAngle": 52.0,
      "HighBit": 15,
      "ImageOrientationPatient": [0.99995144111502, 0.00925733778454, 0.0033789212983, -0.0062829014706, 0.86302835249833, -0.505116410279],
      "ImagePositionPatient": [-829.83406142711, -762.09634672013, 374.11611161441],
      "ImageType": [
        "ORIGINAL",
        "PRIMARY",
        "P",
        "MB",
        "ND",
        "MOSAIC"
],
      "ImagedNucleus": "1H",
      "ImagingFrequency": 123.258947,
      "InPlanePhaseEncodingDirection": "COL",
      "LargestImagePixelValue": 4095,
      "MRAcquisitionType": "2D",
      "MagneticFieldStrength": 3.0,
      "Manufacturer": "SIEMENS",
      "ManufacturerModelName": "Prisma_fit",
      "Modality": "MR",
      "NumberOfAverages": 1.0,
      "NumberOfPhaseEncodingSteps": 104,
      "PercentPhaseFieldOfView": 100.0,
      "PercentSampling": 100.0,
      "PerformedProcedureStepStartTime": "134445.256000",
      "PhotometricInterpretation": "MONOCHROME2",
      "PixelBandwidth": 2290.0,
      "PixelRepresentation": 0,
      "PixelSpacing": [2.0, 2.0],
      "ProtocolName": "func_task-mario_run-05",
      "RepetitionTime": 1490.0,
      "RescaleIntercept": -4096.0,
      "RescaleSlope": 2.0,
      "RescaleType": "US",
      "Rows": 832,
      "SAR": 0.05538377760352,
      "SamplesPerPixel": 1,
      "ScanOptions": "FS",
      "ScanningSequence": "EP",
      "SequenceName": "epfid2d1_104",
      "SequenceVariant": [
        "SK",
        "SS"
],
      "SeriesDescription": "func_task-mario_run-05",
      "SeriesNumber": 23,
      "SeriesTime": "143941.694000",
      "SliceLocation": -55.733391852622,
      "SliceThickness": 2.0,
      "SmallestImagePixelValue": 0,
      "SoftwareVersions": "syngo MR E11",
      "SpacingBetweenSlices": 1.9999999320517,
      "SpecificCharacterSet": "ISO_IR 100",
      "StudyID": "1",
      "StudyTime": "134445.193000",
      "TransmitCoilName": "Body",
      "VariableFlipAngleFlag": "N",
      "WindowCenterWidthExplanation": "Algo1",
      "dBdt": 0.0},
    "slices": {}
  },
  "time": {
    "samples": {
      "AcquisitionNumber": [1, 2, 3, 4, 5, 6, 7, 8, 9, 10, 11, 12, 13, 14, 15, 16, 17, 18, 19, 20, 21, 22, 23, 24, 25, 26, 27, 28, 29, 30, 31, 32, 33, 34, 35, 36, 37, 38, 39, 40, 41, 42, 43, 44, 45, 46, 47, 48, 49, 50, 51, 52, 53, 54, 55, 56, 57, 58, 59, 60, 61, 62, 63, 64, 65, 66, 67, 68, 69, 70, 71, 72, 73, 74, 75, 76, 77, 78, 79, 80, 81, 82, 83, 84, 85, 86, 87, 88, 89, 90, 91, 92, 93, 94, 95, 96, 97, 98, 99, 100, 101, 102, 103, 104, 105, 106, 107, 108, 109, 110, 111, 112, 113, 114, 115, 116, 117, 118, 119, 120, 121, 122, 123, 124, 125, 126, 127, 128, 129, 130, 131, 132, 133, 134, 135, 136, 137, 138, 139, 140, 141, 142, 143, 144, 145, 146, 147, 148, 149, 150, 151, 152, 153, 154, 155, 156, 157, 158, 159, 160, 161, 162, 163, 164, 165, 166, 167, 168, 169, 170, 171, 172, 173, 174, 175, 176, 177, 178, 179, 180, 181, 182, 183, 184, 185, 186, 187, 188, 189, 190, 191, 192, 193, 194, 195, 196, 197, 198, 199, 200, 201, 202, 203, 204, 205, 206, 207, 208, 209, 210, 211, 212, 213, 214, 215, 216, 217, 218, 219, 220, 221, 222, 223, 224, 225, 226, 227, 228, 229, 230, 231, 232, 233, 234, 235, 236, 237, 238, 239, 240, 241, 242, 243, 244, 245, 246, 247, 248, 249, 250, 251, 252, 253, 254, 255, 256, 257, 258, 259, 260, 261, 262, 263, 264, 265, 266, 267, 268, 269, 270, 271, 272, 273, 274, 275, 276, 277, 278, 279, 280, 281, 282, 283, 284, 285, 286, 287, 288, 289, 290, 291, 292, 293, 294, 295, 296, 297, 298, 299, 300, 301, 302, 303, 304, 305, 306, 307, 308, 309, 310, 311, 312, 313, 314, 315, 316, 317, 318, 319, 320, 321, 322, 323, 324, 325, 326, 327, 328, 329, 330, 331, 332, 333, 334, 335, 336, 337, 338, 339, 340, 341, 342, 343, 344, 345, 346, 347, 348, 349, 350, 351, 352, 353, 354, 355, 356, 357, 358, 359, 360, 361, 362, 363, 364, 365, 366, 367, 368, 369, 370, 371, 372, 373, 374, 375, 376, 377, 378, 379, 380, 381, 382, 383, 384, 385, 386, 387, 388, 389, 390, 391, 392, 393, 394, 395, 396, 397, 398, 399, 400, 401, 402, 403, 404, 405, 406, 407, 408, 409, 410, 411, 412, 413, 414, 415, 416, 417, 418, 419, 420, 421, 422, 423, 424, 425, 426, 427, 428, 429, 430, 431, 432, 433, 434],
      "AcquisitionTime": ["143827.790000", "143829.280000", "143830.770000", "143832.260000", "143833.750000", "143835.240000", "143836.730000", "143838.220000", "143839.710000", "143841.200000", "143842.690000", "143844.180000", "143845.670000", "143847.160000", "143848.650000", "143850.140000", "143851.630000", "143853.120000", "143854.610000", "143856.100000", "143857.590000", "143859.080000", "143900.570000", "143902.060000", "143903.550000", "143905.040000", "143906.530000", "143908.020000", "143909.510000", "143911.000000", "143912.490000", "143913.980000", "143915.470000", "143916.960000", "143918.450000", "143919.940000", "143921.430000", "143922.920000", "143924.410000", "143925.900000", "143927.390000", "143928.880000", "143930.370000", "143931.860000", "143933.350000", "143934.840000", "143936.330000", "143937.820000", "143939.310000", "143940.800000", "143942.290000", "143943.780000", "143945.270000", "143946.760000", "143948.250000", "143949.740000", "143951.230000", "143952.720000", "143954.210000", "143955.700000", "143957.190000", "143958.680000", "144000.170000", "144001.660000", "144003.150000", "144004.640000", "144006.130000", "144007.620000", "144009.110000", "144010.600000", "144012.090000", "144013.580000", "144015.070000", "144016.560000", "144018.050000", "144019.540000", "144021.030000", "144022.520000", "144024.010000", "144025.500000", "144026.990000", "144028.480000", "144029.970000", "144031.460000", "144032.950000", "144034.440000", "144035.930000", "144037.420000", "144038.910000", "144040.400000", "144041.890000", "144043.380000", "144044.870000", "144046.360000", "144047.850000", "144049.340000", "144050.830000", "144052.320000", "144053.810000", "144055.300000", "144056.790000", "144058.280000", "144059.770000", "144101.260000", "144102.750000", "144104.240000", "144105.730000", "144107.220000", "144108.710000", "144110.200000", "144111.690000", "144113.180000", "144114.670000", "144116.160000", "144117.650000", "144119.140000", "144120.630000", "144122.120000", "144123.610000", "144125.100000", "144126.590000", "144128.080000", "144129.570000", "144131.060000", "144132.550000", "144134.040000", "144135.530000", "144137.020000", "144138.510000", "144140.000000", "144141.490000", "144142.980000", "144144.470000", "144145.960000", "144147.450000", "144148.940000", "144150.430000", "144151.920000", "144153.410000", "144154.900000", "144156.390000", "144157.880000", "144159.370000", "144200.860000", "144202.350000", "144203.840000", "144205.330000", "144206.820000", "144208.310000", "144209.800000", "144211.290000", "144212.780000", "144214.270000", "144215.760000", "144217.250000", "144218.740000", "144220.230000", "144221.720000", "144223.210000", "144224.700000", "144226.190000", "144227.680000", "144229.170000", "144230.660000", "144232.150000", "144233.640000", "144235.130000", "144236.620000", "144238.110000", "144239.600000", "144241.090000", "144242.580000", "144244.070000", "144245.560000", "144247.050000", "144248.540000", "144250.030000", "144251.520000", "144253.010000", "144254.500000", "144255.990000", "144257.480000", "144258.970000", "144300.460000", "144301.950000", "144303.440000", "144304.930000", "144306.420000", "144307.910000", "144309.400000", "144310.890000", "144312.380000", "144313.870000", "144315.360000", "144316.850000", "144318.340000", "144319.830000", "144321.320000", "144322.810000", "144324.300000", "144325.790000", "144327.280000", "144328.770000", "144330.260000", "144331.750000", "144333.240000", "144334.730000", "144336.220000", "144337.710000", "144339.200000", "144340.690000", "144342.180000", "144343.670000", "144345.160000", "144346.650000", "144348.140000", "144349.630000", "144351.120000", "144352.610000", "144354.100000", "144355.590000", "144357.080000", "144358.570000", "144400.060000", "144401.550000", "144403.040000", "144404.530000", "144406.020000", "144407.510000", "144409.000000", "144410.490000", "144411.980000", "144413.470000", "144414.960000", "144416.450000", "144417.940000", "144419.430000", "144420.920000", "144422.410000", "144423.900000", "144425.390000", "144426.880000", "144428.370000", "144429.860000", "144431.350000", "144432.840000", "144434.330000", "144435.820000", "144437.310000", "144438.800000", "144440.290000", "144441.780000", "144443.270000", "144444.760000", "144446.250000", "144447.740000", "144449.230000", "144450.720000", "144452.210000", "144453.700000", "144455.190000", "144456.680000", "144458.170000", "144459.660000", "144501.150000", "144502.640000", "144504.130000", "144505.620000", "144507.110000", "144508.600000", "144510.090000", "144511.580000", "144513.070000", "144514.560000", "144516.050000", "144517.540000", "144519.030000", "144520.520000", "144522.010000", "144523.500000", "144524.990000", "144526.480000", "144527.970000", "144529.460000", "144530.950000", "144532.440000", "144533.930000", "144535.420000", "144536.910000", "144538.400000", "144539.890000", "144541.380000", "144542.870000", "144544.360000", "144545.850000", "144547.340000", "144548.830000", "144550.320000", "144551.810000", "144553.300000", "144554.790000", "144556.280000", "144557.770000", "144559.260000", "144600.750000", "144602.240000", "144603.730000", "144605.220000", "144606.710000", "144608.200000", "144609.690000", "144611.180000", "144612.670000", "144614.160000", "144615.650000", "144617.140000", "144618.630000", "144620.120000", "144621.610000", "144623.100000", "144624.590000", "144626.080000", "144627.570000", "144629.060000", "144630.550000", "144632.040000", "144633.530000", "144635.020000", "144636.510000", "144638.000000", "144639.490000", "144640.980000", "144642.470000", "144643.960000", "144645.450000", "144646.940000", "144648.430000", "144649.920000", "144651.410000", "144652.900000", "144654.390000", "144655.880000", "144657.370000", "144658.860000", "144700.350000", "144701.840000", "144703.330000", "144704.820000", "144706.310000", "144707.800000", "144709.290000", "144710.780000", "144712.270000", "144713.760000", "144715.250000", "144716.740000", "144718.230000", "144719.720000", "144721.210000", "144722.700000", "144724.190000", "144725.680000", "144727.170000", "144728.660000", "144730.150000", "144731.640000", "144733.130000", "144734.620000", "144736.110000", "144737.600000", "144739.090000", "144740.580000", "144742.070000", "144743.560000", "144745.050000", "144746.540000", "144748.030000", "144749.520000", "144751.010000", "144752.500000", "144753.990000", "144755.480000", "144756.970000", "144758.460000", "144759.950000", "144801.440000", "144802.930000", "144804.420000", "144805.910000", "144807.400000", "144808.890000", "144810.380000", "144811.870000", "144813.360000", "144814.850000", "144816.340000", "144817.830000", "144819.320000", "144820.810000", "144822.300000", "144823.790000", "144825.280000", "144826.770000", "144828.260000", "144829.750000", "144831.240000", "144832.730000", "144834.220000", "144835.710000", "144837.200000", "144838.690000", "144840.180000", "144841.670000", "144843.160000", "144844.650000", "144846.140000", "144847.630000", "144849.120000", "144850.610000", "144852.100000", "144853.590000", "144855.080000", "144856.570000", "144858.060000", "144859.550000", "144901.040000", "144902.530000", "144904.020000", "144905.510000", "144907.000000", "144908.490000", "144909.980000", "144911.470000", "144912.960000"],
      "ContentTime": ["143941.696000", "143941.699000", "143941.702000", "143941.704000", "143941.707000", "143941.709000", "143941.712000", "143941.715000", "143941.717000", "143941.720000", "143941.722000", "143941.725000", "143941.727000", "143941.730000", "143941.732000", "143941.735000", "143941.737000", "143941.740000", "143941.742000", "143941.745000", "144001.626000", "144001.629000", "144001.631000", "144001.634000", "144001.636000", "144001.639000", "144001.641000", "144001.644000", "144001.647000", "144001.649000", "144001.652000", "144001.654000", "144001.657000", "144001.659000", "144001.662000", "144001.664000", "144001.667000", "144001.669000", "144001.672000", "144001.674000", "144021.636000", "144021.639000", "144021.642000", "144021.644000", "144021.647000", "144021.649000", "144021.652000", "144021.654000", "144021.657000", "144021.659000", "144021.662000", "144021.664000", "144021.667000", "144021.669000", "144021.672000", "144021.674000", "144021.677000", "144021.680000", "144021.682000", "144021.685000", "144041.635000", "144041.638000", "144041.641000", "144041.643000", "144041.646000", "144041.648000", "144041.651000", "144041.653000", "144041.656000", "144041.658000", "144041.661000", "144041.663000", "144041.666000", "144041.669000", "144041.671000", "144041.674000", "144041.676000", "144041.679000", "144041.681000", "144041.684000", "144101.651000", "144101.654000", "144101.657000", "144101.659000", "144101.662000", "144101.664000", "144101.667000", "144101.669000", "144101.672000", "144101.674000", "144101.677000", "144101.680000", "144101.682000", "144101.685000", "144101.687000", "144101.690000", "144101.692000", "144101.695000", "144101.697000", "144101.700000", "144141.684000", "144141.686000", "144141.689000", "144141.691000", "144141.694000", "144141.696000", "144141.699000", "144141.704000", "144141.707000", "144141.710000", "144141.712000", "144141.715000", "144141.717000", "144141.720000", "144141.723000", "144141.725000", "144141.728000", "144141.730000", "144141.733000", "144141.735000", "144141.738000", "144141.740000", "144141.743000", "144141.745000", "144141.748000", "144141.751000", "144141.753000", "144141.756000", "144141.758000", "144221.668000", "144221.670000", "144221.673000", "144221.676000", "144221.678000", "144221.681000", "144221.683000", "144221.686000", "144221.688000", "144221.691000", "144221.694000", "144221.696000", "144221.699000", "144221.701000", "144221.704000", "144221.706000", "144221.709000", "144221.711000", "144221.714000", "144221.717000", "144221.719000", "144221.722000", "144221.724000", "144221.727000", "144221.729000", "144221.732000", "144221.735000", "144301.664000", "144301.667000", "144301.669000", "144301.672000", "144301.674000", "144301.677000", "144301.679000", "144301.683000", "144301.685000", "144301.688000", "144301.690000", "144301.693000", "144301.696000", "144301.698000", "144301.701000", "144301.703000", "144301.706000", "144301.708000", "144301.711000", "144301.713000", "144301.716000", "144301.718000", "144301.721000", "144301.724000", "144301.734000", "144301.737000", "144301.739000", "144341.689000", "144341.692000", "144341.694000", "144341.697000", "144341.699000", "144341.702000", "144341.704000", "144341.707000", "144341.710000", "144341.712000", "144341.715000", "144341.717000", "144341.720000", "144341.722000", "144341.725000", "144341.728000", "144341.730000", "144341.733000", "144341.735000", "144341.738000", "144341.740000", "144341.743000", "144341.745000", "144341.748000", "144341.751000", "144341.753000", "144341.756000", "144421.669000", "144421.672000", "144421.674000", "144421.677000", "144421.679000", "144421.682000", "144421.685000", "144421.687000", "144421.690000", "144421.692000", "144421.695000", "144421.697000", "144421.700000", "144421.702000", "144421.705000", "144421.707000", "144421.710000", "144421.713000", "144421.715000", "144421.718000", "144421.720000", "144421.723000", "144421.725000", "144421.728000", "144421.730000", "144421.733000", "144421.736000", "144501.659000", "144501.662000", "144501.665000", "144501.667000", "144501.670000", "144501.672000", "144501.675000", "144501.677000", "144501.680000", "144501.682000", "144501.685000", "144501.688000", "144501.690000", "144501.693000", "144501.695000", "144501.698000", "144501.700000", "144501.703000", "144501.706000", "144501.708000", "144501.711000", "144501.713000", "144501.716000", "144501.718000", "144501.721000", "144501.724000", "144501.726000", "144541.668000", "144541.671000", "144541.674000", "144541.678000", "144541.681000", "144541.684000", "144541.687000", "144541.690000", "144541.693000", "144541.696000", "144541.698000", "144541.701000", "144541.703000", "144541.706000", "144541.708000", "144541.711000", "144541.714000", "144541.716000", "144541.719000", "144541.721000", "144541.724000", "144541.727000", "144541.729000", "144541.732000", "144541.734000", "144541.737000", "144621.670000", "144621.673000", "144621.676000", "144621.678000", "144621.681000", "144621.683000", "144621.686000", "144621.691000", "144621.694000", "144621.697000", "144621.699000", "144621.702000", "144621.704000", "144621.707000", "144621.709000", "144621.712000", "144621.715000", "144621.717000", "144621.720000", "144621.722000", "144621.725000", "144621.728000", "144621.730000", "144621.733000", "144621.735000", "144621.738000", "144621.740000", "144701.678000", "144701.681000", "144701.684000", "144701.686000", "144701.689000", "144701.692000", "144701.694000", "144701.697000", "144701.699000", "144701.702000", "144701.704000", "144701.707000", "144701.709000", "144701.712000", "144701.714000", "144701.717000", "144701.720000", "144701.722000", "144701.725000", "144701.727000", "144701.730000", "144701.732000", "144701.735000", "144701.737000", "144701.740000", "144701.743000", "144701.745000", "144741.686000", "144741.689000", "144741.692000", "144741.694000", "144741.697000", "144741.699000", "144741.702000", "144741.704000", "144741.707000", "144741.710000", "144741.712000", "144741.715000", "144741.717000", "144741.720000", "144741.723000", "144741.725000", "144741.728000", "144741.734000", "144741.736000", "144741.739000", "144741.741000", "144741.744000", "144741.746000", "144741.749000", "144741.752000", "144741.754000", "144741.757000", "144821.671000", "144821.674000", "144821.677000", "144821.679000", "144821.682000", "144821.685000", "144821.687000", "144821.690000", "144821.692000", "144821.695000", "144821.697000", "144821.700000", "144821.702000", "144821.705000", "144821.708000", "144821.710000", "144821.713000", "144821.715000", "144821.718000", "144821.720000", "144821.723000", "144821.725000", "144821.728000", "144821.730000", "144821.733000", "144821.736000", "144821.738000", "144901.663000", "144901.665000", "144901.668000", "144901.671000", "144901.673000", "144901.676000", "144901.678000", "144901.681000", "144901.684000", "144901.686000", "144901.689000", "144901.691000", "144901.694000", "144901.696000", "144901.699000", "144901.702000", "144901.704000", "144901.707000", "144901.709000", "144901.712000", "144901.714000", "144901.717000", "144901.719000", "144901.722000", "144901.725000", "144901.727000", "144901.730000", "144915.164000", "144915.167000", "144915.169000", "144915.172000", "144915.174000", "144915.177000", "144915.180000", "144915.182000", "144915.185000"],
      "InstanceCreationTime": ["143941.696000", "143941.699000", "143941.702000", "143941.704000", "143941.707000", "143941.709000", "143941.712000", "143941.715000", "143941.717000", "143941.720000", "143941.722000", "143941.725000", "143941.727000", "143941.730000", "143941.732000", "143941.735000", "143941.737000", "143941.740000", "143941.742000", "143941.745000", "144001.626000", "144001.629000", "144001.631000", "144001.634000", "144001.636000", "144001.639000", "144001.641000", "144001.644000", "144001.647000", "144001.649000", "144001.652000", "144001.654000", "144001.657000", "144001.659000", "144001.662000", "144001.664000", "144001.667000", "144001.669000", "144001.672000", "144001.674000", "144021.636000", "144021.639000", "144021.642000", "144021.644000", "144021.647000", "144021.649000", "144021.652000", "144021.654000", "144021.657000", "144021.659000", "144021.662000", "144021.664000", "144021.667000", "144021.669000", "144021.672000", "144021.674000", "144021.677000", "144021.680000", "144021.682000", "144021.685000", "144041.635000", "144041.638000", "144041.641000", "144041.643000", "144041.646000", "144041.648000", "144041.651000", "144041.653000", "144041.656000", "144041.658000", "144041.661000", "144041.663000", "144041.666000", "144041.669000", "144041.671000", "144041.674000", "144041.676000", "144041.679000", "144041.681000", "144041.684000", "144101.651000", "144101.654000", "144101.657000", "144101.659000", "144101.662000", "144101.664000", "144101.667000", "144101.669000", "144101.672000", "144101.674000", "144101.677000", "144101.680000", "144101.682000", "144101.685000", "144101.687000", "144101.690000", "144101.692000", "144101.695000", "144101.697000", "144101.700000", "144141.684000", "144141.686000", "144141.689000", "144141.691000", "144141.694000", "144141.696000", "144141.699000", "144141.704000", "144141.707000", "144141.710000", "144141.712000", "144141.715000", "144141.717000", "144141.720000", "144141.723000", "144141.725000", "144141.728000", "144141.730000", "144141.733000", "144141.735000", "144141.738000", "144141.740000", "144141.743000", "144141.745000", "144141.748000", "144141.751000", "144141.753000", "144141.756000", "144141.758000", "144221.668000", "144221.670000", "144221.673000", "144221.676000", "144221.678000", "144221.681000", "144221.683000", "144221.686000", "144221.688000", "144221.691000", "144221.694000", "144221.696000", "144221.699000", "144221.701000", "144221.704000", "144221.706000", "144221.709000", "144221.711000", "144221.714000", "144221.717000", "144221.719000", "144221.722000", "144221.724000", "144221.727000", "144221.729000", "144221.732000", "144221.735000", "144301.664000", "144301.667000", "144301.669000", "144301.672000", "144301.674000", "144301.677000", "144301.679000", "144301.683000", "144301.685000", "144301.688000", "144301.690000", "144301.693000", "144301.696000", "144301.698000", "144301.701000", "144301.703000", "144301.706000", "144301.708000", "144301.711000", "144301.713000", "144301.716000", "144301.718000", "144301.721000", "144301.724000", "144301.734000", "144301.737000", "144301.739000", "144341.689000", "144341.692000", "144341.694000", "144341.697000", "144341.699000", "144341.702000", "144341.704000", "144341.707000", "144341.710000", "144341.712000", "144341.715000", "144341.717000", "144341.720000", "144341.722000", "144341.725000", "144341.728000", "144341.730000", "144341.733000", "144341.735000", "144341.738000", "144341.740000", "144341.743000", "144341.745000", "144341.748000", "144341.751000", "144341.753000", "144341.756000", "144421.669000", "144421.672000", "144421.674000", "144421.677000", "144421.679000", "144421.682000", "144421.685000", "144421.687000", "144421.690000", "144421.692000", "144421.695000", "144421.697000", "144421.700000", "144421.702000", "144421.705000", "144421.707000", "144421.710000", "144421.713000", "144421.715000", "144421.718000", "144421.720000", "144421.723000", "144421.725000", "144421.728000", "144421.730000", "144421.733000", "144421.736000", "144501.659000", "144501.662000", "144501.665000", "144501.667000", "144501.670000", "144501.672000", "144501.675000", "144501.677000", "144501.680000", "144501.682000", "144501.685000", "144501.688000", "144501.690000", "144501.693000", "144501.695000", "144501.698000", "144501.700000", "144501.703000", "144501.706000", "144501.708000", "144501.711000", "144501.713000", "144501.716000", "144501.718000", "144501.721000", "144501.724000", "144501.726000", "144541.668000", "144541.671000", "144541.674000", "144541.678000", "144541.681000", "144541.684000", "144541.687000", "144541.690000", "144541.693000", "144541.696000", "144541.698000", "144541.701000", "144541.703000", "144541.706000", "144541.708000", "144541.711000", "144541.714000", "144541.716000", "144541.719000", "144541.721000", "144541.724000", "144541.727000", "144541.729000", "144541.732000", "144541.734000", "144541.737000", "144621.670000", "144621.673000", "144621.676000", "144621.678000", "144621.681000", "144621.683000", "144621.686000", "144621.691000", "144621.694000", "144621.697000", "144621.699000", "144621.702000", "144621.704000", "144621.707000", "144621.709000", "144621.712000", "144621.715000", "144621.717000", "144621.720000", "144621.722000", "144621.725000", "144621.728000", "144621.730000", "144621.733000", "144621.735000", "144621.738000", "144621.740000", "144701.678000", "144701.681000", "144701.684000", "144701.686000", "144701.689000", "144701.692000", "144701.694000", "144701.697000", "144701.699000", "144701.702000", "144701.704000", "144701.707000", "144701.709000", "144701.712000", "144701.714000", "144701.717000", "144701.720000", "144701.722000", "144701.725000", "144701.727000", "144701.730000", "144701.732000", "144701.735000", "144701.737000", "144701.740000", "144701.743000", "144701.745000", "144741.686000", "144741.689000", "144741.692000", "144741.694000", "144741.697000", "144741.699000", "144741.702000", "144741.704000", "144741.707000", "144741.710000", "144741.712000", "144741.715000", "144741.717000", "144741.720000", "144741.723000", "144741.725000", "144741.728000", "144741.734000", "144741.736000", "144741.739000", "144741.741000", "144741.744000", "144741.746000", "144741.749000", "144741.752000", "144741.754000", "144741.757000", "144821.671000", "144821.674000", "144821.677000", "144821.679000", "144821.682000", "144821.685000", "144821.687000", "144821.690000", "144821.692000", "144821.695000", "144821.697000", "144821.700000", "144821.702000", "144821.705000", "144821.708000", "144821.710000", "144821.713000", "144821.715000", "144821.718000", "144821.720000", "144821.723000", "144821.725000", "144821.728000", "144821.730000", "144821.733000", "144821.736000", "144821.738000", "144901.663000", "144901.665000", "144901.668000", "144901.671000", "144901.673000", "144901.676000", "144901.678000", "144901.681000", "144901.684000", "144901.686000", "144901.689000", "144901.691000", "144901.694000", "144901.696000", "144901.699000", "144901.702000", "144901.704000", "144901.707000", "144901.709000", "144901.712000", "144901.714000", "144901.717000", "144901.719000", "144901.722000", "144901.725000", "144901.727000", "144901.730000", "144915.164000", "144915.167000", "144915.169000", "144915.172000", "144915.174000", "144915.177000", "144915.180000", "144915.182000", "144915.185000"],
