{
  "AcquisitionMatrixPE": 104,
  "AcquisitionNumber": 1,
  "AcquisitionTime": "13:23:53.627500",
  "BandwidthPerPixelPhaseEncode": 17.17,
  "BaseResolution": 104,
  "BodyPartExamined": "BRAIN",
  "CoilString": "HC1-7;NC1_2",
  "ConsistencyInfo": "N4_VE11C_LATEST_20160120",
  "ConversionSoftware": "dcm2niix",
  "ConversionSoftwareVersion": "v1.0.20190902",
  "DerivedVendorReportedEchoSpacing": 0.000560011,
  "DeviceSerialNumber": "167006",
  "DwellTime": 2.1e-06,
  "EchoTime": 0.037,
  "EchoTrainLength": 104,
  "EffectiveEchoSpacing": 0.000560011,
  "FlipAngle": 52,
  "HeudiconvVersion": "0.10.0",
  "ImageComments": "Unaliased_MB4_PE3_LB",
  "ImageOrientationPatientDICOM": [0.999383, 0.020271, 0.0286973, -0.00313966, 0.865037, -0.501698],
  "ImageType": [
    "ORIGINAL",
    "PRIMARY",
    "M",
    "MB",
    "ND",
    "MOSAIC"
],
  "ImagingFrequency": 123.259,
  "InPlanePhaseEncodingDirectionDICOM": "COL",
  "InstitutionAddress": "Chemin_Queen-Mary_4565_Montreal_District_CA_H3W_1W5",
  "InstitutionName": "IUGM",
  "InstitutionalDepartmentName": "Department",
  "MRAcquisitionType": "2D",
  "MagneticFieldStrength": 3,
  "Manufacturer": "Siemens",
  "ManufacturersModelName": "Prisma_fit",
  "Modality": "MR",
  "MultibandAccelerationFactor": 4,
  "PartialFourier": 1,
  "PatientPosition": "HFS",
  "PercentPhaseFOV": 100,
  "PhaseEncodingDirection": "j",
  "PhaseEncodingSteps": 104,
  "PhaseResolution": 1,
  "PixelBandwidth": 2290,
  "ProcedureStepDescription": "games_mario",
  "ProtocolName": "func_task-mario_run-01",
  "PulseSequenceDetails": "%CustomerSeq%_cmrr_mbep2d_bold",
  "ReceiveCoilActiveElements": "HC1-7;NC1,2",
  "ReceiveCoilName": "HeadNeck_64",
  "ReconMatrixPE": 104,
  "RepetitionTime": 1.49,
  "SAR": 0.0483378,
  "ScanOptions": "FS",
  "ScanningSequence": "EP",
  "SequenceName": "epfid2d1_104",
  "SequenceVariant": "SK_SS",
  "SeriesDescription": "func_task-mario_run-01",
  "SeriesNumber": 10,
  "ShimSetting": [624, -7185, -8862, 284, 25, -159, -15, -2],
  "SliceThickness": 2,
  "SliceTiming": [0, 0.785, 0.0975, 0.8825, 0.1975, 0.98, 0.295, 1.0775, 0.3925, 1.175, 0.49, 1.275, 0.5875, 1.3725, 0.685, 0, 0.785, 0.0975, 0.8825, 0.1975, 0.98, 0.295, 1.0775, 0.3925, 1.175, 0.49, 1.275, 0.5875, 1.3725, 0.685, 0, 0.785, 0.0975, 0.8825, 0.1975, 0.98, 0.295, 1.0775, 0.3925, 1.175, 0.49, 1.275, 0.5875, 1.3725, 0.685, 0, 0.785, 0.0975, 0.8825, 0.1975, 0.98, 0.295, 1.0775, 0.3925, 1.175, 0.49, 1.275, 0.5875, 1.3725, 0.685],
  "SoftwareVersions": "syngo_MR_E11",
  "SpacingBetweenSlices": 2,
  "StationName": "MRC35049",
  "TaskName": "mario",
  "TotalReadoutTime": 0.0576811,
  "TxRefAmp": 255.213,
  "WipMemBlock": "47790048-44de-4fe1-a297-a15e21434c10||Sequence: R016 ve11c/master r/e634e98; Dec 19 2017 11:00:25 by eja",
  "dcmmeta_affine": [
    [-1.9987651109695435, -0.006279316730797291, 0.06998832523822784, 105.58721160888672],
    [-0.040541909635066986, 1.7300739288330078, -1.0025969743728638, -50.082462310791016],
    [0.05739467591047287, 1.0033966302871704, 1.729133129119873, -94.16307830810547],
    [0.0, 0.0, 0.0, 1.0]
],
  "dcmmeta_reorient_transform": [
    [0.0, -1.0, 0.0, 103.0],
    [1.0, 0.0, 0.0, 0.0],
    [0.0, 0.0, 1.0, 0.0],
    [0.0, 0.0, 0.0, 1.0]
],
  "dcmmeta_shape": [104, 104, 60, 435],
  "dcmmeta_slice_dim": 2,
  "dcmmeta_version": 0.6,
  "global": {
    "const": {
      "AcquisitionMatrix": [104, 0, 0, 104],
      "AngioFlag": "N",
      "BitsAllocated": 16,
      "BitsStored": 16,
      "BodyPartExamined": "BRAIN",
      "Columns": 832,
      "EchoNumbers": 1,
      "EchoTime": 37.0,
      "EchoTrainLength": 104,
      "FlipAngle": 52.0,
      "HighBit": 15,
      "ImageOrientationPatient": [0.99938258501106, 0.02027095495558, 0.02869733719011, -0.0031396583304, 0.86503696504767, -0.5016983073987],
      "ImagePositionPatient": [-830.20529390191, -772.61931840999, 353.53148189613],
      "ImageType": [
        "ORIGINAL",
        "PRIMARY",
        "M",
        "MB",
        "ND",
        "MOSAIC"
],
      "ImagedNucleus": "1H",
      "ImagingFrequency": 123.258903,
      "InPlanePhaseEncodingDirection": "COL",
      "MRAcquisitionType": "2D",
      "MagneticFieldStrength": 3.0,
      "Manufacturer": "SIEMENS",
      "ManufacturerModelName": "Prisma_fit",
      "Modality": "MR",
      "NumberOfAverages": 1.0,
      "NumberOfPhaseEncodingSteps": 104,
      "PercentPhaseFieldOfView": 100.0,
      "PercentSampling": 100.0,
      "PerformedProcedureStepStartTime": "123358.332000",
      "PhotometricInterpretation": "MONOCHROME2",
      "PixelBandwidth": 2290.0,
      "PixelRepresentation": 0,
      "PixelSpacing": [2.0, 2.0],
      "ProtocolName": "func_task-mario_run-01",
      "RepetitionTime": 1490.0,
      "Rows": 832,
      "SAR": 0.04833781215041,
      "SamplesPerPixel": 1,
      "ScanOptions": "FS",
      "ScanningSequence": "EP",
      "SequenceName": "epfid2d1_104",
      "SequenceVariant": [
        "SK",
        "SS"
],
      "SeriesDescription": "func_task-mario_run-01",
      "SeriesNumber": 10,
      "SeriesTime": "132518.204000",
      "SliceLocation": -52.60904622607,
      "SliceThickness": 2.0,
      "SmallestImagePixelValue": 0,
      "SoftwareVersions": "syngo MR E11",
      "SpacingBetweenSlices": 2.0000000383541,
      "SpecificCharacterSet": "ISO_IR 100",
      "StudyID": "1",
      "StudyTime": "123358.250000",
      "TransmitCoilName": "Body",
      "VariableFlipAngleFlag": "N",
      "WindowCenterWidthExplanation": "Algo1",
      "dBdt": 0.0},
    "slices": {}
  },
  "time": {
    "samples": {
      "AcquisitionNumber": [1, 2, 3, 4, 5, 6, 7, 8, 9, 10, 11, 12, 13, 14, 15, 16, 17, 18, 19, 20, 21, 22, 23, 24, 25, 26, 27, 28, 29, 30, 31, 32, 33, 34, 35, 36, 37, 38, 39, 40, 41, 42, 43, 44, 45, 46, 47, 48, 49, 50, 51, 52, 53, 54, 55, 56, 57, 58, 59, 60, 61, 62, 63, 64, 65, 66, 67, 68, 69, 70, 71, 72, 73, 74, 75, 76, 77, 78, 79, 80, 81, 82, 83, 84, 85, 86, 87, 88, 89, 90, 91, 92, 93, 94, 95, 96, 97, 98, 99, 100, 101, 102, 103, 104, 105, 106, 107, 108, 109, 110, 111, 112, 113, 114, 115, 116, 117, 118, 119, 120, 121, 122, 123, 124, 125, 126, 127, 128, 129, 130, 131, 132, 133, 134, 135, 136, 137, 138, 139, 140, 141, 142, 143, 144, 145, 146, 147, 148, 149, 150, 151, 152, 153, 154, 155, 156, 157, 158, 159, 160, 161, 162, 163, 164, 165, 166, 167, 168, 169, 170, 171, 172, 173, 174, 175, 176, 177, 178, 179, 180, 181, 182, 183, 184, 185, 186, 187, 188, 189, 190, 191, 192, 193, 194, 195, 196, 197, 198, 199, 200, 201, 202, 203, 204, 205, 206, 207, 208, 209, 210, 211, 212, 213, 214, 215, 216, 217, 218, 219, 220, 221, 222, 223, 224, 225, 226, 227, 228, 229, 230, 231, 232, 233, 234, 235, 236, 237, 238, 239, 240, 241, 242, 243, 244, 245, 246, 247, 248, 249, 250, 251, 252, 253, 254, 255, 256, 257, 258, 259, 260, 261, 262, 263, 264, 265, 266, 267, 268, 269, 270, 271, 272, 273, 274, 275, 276, 277, 278, 279, 280, 281, 282, 283, 284, 285, 286, 287, 288, 289, 290, 291, 292, 293, 294, 295, 296, 297, 298, 299, 300, 301, 302, 303, 304, 305, 306, 307, 308, 309, 310, 311, 312, 313, 314, 315, 316, 317, 318, 319, 320, 321, 322, 323, 324, 325, 326, 327, 328, 329, 330, 331, 332, 333, 334, 335, 336, 337, 338, 339, 340, 341, 342, 343, 344, 345, 346, 347, 348, 349, 350, 351, 352, 353, 354, 355, 356, 357, 358, 359, 360, 361, 362, 363, 364, 365, 366, 367, 368, 369, 370, 371, 372, 373, 374, 375, 376, 377, 378, 379, 380, 381, 382, 383, 384, 385, 386, 387, 388, 389, 390, 391, 392, 393, 394, 395, 396, 397, 398, 399, 400, 401, 402, 403, 404, 405, 406, 407, 408, 409, 410, 411, 412, 413, 414, 415, 416, 417, 418, 419, 420, 421, 422, 423, 424, 425, 426, 427, 428, 429, 430, 431, 432, 433, 434, 435],
      "AcquisitionTime": ["132353.627500", "132355.117500", "132356.607500", "132358.097500", "132359.587500", "132401.077500", "132402.567500", "132404.057500", "132405.547500", "132407.037500", "132408.527500", "132410.017500", "132411.507500", "132412.997500", "132414.487500", "132415.977500", "132417.467500", "132418.957500", "132420.447500", "132421.937500", "132423.427500", "132424.917500", "132426.407500", "132427.897500", "132429.387500", "132430.877500", "132432.367500", "132433.857500", "132435.347500", "132436.837500", "132438.327500", "132439.817500", "132441.307500", "132442.797500", "132444.287500", "132445.777500", "132447.267500", "132448.757500", "132450.247500", "132451.737500", "132453.227500", "132454.717500", "132456.207500", "132457.697500", "132459.187500", "132500.677500", "132502.167500", "132503.657500", "132505.147500", "132506.637500", "132508.127500", "132509.617500", "132511.107500", "132512.597500", "132514.087500", "132515.577500", "132517.067500", "132518.557500", "132520.047500", "132521.537500", "132523.027500", "132524.517500", "132526.007500", "132527.497500", "132528.987500", "132530.477500", "132531.967500", "132533.457500", "132534.947500", "132536.437500", "132537.927500", "132539.417500", "132540.907500", "132542.397500", "132543.887500", "132545.377500", "132546.867500", "132548.357500", "132549.847500", "132551.337500", "132552.827500", "132554.317500", "132555.807500", "132557.297500", "132558.787500", "132600.277500", "132601.767500", "132603.257500", "132604.747500", "132606.237500", "132607.727500", "132609.217500", "132610.707500", "132612.197500", "132613.687500", "132615.177500", "132616.667500", "132618.157500", "132619.647500", "132621.137500", "132622.627500", "132624.117500", "132625.607500", "132627.097500", "132628.587500", "132630.077500", "132631.567500", "132633.057500", "132634.547500", "132636.037500", "132637.527500", "132639.017500", "132640.507500", "132641.997500", "132643.487500", "132644.977500", "132646.467500", "132647.957500", "132649.447500", "132650.937500", "132652.427500", "132653.917500", "132655.407500", "132656.897500", "132658.387500", "132659.877500", "132701.367500", "132702.857500", "132704.347500", "132705.837500", "132707.327500", "132708.817500", "132710.307500", "132711.797500", "132713.287500", "132714.777500", "132716.267500", "132717.757500", "132719.247500", "132720.737500", "132722.227500", "132723.717500", "132725.207500", "132726.697500", "132728.187500", "132729.677500", "132731.167500", "132732.657500", "132734.147500", "132735.637500", "132737.127500", "132738.617500", "132740.107500", "132741.597500", "132743.087500", "132744.577500", "132746.067500", "132747.557500", "132749.047500", "132750.537500", "132752.027500", "132753.517500", "132755.007500", "132756.497500", "132757.987500", "132759.477500", "132800.967500", "132802.457500", "132803.947500", "132805.437500", "132806.927500", "132808.417500", "132809.907500", "132811.397500", "132812.887500", "132814.377500", "132815.867500", "132817.357500", "132818.847500", "132820.337500", "132821.827500", "132823.317500", "132824.807500", "132826.297500", "132827.787500", "132829.277500", "132830.767500", "132832.257500", "132833.747500", "132835.237500", "132836.727500", "132838.217500", "132839.707500", "132841.197500", "132842.687500", "132844.177500", "132845.667500", "132847.157500", "132848.647500", "132850.137500", "132851.627500", "132853.117500", "132854.607500", "132856.097500", "132857.587500", "132859.077500", "132900.567500", "132902.057500", "132903.547500", "132905.037500", "132906.527500", "132908.017500", "132909.507500", "132910.997500", "132912.487500", "132913.977500", "132915.467500", "132916.957500", "132918.447500", "132919.937500", "132921.427500", "132922.917500", "132924.407500", "132925.897500", "132927.387500", "132928.877500", "132930.367500", "132931.857500", "132933.347500", "132934.837500", "132936.327500", "132937.817500", "132939.307500", "132940.797500", "132942.287500", "132943.777500", "132945.267500", "132946.757500", "132948.247500", "132949.737500", "132951.227500", "132952.717500", "132954.207500", "132955.697500", "132957.187500", "132958.677500", "133000.167500", "133001.657500", "133003.147500", "133004.637500", "133006.127500", "133007.617500", "133009.107500", "133010.597500", "133012.087500", "133013.577500", "133015.067500", "133016.557500", "133018.047500", "133019.537500", "133021.027500", "133022.517500", "133024.007500", "133025.497500", "133026.987500", "133028.477500", "133029.967500", "133031.457500", "133032.947500", "133034.437500", "133035.927500", "133037.417500", "133038.907500", "133040.397500", "133041.887500", "133043.377500", "133044.867500", "133046.357500", "133047.847500", "133049.337500", "133050.827500", "133052.317500", "133053.807500", "133055.297500", "133056.787500", "133058.277500", "133059.767500", "133101.257500", "133102.747500", "133104.237500", "133105.727500", "133107.217500", "133108.707500", "133110.197500", "133111.687500", "133113.177500", "133114.667500", "133116.157500", "133117.647500", "133119.137500", "133120.627500", "133122.117500", "133123.607500", "133125.097500", "133126.587500", "133128.077500", "133129.567500", "133131.057500", "133132.547500", "133134.037500", "133135.527500", "133137.017500", "133138.507500", "133139.997500", "133141.487500", "133142.977500", "133144.467500", "133145.957500", "133147.447500", "133148.937500", "133150.427500", "133151.917500", "133153.407500", "133154.897500", "133156.387500", "133157.877500", "133159.367500", "133200.857500", "133202.347500", "133203.837500", "133205.327500", "133206.817500", "133208.307500", "133209.797500", "133211.287500", "133212.777500", "133214.267500", "133215.757500", "133217.247500", "133218.737500", "133220.227500", "133221.717500", "133223.207500", "133224.697500", "133226.187500", "133227.677500", "133229.167500", "133230.657500", "133232.147500", "133233.637500", "133235.127500", "133236.617500", "133238.107500", "133239.597500", "133241.087500", "133242.577500", "133244.067500", "133245.557500", "133247.047500", "133248.537500", "133250.027500", "133251.517500", "133253.007500", "133254.497500", "133255.987500", "133257.477500", "133258.967500", "133300.457500", "133301.947500", "133303.437500", "133304.927500", "133306.417500", "133307.907500", "133309.397500", "133310.887500", "133312.377500", "133313.867500", "133315.357500", "133316.847500", "133318.337500", "133319.827500", "133321.317500", "133322.807500", "133324.297500", "133325.787500", "133327.277500", "133328.767500", "133330.257500", "133331.747500", "133333.237500", "133334.727500", "133336.217500", "133337.707500", "133339.197500", "133340.687500", "133342.177500", "133343.667500", "133345.157500", "133346.647500", "133348.137500", "133349.627500", "133351.117500", "133352.607500", "133354.097500", "133355.587500", "133357.077500", "133358.567500", "133400.057500", "133401.547500", "133403.037500", "133404.527500", "133406.017500", "133407.507500", "133408.997500", "133410.487500", "133411.977500", "133413.467500", "133414.957500", "133416.447500", "133417.937500", "133419.427500", "133420.917500", "133422.407500", "133423.897500", "133425.387500", "133426.877500", "133428.367500", "133429.857500", "133431.347500", "133432.837500", "133434.327500", "133435.817500", "133437.307500", "133438.797500", "133440.287500"],
      "ContentTime": ["132518.209000", "132518.212000", "132518.216000", "132518.219000", "132518.222000", "132518.226000", "132518.229000", "132518.233000", "132518.237000", "132518.241000", "132518.244000", "132518.248000", "132518.252000", "132518.256000", "132518.300000", "132518.303000", "132518.307000", "132518.310000", "132518.313000", "132518.316000", "132518.320000", "132518.323000", "132518.326000", "132518.329000", "132518.333000", "132518.336000", "132518.339000", "132518.342000", "132518.356000", "132538.172000", "132538.176000", "132538.179000", "132538.183000", "132538.187000", "132538.190000", "132538.193000", "132538.196000", "132538.199000", "132538.203000", "132538.206000", "132538.209000", "132538.212000", "132538.216000", "132538.219000", "132538.222000", "132538.225000", "132538.229000", "132538.232000", "132538.235000", "132538.239000", "132558.172000", "132558.176000", "132558.179000", "132558.182000", "132558.185000", "132558.189000", "132558.192000", "132558.195000", "132558.205000", "132558.208000", "132558.211000", "132558.214000", "132558.218000", "132558.221000", "132558.224000", "132558.227000", "132558.231000", "132558.234000", "132558.237000", "132558.240000", "132618.172000", "132618.176000", "132618.179000", "132618.182000", "132618.185000", "132618.189000", "132618.192000", "132618.195000", "132618.199000", "132618.202000", "132618.205000", "132618.208000", "132618.211000", "132618.215000", "132618.218000", "132618.221000", "132618.225000", "132618.228000", "132618.231000", "132618.234000", "132638.172000", "132638.176000", "132638.179000", "132638.182000", "132638.185000", "132638.189000", "132638.192000", "132638.195000", "132638.199000", "132638.202000", "132638.205000", "132638.214000", "132638.218000", "132638.221000", "132638.224000", "132638.227000", "132638.231000", "132638.234000", "132638.237000", "132638.240000", "132718.173000", "132718.177000", "132718.180000", "132718.183000", "132718.222000", "132718.225000", "132718.228000", "132718.231000", "132718.243000", "132718.246000", "132718.249000", "132718.252000", "132718.255000", "132718.259000", "132718.262000", "132718.265000", "132718.269000", "132718.272000", "132718.275000", "132718.278000", "132718.281000", "132718.302000", "132718.305000", "132718.308000", "132718.312000", "132718.315000", "132718.318000", "132758.172000", "132758.176000", "132758.179000", "132758.182000", "132758.186000", "132758.189000", "132758.192000", "132758.196000", "132758.199000", "132758.202000", "132758.205000", "132758.209000", "132758.212000", "132758.215000", "132758.218000", "132758.222000", "132758.225000", "132758.228000", "132758.231000", "132758.235000", "132758.238000", "132758.242000", "132758.245000", "132758.249000", "132758.252000", "132758.255000", "132838.172000", "132838.176000", "132838.179000", "132838.183000", "132838.186000", "132838.189000", "132838.193000", "132838.196000", "132838.199000", "132838.202000", "132838.206000", "132838.209000", "132838.212000", "132838.216000", "132838.219000", "132838.222000", "132838.225000", "132838.229000", "132838.232000", "132838.235000", "132838.238000", "132838.242000", "132838.245000", "132838.248000", "132838.251000", "132838.255000", "132838.258000", "132918.172000", "132918.176000", "132918.179000", "132918.182000", "132918.186000", "132918.189000", "132918.192000", "132918.196000", "132918.199000", "132918.202000", "132918.205000", "132918.209000", "132918.212000", "132918.215000", "132918.218000", "132918.222000", "132918.225000", "132918.228000", "132918.232000", "132918.235000", "132918.238000", "132918.241000", "132918.245000", "132918.248000", "132918.251000", "132918.254000", "132918.258000", "132958.172000", "132958.176000", "132958.179000", "132958.196000", "132958.200000", "132958.203000", "132958.206000", "132958.210000", "132958.213000", "132958.216000", "132958.219000", "132958.223000", "132958.226000", "132958.229000", "132958.232000", "132958.236000", "132958.239000", "132958.242000", "132958.246000", "132958.249000", "132958.252000", "132958.255000", "132958.259000", "132958.262000", "132958.265000", "132958.268000", "132958.272000", "133038.172000", "133038.176000", "133038.179000", "133038.183000", "133038.186000", "133038.189000", "133038.192000", "133038.196000", "133038.199000", "133038.202000", "133038.206000", "133038.209000", "133038.212000", "133038.215000", "133038.219000", "133038.222000", "133038.225000", "133038.228000", "133038.232000", "133038.235000", "133038.238000", "133038.242000", "133038.245000", "133038.248000", "133038.251000", "133038.255000", "133038.258000", "133118.172000", "133118.176000", "133118.179000", "133118.182000", "133118.186000", "133118.189000", "133118.192000", "133118.196000", "133118.199000", "133118.202000", "133118.205000", "133118.209000", "133118.212000", "133118.215000", "133118.218000", "133118.222000", "133118.225000", "133118.228000", "133118.232000", "133118.235000", "133118.238000", "133118.241000", "133118.250000", "133118.253000", "133118.257000", "133118.260000", "133118.263000", "133158.173000", "133158.177000", "133158.180000", "133158.184000", "133158.187000", "133158.191000", "133158.194000", "133158.197000", "133158.201000", "133158.204000", "133158.207000", "133158.210000", "133158.214000", "133158.217000", "133158.220000", "133158.224000", "133158.227000", "133158.230000", "133158.234000", "133158.237000", "133158.240000", "133158.243000", "133158.261000", "133158.264000", "133158.268000", "133158.273000", "133238.172000", "133238.176000", "133238.179000", "133238.183000", "133238.186000", "133238.189000", "133238.192000", "133238.196000", "133238.199000", "133238.209000", "133238.213000", "133238.216000", "133238.219000", "133238.222000", "133238.226000", "133238.229000", "133238.232000", "133238.236000", "133238.239000", "133238.242000", "133238.246000", "133238.249000", "133238.252000", "133238.255000", "133238.259000", "133238.262000", "133238.265000", "133318.172000", "133318.176000", "133318.179000", "133318.182000", "133318.186000", "133318.189000", "133318.192000", "133318.196000", "133318.199000", "133318.202000", "133318.206000", "133318.209000", "133318.212000", "133318.215000", "133318.219000", "133318.222000", "133318.225000", "133318.229000", "133318.232000", "133318.235000", "133318.238000", "133318.242000", "133318.245000", "133318.248000", "133318.252000", "133318.255000", "133318.258000", "133358.172000", "133358.176000", "133358.179000", "133358.183000", "133358.186000", "133358.189000", "133358.192000", "133358.196000", "133358.199000", "133358.202000", "133358.205000", "133358.208000", "133358.212000", "133358.215000", "133358.218000", "133358.222000", "133358.225000", "133358.228000", "133358.232000", "133358.235000", "133358.238000", "133358.241000", "133358.245000", "133358.248000", "133358.251000", "133358.254000", "133358.258000", "133438.172000", "133438.176000", "133438.179000", "133438.183000", "133438.191000", "133438.194000", "133438.198000", "133438.201000", "133438.204000", "133438.208000", "133438.211000", "133438.214000", "133438.218000", "133438.221000", "133438.224000", "133438.227000", "133438.231000", "133438.234000", "133438.237000", "133438.241000", "133438.244000", "133438.247000", "133438.251000", "133438.254000", "133438.258000", "133438.261000", "133438.265000", "133443.087000", "133443.091000", "133443.099000"],
      "InstanceCreationTime": ["132518.209000", "132518.212000", "132518.216000", "132518.219000", "132518.222000", "132518.226000", "132518.229000", "132518.233000", "132518.237000", "132518.241000", "132518.244000", "132518.248000", "132518.252000", "132518.256000", "132518.300000", "132518.303000", "132518.307000", "132518.310000", "132518.313000", "132518.316000", "132518.320000", "132518.323000", "132518.326000", "132518.329000", "132518.333000", "132518.336000", "132518.339000", "132518.342000", "132518.356000", "132538.172000", "132538.176000", "132538.179000", "132538.183000", "132538.187000", "132538.190000", "132538.193000", "132538.196000", "132538.199000", "132538.203000", "132538.206000", "132538.209000", "132538.212000", "132538.216000", "132538.219000", "132538.222000", "132538.225000", "132538.229000", "132538.232000", "132538.235000", "132538.239000", "132558.172000", "132558.176000", "132558.179000", "132558.182000", "132558.185000", "132558.189000", "132558.192000", "132558.195000", "132558.205000", "132558.208000", "132558.211000", "132558.214000", "132558.218000", "132558.221000", "132558.224000", "132558.227000", "132558.231000", "132558.234000", "132558.237000", "132558.240000", "132618.172000", "132618.176000", "132618.179000", "132618.182000", "132618.185000", "132618.189000", "132618.192000", "132618.195000", "132618.199000", "132618.202000", "132618.205000", "132618.208000", "132618.211000", "132618.215000", "132618.218000", "132618.221000", "132618.225000", "132618.228000", "132618.231000", "132618.234000", "132638.172000", "132638.176000", "132638.179000", "132638.182000", "132638.185000", "132638.189000", "132638.192000", "132638.195000", "132638.199000", "132638.202000", "132638.205000", "132638.214000", "132638.218000", "132638.221000", "132638.224000", "132638.227000", "132638.231000", "132638.234000", "132638.237000", "132638.240000", "132718.173000", "132718.177000", "132718.180000", "132718.183000", "132718.222000", "132718.225000", "132718.228000", "132718.231000", "132718.243000", "132718.246000", "132718.249000", "132718.252000", "132718.255000", "132718.259000", "132718.262000", "132718.265000", "132718.269000", "132718.272000", "132718.275000", "132718.278000", "132718.281000", "132718.302000", "132718.305000", "132718.308000", "132718.312000", "132718.315000", "132718.318000", "132758.172000", "132758.176000", "132758.179000", "132758.182000", "132758.186000", "132758.189000", "132758.192000", "132758.196000", "132758.199000", "132758.202000", "132758.205000", "132758.209000", "132758.212000", "132758.215000", "132758.218000", "132758.222000", "132758.225000", "132758.228000", "132758.231000", "132758.235000", "132758.238000", "132758.242000", "132758.245000", "132758.249000", "132758.252000", "132758.255000", "132838.172000", "132838.176000", "132838.179000", "132838.183000", "132838.186000", "132838.189000", "132838.193000", "132838.196000", "132838.199000", "132838.202000", "132838.206000", "132838.209000", "132838.212000", "132838.216000", "132838.219000", "132838.222000", "132838.225000", "132838.229000", "132838.232000", "132838.235000", "132838.238000", "132838.242000", "132838.245000", "132838.248000", "132838.251000", "132838.255000", "132838.258000", "132918.172000", "132918.176000", "132918.179000", "132918.182000", "132918.186000", "132918.189000", "132918.192000", "132918.196000", "132918.199000", "132918.202000", "132918.205000", "132918.209000", "132918.212000", "132918.215000", "132918.218000", "132918.222000", "132918.225000", "132918.228000", "132918.232000", "132918.235000", "132918.238000", "132918.241000", "132918.245000", "132918.248000", "132918.251000", "132918.254000", "132918.258000", "132958.172000", "132958.176000", "132958.179000", "132958.196000", "132958.200000", "132958.203000", "132958.206000", "132958.210000", "132958.213000", "132958.216000", "132958.219000", "132958.223000", "132958.226000", "132958.229000", "132958.232000", "132958.236000", "132958.239000", "132958.242000", "132958.246000", "132958.249000", "132958.252000", "132958.255000", "132958.259000", "132958.262000", "132958.265000", "132958.268000", "132958.272000", "133038.172000", "133038.176000", "133038.179000", "133038.183000", "133038.186000", "133038.189000", "133038.192000", "133038.196000", "133038.199000", "133038.202000", "133038.206000", "133038.209000", "133038.212000", "133038.215000", "133038.219000", "133038.222000", "133038.225000", "133038.228000", "133038.232000", "133038.235000", "133038.238000", "133038.242000", "133038.245000", "133038.248000", "133038.251000", "133038.255000", "133038.258000", "133118.172000", "133118.176000", "133118.179000", "133118.182000", "133118.186000", "133118.189000", "133118.192000", "133118.196000", "133118.199000", "133118.202000", "133118.205000", "133118.209000", "133118.212000", "133118.215000", "133118.218000", "133118.222000", "133118.225000", "133118.228000", "133118.232000", "133118.235000", "133118.238000", "133118.241000", "133118.250000", "133118.253000", "133118.257000", "133118.260000", "133118.263000", "133158.173000", "133158.177000", "133158.180000", "133158.184000", "133158.187000", "133158.191000", "133158.194000", "133158.197000", "133158.201000", "133158.204000", "133158.207000", "133158.210000", "133158.214000", "133158.217000", "133158.220000", "133158.224000", "133158.227000", "133158.230000", "133158.234000", "133158.237000", "133158.240000", "133158.243000", "133158.261000", "133158.264000", "133158.268000", "133158.273000", "133238.172000", "133238.176000", "133238.179000", "133238.183000", "133238.186000", "133238.189000", "133238.192000", "133238.196000", "133238.199000", "133238.209000", "133238.213000", "133238.216000", "133238.219000", "133238.222000", "133238.226000", "133238.229000", "133238.232000", "133238.236000", "133238.239000", "133238.242000", "133238.246000", "133238.249000", "133238.252000", "133238.255000", "133238.259000", "133238.262000", "133238.265000", "133318.172000", "133318.176000", "133318.179000", "133318.182000", "133318.186000", "133318.189000", "133318.192000", "133318.196000", "133318.199000", "133318.202000", "133318.206000", "133318.209000", "133318.212000", "133318.215000", "133318.219000", "133318.222000", "133318.225000", "133318.229000", "133318.232000", "133318.235000", "133318.238000", "133318.242000", "133318.245000", "133318.248000", "133318.252000", "133318.255000", "133318.258000", "133358.172000", "133358.176000", "133358.179000", "133358.183000", "133358.186000", "133358.189000", "133358.192000", "133358.196000", "133358.199000", "133358.202000", "133358.205000", "133358.208000", "133358.212000", "133358.215000", "133358.218000", "133358.222000", "133358.225000", "133358.228000", "133358.232000", "133358.235000", "133358.238000", "133358.241000", "133358.245000", "133358.248000", "133358.251000", "133358.254000", "133358.258000", "133438.172000", "133438.176000", "133438.179000", "133438.183000", "133438.191000", "133438.194000", "133438.198000", "133438.201000", "133438.204000", "133438.208000", "133438.211000", "133438.214000", "133438.218000", "133438.221000", "133438.224000", "133438.227000", "133438.231000", "133438.234000", "133438.237000", "133438.241000", "133438.244000", "133438.247000", "133438.251000", "133438.254000", "133438.258000", "133438.261000", "133438.265000", "133443.087000", "133443.091000", "133443.099000"],
