{
  "AcquisitionMatrixPE": 104,
  "AcquisitionNumber": 1,
  "AcquisitionTime": "14:14:10.267500",
  "BandwidthPerPixelPhaseEncode": 17.17,
  "BaseResolution": 104,
  "BodyPartExamined": "BRAIN",
  "CoilString": "HC1-7;NC1_2",
  "ConsistencyInfo": "N4_VE11C_LATEST_20160120",
  "ConversionSoftware": "dcm2niix",
  "ConversionSoftwareVersion": "v1.0.20190902",
  "DerivedVendorReportedEchoSpacing": 0.000560011,
  "DeviceSerialNumber": "167006",
  "DwellTime": 2.1e-06,
  "EchoTime": 0.037,
  "EchoTrainLength": 104,
  "EffectiveEchoSpacing": 0.000560011,
  "FlipAngle": 52,
  "HeudiconvVersion": "0.10.0",
  "ImageComments": "Unaliased_MB4_PE3_LB",
  "ImageOrientationPatientDICOM": [0.999383, 0.020271, 0.0286973, -0.00313966, 0.865037, -0.501698],
  "ImageType": [
    "ORIGINAL",
    "PRIMARY",
    "M",
    "MB",
    "ND",
    "MOSAIC"
],
  "ImagingFrequency": 123.259,
  "InPlanePhaseEncodingDirectionDICOM": "COL",
  "InstitutionAddress": "Chemin_Queen-Mary_4565_Montreal_District_CA_H3W_1W5",
  "InstitutionName": "IUGM",
  "InstitutionalDepartmentName": "Department",
  "MRAcquisitionType": "2D",
  "MagneticFieldStrength": 3,
  "Manufacturer": "Siemens",
  "ManufacturersModelName": "Prisma_fit",
  "Modality": "MR",
  "MultibandAccelerationFactor": 4,
  "PartialFourier": 1,
  "PatientPosition": "HFS",
  "PercentPhaseFOV": 100,
  "PhaseEncodingDirection": "j",
  "PhaseEncodingSteps": 104,
  "PhaseResolution": 1,
  "PixelBandwidth": 2290,
  "ProcedureStepDescription": "games_mario",
  "ProtocolName": "func_task-mario_run-05",
  "PulseSequenceDetails": "%CustomerSeq%_cmrr_mbep2d_bold",
  "ReceiveCoilActiveElements": "HC1-7;NC1,2",
  "ReceiveCoilName": "HeadNeck_64",
  "ReconMatrixPE": 104,
  "RepetitionTime": 1.49,
  "SAR": 0.0483378,
  "ScanOptions": "FS",
  "ScanningSequence": "EP",
  "SequenceName": "epfid2d1_104",
  "SequenceVariant": "SK_SS",
  "SeriesDescription": "func_task-mario_run-05",
  "SeriesNumber": 22,
  "ShimSetting": [624, -7185, -8862, 284, 25, -159, -15, -2],
  "SliceThickness": 2,
  "SliceTiming": [0, 0.785, 0.0975, 0.8825, 0.195, 0.98, 0.295, 1.0775, 0.3925, 1.175, 0.49, 1.275, 0.5875, 1.3725, 0.685, 0, 0.785, 0.0975, 0.8825, 0.195, 0.98, 0.295, 1.0775, 0.3925, 1.175, 0.49, 1.275, 0.5875, 1.3725, 0.685, 0, 0.785, 0.0975, 0.8825, 0.195, 0.98, 0.295, 1.0775, 0.3925, 1.175, 0.49, 1.275, 0.5875, 1.3725, 0.685, 0, 0.785, 0.0975, 0.8825, 0.195, 0.98, 0.295, 1.0775, 0.3925, 1.175, 0.49, 1.275, 0.5875, 1.3725, 0.685],
  "SoftwareVersions": "syngo_MR_E11",
  "SpacingBetweenSlices": 2,
  "StationName": "MRC35049",
  "TaskName": "mario",
  "TotalReadoutTime": 0.0576811,
  "TxRefAmp": 255.213,
  "WipMemBlock": "1be61224-fee7-4f33-b37b-29d860e48230||Sequence: R016 ve11c/master r/e634e98; Dec 19 2017 11:00:25 by eja",
  "dcmmeta_affine": [
    [-1.9987651109695435, -0.006279316730797291, 0.06998832523822784, 105.58721160888672],
    [-0.040541909635066986, 1.7300739288330078, -1.0025969743728638, -50.082462310791016],
    [0.05739467591047287, 1.0033966302871704, 1.729133129119873, -94.16307830810547],
    [0.0, 0.0, 0.0, 1.0]
],
  "dcmmeta_reorient_transform": [
    [0.0, -1.0, 0.0, 103.0],
    [1.0, 0.0, 0.0, 0.0],
    [0.0, 0.0, 1.0, 0.0],
    [0.0, 0.0, 0.0, 1.0]
],
  "dcmmeta_shape": [104, 104, 60, 464],
  "dcmmeta_slice_dim": 2,
  "dcmmeta_version": 0.6,
  "global": {
    "const": {
      "AcquisitionMatrix": [104, 0, 0, 104],
      "AngioFlag": "N",
      "BitsAllocated": 16,
      "BitsStored": 16,
      "BodyPartExamined": "BRAIN",
      "Columns": 832,
      "EchoNumbers": 1,
      "EchoTime": 37.0,
      "EchoTrainLength": 104,
      "FlipAngle": 52.0,
      "HighBit": 15,
      "ImageOrientationPatient": [0.99938258501106, 0.02027095495558, 0.02869733719011, -0.0031396583304, 0.86503696504767, -0.5016983073987],
      "ImagePositionPatient": [-830.20529390191, -772.61931840999, 353.53148189613],
      "ImageType": [
        "ORIGINAL",
        "PRIMARY",
        "M",
        "MB",
        "ND",
        "MOSAIC"
],
      "ImagedNucleus": "1H",
      "ImagingFrequency": 123.258932,
      "InPlanePhaseEncodingDirection": "COL",
      "MRAcquisitionType": "2D",
      "MagneticFieldStrength": 3.0,
      "Manufacturer": "SIEMENS",
      "ManufacturerModelName": "Prisma_fit",
      "Modality": "MR",
      "NumberOfAverages": 1.0,
      "NumberOfPhaseEncodingSteps": 104,
      "PercentPhaseFieldOfView": 100.0,
      "PercentSampling": 100.0,
      "PerformedProcedureStepStartTime": "123358.332000",
      "PhotometricInterpretation": "MONOCHROME2",
      "PixelBandwidth": 2290.0,
      "PixelRepresentation": 0,
      "PixelSpacing": [2.0, 2.0],
      "ProtocolName": "func_task-mario_run-05",
      "RepetitionTime": 1490.0,
      "Rows": 832,
      "SAR": 0.04833781215041,
      "SamplesPerPixel": 1,
      "ScanOptions": "FS",
      "ScanningSequence": "EP",
      "SequenceName": "epfid2d1_104",
      "SequenceVariant": [
        "SK",
        "SS"
],
      "SeriesDescription": "func_task-mario_run-05",
      "SeriesNumber": 22,
      "SeriesTime": "141532.733000",
      "SliceLocation": -52.60904622607,
      "SliceThickness": 2.0,
      "SmallestImagePixelValue": 0,
      "SoftwareVersions": "syngo MR E11",
      "SpacingBetweenSlices": 2.0000000383541,
      "SpecificCharacterSet": "ISO_IR 100",
      "StudyID": "1",
      "StudyTime": "123358.250000",
      "TransmitCoilName": "Body",
      "VariableFlipAngleFlag": "N",
      "WindowCenterWidthExplanation": "Algo1",
      "dBdt": 0.0},
    "slices": {}
  },
  "time": {
    "samples": {
      "AcquisitionNumber": [1, 2, 3, 4, 5, 6, 7, 8, 9, 10, 11, 12, 13, 14, 15, 16, 17, 18, 19, 20, 21, 22, 23, 24, 25, 26, 27, 28, 29, 30, 31, 32, 33, 34, 35, 36, 37, 38, 39, 40, 41, 42, 43, 44, 45, 46, 47, 48, 49, 50, 51, 52, 53, 54, 55, 56, 57, 58, 59, 60, 61, 62, 63, 64, 65, 66, 67, 68, 69, 70, 71, 72, 73, 74, 75, 76, 77, 78, 79, 80, 81, 82, 83, 84, 85, 86, 87, 88, 89, 90, 91, 92, 93, 94, 95, 96, 97, 98, 99, 100, 101, 102, 103, 104, 105, 106, 107, 108, 109, 110, 111, 112, 113, 114, 115, 116, 117, 118, 119, 120, 121, 122, 123, 124, 125, 126, 127, 128, 129, 130, 131, 132, 133, 134, 135, 136, 137, 138, 139, 140, 141, 142, 143, 144, 145, 146, 147, 148, 149, 150, 151, 152, 153, 154, 155, 156, 157, 158, 159, 160, 161, 162, 163, 164, 165, 166, 167, 168, 169, 170, 171, 172, 173, 174, 175, 176, 177, 178, 179, 180, 181, 182, 183, 184, 185, 186, 187, 188, 189, 190, 191, 192, 193, 194, 195, 196, 197, 198, 199, 200, 201, 202, 203, 204, 205, 206, 207, 208, 209, 210, 211, 212, 213, 214, 215, 216, 217, 218, 219, 220, 221, 222, 223, 224, 225, 226, 227, 228, 229, 230, 231, 232, 233, 234, 235, 236, 237, 238, 239, 240, 241, 242, 243, 244, 245, 246, 247, 248, 249, 250, 251, 252, 253, 254, 255, 256, 257, 258, 259, 260, 261, 262, 263, 264, 265, 266, 267, 268, 269, 270, 271, 272, 273, 274, 275, 276, 277, 278, 279, 280, 281, 282, 283, 284, 285, 286, 287, 288, 289, 290, 291, 292, 293, 294, 295, 296, 297, 298, 299, 300, 301, 302, 303, 304, 305, 306, 307, 308, 309, 310, 311, 312, 313, 314, 315, 316, 317, 318, 319, 320, 321, 322, 323, 324, 325, 326, 327, 328, 329, 330, 331, 332, 333, 334, 335, 336, 337, 338, 339, 340, 341, 342, 343, 344, 345, 346, 347, 348, 349, 350, 351, 352, 353, 354, 355, 356, 357, 358, 359, 360, 361, 362, 363, 364, 365, 366, 367, 368, 369, 370, 371, 372, 373, 374, 375, 376, 377, 378, 379, 380, 381, 382, 383, 384, 385, 386, 387, 388, 389, 390, 391, 392, 393, 394, 395, 396, 397, 398, 399, 400, 401, 402, 403, 404, 405, 406, 407, 408, 409, 410, 411, 412, 413, 414, 415, 416, 417, 418, 419, 420, 421, 422, 423, 424, 425, 426, 427, 428, 429, 430, 431, 432, 433, 434, 435, 436, 437, 438, 439, 440, 441, 442, 443, 444, 445, 446, 447, 448, 449, 450, 451, 452, 453, 454, 455, 456, 457, 458, 459, 460, 461, 462, 463, 464],
      "AcquisitionTime": ["141410.267500", "141411.757500", "141413.247500", "141414.737500", "141416.227500", "141417.717500", "141419.207500", "141420.697500", "141422.187500", "141423.677500", "141425.167500", "141426.657500", "141428.147500", "141429.637500", "141431.127500", "141432.617500", "141434.107500", "141435.597500", "141437.087500", "141438.577500", "141440.067500", "141441.557500", "141443.047500", "141444.537500", "141446.027500", "141447.517500", "141449.007500", "141450.497500", "141451.987500", "141453.477500", "141454.967500", "141456.457500", "141457.947500", "141459.437500", "141500.927500", "141502.417500", "141503.907500", "141505.397500", "141506.887500", "141508.377500", "141509.867500", "141511.357500", "141512.847500", "141514.337500", "141515.827500", "141517.317500", "141518.807500", "141520.297500", "141521.787500", "141523.277500", "141524.767500", "141526.257500", "141527.747500", "141529.237500", "141530.727500", "141532.217500", "141533.707500", "141535.197500", "141536.687500", "141538.177500", "141539.667500", "141541.157500", "141542.647500", "141544.137500", "141545.627500", "141547.117500", "141548.607500", "141550.097500", "141551.587500", "141553.077500", "141554.567500", "141556.057500", "141557.547500", "141559.037500", "141600.527500", "141602.017500", "141603.507500", "141604.997500", "141606.487500", "141607.977500", "141609.467500", "141610.957500", "141612.447500", "141613.937500", "141615.427500", "141616.917500", "141618.407500", "141619.897500", "141621.387500", "141622.877500", "141624.367500", "141625.857500", "141627.347500", "141628.837500", "141630.327500", "141631.817500", "141633.307500", "141634.797500", "141636.287500", "141637.777500", "141639.267500", "141640.757500", "141642.247500", "141643.737500", "141645.227500", "141646.717500", "141648.207500", "141649.697500", "141651.187500", "141652.677500", "141654.167500", "141655.657500", "141657.147500", "141658.637500", "141700.127500", "141701.617500", "141703.107500", "141704.597500", "141706.087500", "141707.577500", "141709.067500", "141710.557500", "141712.047500", "141713.537500", "141715.027500", "141716.517500", "141718.007500", "141719.497500", "141720.987500", "141722.477500", "141723.967500", "141725.457500", "141726.947500", "141728.437500", "141729.927500", "141731.417500", "141732.907500", "141734.397500", "141735.887500", "141737.377500", "141738.867500", "141740.357500", "141741.847500", "141743.337500", "141744.827500", "141746.317500", "141747.807500", "141749.297500", "141750.787500", "141752.277500", "141753.767500", "141755.257500", "141756.747500", "141758.237500", "141759.727500", "141801.217500", "141802.707500", "141804.197500", "141805.687500", "141807.177500", "141808.667500", "141810.157500", "141811.647500", "141813.137500", "141814.627500", "141816.117500", "141817.607500", "141819.097500", "141820.587500", "141822.077500", "141823.567500", "141825.057500", "141826.547500", "141828.037500", "141829.527500", "141831.017500", "141832.507500", "141833.997500", "141835.487500", "141836.977500", "141838.467500", "141839.957500", "141841.447500", "141842.937500", "141844.427500", "141845.917500", "141847.407500", "141848.897500", "141850.387500", "141851.877500", "141853.367500", "141854.857500", "141856.347500", "141857.837500", "141859.327500", "141900.817500", "141902.307500", "141903.797500", "141905.287500", "141906.777500", "141908.267500", "141909.757500", "141911.247500", "141912.737500", "141914.227500", "141915.717500", "141917.207500", "141918.697500", "141920.187500", "141921.677500", "141923.167500", "141924.657500", "141926.147500", "141927.637500", "141929.127500", "141930.617500", "141932.107500", "141933.597500", "141935.087500", "141936.577500", "141938.067500", "141939.557500", "141941.047500", "141942.537500", "141944.027500", "141945.517500", "141947.007500", "141948.497500", "141949.987500", "141951.477500", "141952.967500", "141954.457500", "141955.947500", "141957.437500", "141958.927500", "142000.417500", "142001.907500", "142003.397500", "142004.887500", "142006.377500", "142007.867500", "142009.357500", "142010.847500", "142012.337500", "142013.827500", "142015.317500", "142016.807500", "142018.297500", "142019.787500", "142021.277500", "142022.767500", "142024.257500", "142025.747500", "142027.237500", "142028.727500", "142030.217500", "142031.707500", "142033.197500", "142034.687500", "142036.177500", "142037.667500", "142039.157500", "142040.647500", "142042.137500", "142043.627500", "142045.117500", "142046.607500", "142048.097500", "142049.587500", "142051.077500", "142052.567500", "142054.057500", "142055.547500", "142057.037500", "142058.527500", "142100.017500", "142101.507500", "142102.997500", "142104.487500", "142105.977500", "142107.467500", "142108.957500", "142110.447500", "142111.937500", "142113.427500", "142114.917500", "142116.407500", "142117.897500", "142119.387500", "142120.877500", "142122.367500", "142123.857500", "142125.347500", "142126.837500", "142128.327500", "142129.817500", "142131.307500", "142132.797500", "142134.287500", "142135.777500", "142137.267500", "142138.757500", "142140.247500", "142141.737500", "142143.227500", "142144.717500", "142146.207500", "142147.697500", "142149.187500", "142150.677500", "142152.167500", "142153.657500", "142155.147500", "142156.637500", "142158.127500", "142159.617500", "142201.107500", "142202.597500", "142204.087500", "142205.577500", "142207.067500", "142208.557500", "142210.047500", "142211.537500", "142213.027500", "142214.517500", "142216.007500", "142217.497500", "142218.987500", "142220.477500", "142221.967500", "142223.457500", "142224.947500", "142226.437500", "142227.927500", "142229.417500", "142230.907500", "142232.397500", "142233.887500", "142235.377500", "142236.867500", "142238.357500", "142239.847500", "142241.337500", "142242.827500", "142244.317500", "142245.807500", "142247.297500", "142248.787500", "142250.277500", "142251.767500", "142253.257500", "142254.747500", "142256.237500", "142257.727500", "142259.217500", "142300.707500", "142302.197500", "142303.687500", "142305.177500", "142306.667500", "142308.157500", "142309.647500", "142311.137500", "142312.627500", "142314.117500", "142315.607500", "142317.097500", "142318.587500", "142320.077500", "142321.567500", "142323.057500", "142324.547500", "142326.037500", "142327.527500", "142329.017500", "142330.507500", "142331.997500", "142333.487500", "142334.977500", "142336.467500", "142337.957500", "142339.447500", "142340.937500", "142342.427500", "142343.917500", "142345.407500", "142346.897500", "142348.387500", "142349.877500", "142351.367500", "142352.857500", "142354.347500", "142355.837500", "142357.327500", "142358.817500", "142400.307500", "142401.797500", "142403.287500", "142404.777500", "142406.267500", "142407.757500", "142409.247500", "142410.737500", "142412.227500", "142413.717500", "142415.207500", "142416.697500", "142418.187500", "142419.677500", "142421.167500", "142422.657500", "142424.147500", "142425.637500", "142427.127500", "142428.617500", "142430.107500", "142431.597500", "142433.087500", "142434.577500", "142436.067500", "142437.557500", "142439.047500", "142440.537500", "142442.027500", "142443.517500", "142445.007500", "142446.497500", "142447.987500", "142449.477500", "142450.967500", "142452.457500", "142453.947500", "142455.437500", "142456.927500", "142458.417500", "142459.907500", "142501.397500", "142502.887500", "142504.377500", "142505.867500", "142507.357500", "142508.847500", "142510.337500", "142511.827500", "142513.317500", "142514.807500", "142516.297500", "142517.787500", "142519.277500", "142520.767500", "142522.257500", "142523.747500", "142525.237500", "142526.727500", "142528.217500", "142529.707500", "142531.197500", "142532.687500", "142534.177500", "142535.667500", "142537.157500", "142538.647500", "142540.137500"],
      "ContentTime": ["141532.736000", "141532.740000", "141532.743000", "141532.746000", "141532.750000", "141532.753000", "141532.756000", "141532.759000", "141532.763000", "141532.766000", "141532.769000", "141532.773000", "141532.776000", "141532.779000", "141532.783000", "141532.793000", "141532.796000", "141532.800000", "141532.803000", "141532.807000", "141532.811000", "141532.814000", "141532.818000", "141532.821000", "141532.825000", "141532.828000", "141532.832000", "141532.835000", "141552.699000", "141552.703000", "141552.707000", "141552.711000", "141552.714000", "141552.718000", "141552.721000", "141552.725000", "141552.728000", "141552.731000", "141552.734000", "141552.738000", "141552.741000", "141552.744000", "141552.747000", "141552.751000", "141552.754000", "141552.757000", "141552.760000", "141552.763000", "141612.699000", "141612.703000", "141612.706000", "141612.709000", "141612.713000", "141612.716000", "141612.719000", "141612.722000", "141612.725000", "141612.729000", "141612.746000", "141612.749000", "141612.752000", "141612.756000", "141612.759000", "141612.763000", "141612.766000", "141612.800000", "141612.804000", "141612.807000", "141612.810000", "141632.699000", "141632.703000", "141632.706000", "141632.709000", "141632.713000", "141632.716000", "141632.719000", "141632.722000", "141632.726000", "141632.729000", "141632.732000", "141632.735000", "141632.739000", "141632.742000", "141632.745000", "141632.749000", "141632.752000", "141632.755000", "141632.758000", "141632.762000", "141712.699000", "141712.703000", "141712.706000", "141712.709000", "141712.713000", "141712.716000", "141712.719000", "141712.723000", "141712.726000", "141712.729000", "141712.733000", "141712.736000", "141712.739000", "141712.743000", "141712.746000", "141712.749000", "141712.752000", "141712.756000", "141712.759000", "141712.763000", "141712.766000", "141712.770000", "141712.773000", "141712.776000", "141712.780000", "141712.783000", "141712.786000", "141712.790000", "141712.793000", "141712.796000", "141712.800000", "141712.803000", "141712.806000", "141752.699000", "141752.703000", "141752.706000", "141752.709000", "141752.713000", "141752.716000", "141752.719000", "141752.722000", "141752.726000", "141752.729000", "141752.732000", "141752.736000", "141752.739000", "141752.742000", "141752.746000", "141752.751000", "141752.754000", "141752.758000", "141752.761000", "141752.765000", "141752.769000", "141752.772000", "141752.776000", "141752.785000", "141752.788000", "141752.791000", "141832.699000", "141832.703000", "141832.706000", "141832.710000", "141832.723000", "141832.726000", "141832.729000", "141832.733000", "141832.736000", "141832.740000", "141832.743000", "141832.746000", "141832.750000", "141832.753000", "141832.756000", "141832.773000", "141832.776000", "141832.780000", "141832.783000", "141832.786000", "141832.790000", "141832.793000", "141832.796000", "141832.800000", "141832.803000", "141832.806000", "141832.809000", "141912.699000", "141912.704000", "141912.707000", "141912.710000", "141912.714000", "141912.717000", "141912.720000", "141912.724000", "141912.727000", "141912.731000", "141912.734000", "141912.737000", "141912.741000", "141912.744000", "141912.748000", "141912.752000", "141912.755000", "141912.758000", "141912.762000", "141912.765000", "141912.768000", "141912.781000", "141912.784000", "141912.787000", "141912.790000", "141912.794000", "141912.797000", "141952.699000", "141952.703000", "141952.706000", "141952.710000", "141952.713000", "141952.716000", "141952.719000", "141952.723000", "141952.726000", "141952.730000", "141952.733000", "141952.736000", "141952.740000", "141952.743000", "141952.746000", "141952.750000", "141952.753000", "141952.756000", "141952.759000", "141952.763000", "141952.766000", "141952.769000", "141952.773000", "141952.776000", "141952.779000", "141952.783000", "141952.786000", "142032.699000", "142032.703000", "142032.706000", "142032.710000", "142032.713000", "142032.716000", "142032.720000", "142032.723000", "142032.726000", "142032.730000", "142032.733000", "142032.736000", "142032.740000", "142032.743000", "142032.746000", "142032.750000", "142032.753000", "142032.756000", "142032.759000", "142032.763000", "142032.766000", "142032.769000", "142032.787000", "142032.791000", "142032.794000", "142032.797000", "142032.801000", "142052.699000", "142052.703000", "142052.706000", "142052.709000", "142052.713000", "142052.716000", "142052.719000", "142052.723000", "142052.726000", "142052.729000", "142052.732000", "142052.736000", "142052.739000", "142132.699000", "142132.703000", "142132.706000", "142132.710000", "142132.713000", "142132.716000", "142132.720000", "142132.723000", "142132.726000", "142132.730000", "142132.733000", "142132.737000", "142132.740000", "142132.743000", "142132.747000", "142132.750000", "142132.753000", "142132.757000", "142132.760000", "142132.763000", "142132.767000", "142132.770000", "142132.773000", "142132.777000", "142132.780000", "142132.783000", "142132.787000", "142212.699000", "142212.703000", "142212.706000", "142212.710000", "142212.713000", "142212.716000", "142212.719000", "142212.723000", "142212.726000", "142212.729000", "142212.733000", "142212.736000", "142212.739000", "142212.743000", "142212.746000", "142212.750000", "142212.753000", "142212.756000", "142212.759000", "142212.763000", "142212.766000", "142212.770000", "142212.773000", "142212.776000", "142212.779000", "142212.783000", "142212.786000", "142252.699000", "142252.703000", "142252.706000", "142252.710000", "142252.713000", "142252.716000", "142252.720000", "142252.723000", "142252.726000", "142252.730000", "142252.733000", "142252.736000", "142252.740000", "142252.743000", "142252.747000", "142252.750000", "142252.753000", "142252.757000", "142252.760000", "142252.763000", "142252.766000", "142252.770000", "142252.773000", "142252.776000", "142252.789000", "142252.792000", "142252.795000", "142332.699000", "142332.705000", "142332.708000", "142332.711000", "142332.715000", "142332.718000", "142332.721000", "142332.725000", "142332.728000", "142332.731000", "142332.735000", "142332.738000", "142332.741000", "142332.745000", "142332.748000", "142332.751000", "142332.755000", "142332.764000", "142332.767000", "142332.771000", "142332.774000", "142332.778000", "142332.781000", "142332.784000", "142332.787000", "142332.791000", "142332.794000", "142412.700000", "142412.704000", "142412.708000", "142412.713000", "142412.717000", "142412.720000", "142412.724000", "142412.728000", "142412.732000", "142412.736000", "142412.740000", "142412.743000", "142412.747000", "142412.751000", "142412.755000", "142412.759000", "142412.763000", "142412.767000", "142412.770000", "142412.774000", "142412.778000", "142412.782000", "142412.786000", "142412.790000", "142412.794000", "142412.797000", "142452.699000", "142452.703000", "142452.706000", "142452.710000", "142452.713000", "142452.716000", "142452.720000", "142452.723000", "142452.726000", "142452.730000", "142452.733000", "142452.736000", "142452.740000", "142452.743000", "142452.747000", "142452.750000", "142452.753000", "142452.756000", "142452.760000", "142452.763000", "142452.766000", "142452.770000", "142452.773000", "142452.776000", "142452.779000", "142452.783000", "142452.787000", "142532.699000", "142532.703000", "142532.706000", "142532.710000", "142532.713000", "142532.717000", "142532.720000", "142532.723000", "142532.726000", "142532.730000", "142532.733000", "142532.736000", "142532.740000", "142532.743000", "142532.747000", "142532.750000", "142532.753000", "142532.757000", "142532.760000", "142532.763000", "142532.767000", "142532.770000", "142532.773000", "142532.786000", "142532.789000", "142532.792000", "142532.796000", "142542.705000", "142542.709000", "142542.720000", "142542.723000", "142542.726000", "142542.730000", "142542.733000"],
