{
  "AcquisitionMatrixPE": 104,
  "AcquisitionNumber": 1,
  "AcquisitionTime": "14:00:20.205000",
  "BandwidthPerPixelPhaseEncode": 17.17,
  "BaseResolution": 104,
  "BodyPartExamined": "BRAIN",
  "CoilString": "HC1-7;NC1_2",
  "ConsistencyInfo": "N4_VE11C_LATEST_20160120",
  "ConversionSoftware": "dcm2niix",
  "ConversionSoftwareVersion": "v1.0.20190902",
  "DerivedVendorReportedEchoSpacing": 0.000560011,
  "DeviceSerialNumber": "167006",
  "DwellTime": 2.1e-06,
  "EchoTime": 0.037,
  "EchoTrainLength": 104,
  "EffectiveEchoSpacing": 0.000560011,
  "FlipAngle": 52,
  "HeudiconvVersion": "0.10.0",
  "ImageComments": "Unaliased_MB4_PE3_LB",
  "ImageOrientationPatientDICOM": [0.999383, 0.020271, 0.0286973, -0.00313966, 0.865037, -0.501698],
  "ImageType": [
    "ORIGINAL",
    "PRIMARY",
    "P",
    "MB",
    "ND",
    "MOSAIC"
],
  "ImagingFrequency": 123.259,
  "InPlanePhaseEncodingDirectionDICOM": "COL",
  "InstitutionAddress": "Chemin_Queen-Mary_4565_Montreal_District_CA_H3W_1W5",
  "InstitutionName": "IUGM",
  "InstitutionalDepartmentName": "Department",
  "MRAcquisitionType": "2D",
  "MagneticFieldStrength": 3,
  "Manufacturer": "Siemens",
  "ManufacturersModelName": "Prisma_fit",
  "Modality": "MR",
  "MultibandAccelerationFactor": 4,
  "PartialFourier": 1,
  "PatientPosition": "HFS",
  "PercentPhaseFOV": 100,
  "PhaseEncodingDirection": "j",
  "PhaseEncodingSteps": 104,
  "PhaseResolution": 1,
  "PixelBandwidth": 2290,
  "ProcedureStepDescription": "games_mario",
  "ProtocolName": "func_task-mario_run-04",
  "PulseSequenceDetails": "%CustomerSeq%_cmrr_mbep2d_bold",
  "ReceiveCoilActiveElements": "HC1-7;NC1,2",
  "ReceiveCoilName": "HeadNeck_64",
  "ReconMatrixPE": 104,
  "RepetitionTime": 1.49,
  "SAR": 0.0483378,
  "ScanOptions": "FS",
  "ScanningSequence": "EP",
  "SequenceName": "epfid2d1_104",
  "SequenceVariant": "SK_SS",
  "SeriesDescription": "func_task-mario_run-04",
  "SeriesNumber": 20,
  "ShimSetting": [624, -7185, -8862, 284, 25, -159, -15, -2],
  "SliceThickness": 2,
  "SliceTiming": [0, 0.7825, 0.0975, 0.88, 0.195, 0.98, 0.2925, 1.0775, 0.39, 1.175, 0.49, 1.2725, 0.5875, 1.37, 0.685, 0, 0.7825, 0.0975, 0.88, 0.195, 0.98, 0.2925, 1.0775, 0.39, 1.175, 0.49, 1.2725, 0.5875, 1.37, 0.685, 0, 0.7825, 0.0975, 0.88, 0.195, 0.98, 0.2925, 1.0775, 0.39, 1.175, 0.49, 1.2725, 0.5875, 1.37, 0.685, 0, 0.7825, 0.0975, 0.88, 0.195, 0.98, 0.2925, 1.0775, 0.39, 1.175, 0.49, 1.2725, 0.5875, 1.37, 0.685],
  "SoftwareVersions": "syngo_MR_E11",
  "SpacingBetweenSlices": 2,
  "StationName": "MRC35049",
  "TaskName": "mario",
  "TotalReadoutTime": 0.0576811,
  "TxRefAmp": 255.213,
  "WipMemBlock": "67fa4dc7-f727-4eb4-a047-b35b8e57d326||Sequence: R016 ve11c/master r/e634e98; Dec 19 2017 11:00:25 by eja",
  "dcmmeta_affine": [
    [-1.9987651109695435, -0.006279316730797291, 0.06998832523822784, 105.58721160888672],
    [-0.040541909635066986, 1.7300739288330078, -1.0025969743728638, -50.082462310791016],
    [0.05739467591047287, 1.0033966302871704, 1.729133129119873, -94.16307830810547],
    [0.0, 0.0, 0.0, 1.0]
],
  "dcmmeta_reorient_transform": [
    [0.0, -1.0, 0.0, 103.0],
    [1.0, 0.0, 0.0, 0.0],
    [0.0, 0.0, 1.0, 0.0],
    [0.0, 0.0, 0.0, 1.0]
],
  "dcmmeta_shape": [104, 104, 60, 501],
  "dcmmeta_slice_dim": 2,
  "dcmmeta_version": 0.6,
  "global": {
    "const": {
      "AcquisitionMatrix": [104, 0, 0, 104],
      "AngioFlag": "N",
      "BitsAllocated": 16,
      "BitsStored": 16,
      "BodyPartExamined": "BRAIN",
      "Columns": 832,
      "EchoNumbers": 1,
      "EchoTime": 37.0,
      "EchoTrainLength": 104,
      "FlipAngle": 52.0,
      "HighBit": 15,
      "ImageOrientationPatient": [0.99938258501106, 0.02027095495558, 0.02869733719011, -0.0031396583304, 0.86503696504767, -0.5016983073987],
      "ImagePositionPatient": [-830.20529390191, -772.61931840999, 353.53148189613],
      "ImageType": [
        "ORIGINAL",
        "PRIMARY",
        "P",
        "MB",
        "ND",
        "MOSAIC"
],
      "ImagedNucleus": "1H",
      "ImagingFrequency": 123.258926,
      "InPlanePhaseEncodingDirection": "COL",
      "LargestImagePixelValue": 4095,
      "MRAcquisitionType": "2D",
      "MagneticFieldStrength": 3.0,
      "Manufacturer": "SIEMENS",
      "ManufacturerModelName": "Prisma_fit",
      "Modality": "MR",
      "NumberOfAverages": 1.0,
      "NumberOfPhaseEncodingSteps": 104,
      "PercentPhaseFieldOfView": 100.0,
      "PercentSampling": 100.0,
      "PerformedProcedureStepStartTime": "123358.332000",
      "PhotometricInterpretation": "MONOCHROME2",
      "PixelBandwidth": 2290.0,
      "PixelRepresentation": 0,
      "PixelSpacing": [2.0, 2.0],
      "ProtocolName": "func_task-mario_run-04",
      "RepetitionTime": 1490.0,
      "RescaleIntercept": -4096.0,
      "RescaleSlope": 2.0,
      "RescaleType": "US",
      "Rows": 832,
      "SAR": 0.04833781215041,
      "SamplesPerPixel": 1,
      "ScanOptions": "FS",
      "ScanningSequence": "EP",
      "SequenceName": "epfid2d1_104",
      "SequenceVariant": [
        "SK",
        "SS"
],
      "SeriesDescription": "func_task-mario_run-04",
      "SeriesNumber": 20,
      "SeriesTime": "140118.260000",
      "SliceLocation": -52.60904622607,
      "SliceThickness": 2.0,
      "SmallestImagePixelValue": 0,
      "SoftwareVersions": "syngo MR E11",
      "SpacingBetweenSlices": 2.0000000383541,
      "SpecificCharacterSet": "ISO_IR 100",
      "StudyID": "1",
      "StudyTime": "123358.250000",
      "TransmitCoilName": "Body",
      "VariableFlipAngleFlag": "N",
      "WindowCenterWidthExplanation": "Algo1",
      "dBdt": 0.0},
    "slices": {}
  },
  "time": {
    "samples": {
      "AcquisitionNumber": [1, 2, 3, 4, 5, 6, 7, 8, 9, 10, 11, 12, 13, 14, 15, 16, 17, 18, 19, 20, 21, 22, 23, 24, 25, 26, 27, 28, 29, 30, 31, 32, 33, 34, 35, 36, 37, 38, 39, 40, 41, 42, 43, 44, 45, 46, 47, 48, 49, 50, 51, 52, 53, 54, 55, 56, 57, 58, 59, 60, 61, 62, 63, 64, 65, 66, 67, 68, 69, 70, 71, 72, 73, 74, 75, 76, 77, 78, 79, 80, 81, 82, 83, 84, 85, 86, 87, 88, 89, 90, 91, 92, 93, 94, 95, 96, 97, 98, 99, 100, 101, 102, 103, 104, 105, 106, 107, 108, 109, 110, 111, 112, 113, 114, 115, 116, 117, 118, 119, 120, 121, 122, 123, 124, 125, 126, 127, 128, 129, 130, 131, 132, 133, 134, 135, 136, 137, 138, 139, 140, 141, 142, 143, 144, 145, 146, 147, 148, 149, 150, 151, 152, 153, 154, 155, 156, 157, 158, 159, 160, 161, 162, 163, 164, 165, 166, 167, 168, 169, 170, 171, 172, 173, 174, 175, 176, 177, 178, 179, 180, 181, 182, 183, 184, 185, 186, 187, 188, 189, 190, 191, 192, 193, 194, 195, 196, 197, 198, 199, 200, 201, 202, 203, 204, 205, 206, 207, 208, 209, 210, 211, 212, 213, 214, 215, 216, 217, 218, 219, 220, 221, 222, 223, 224, 225, 226, 227, 228, 229, 230, 231, 232, 233, 234, 235, 236, 237, 238, 239, 240, 241, 242, 243, 244, 245, 246, 247, 248, 249, 250, 251, 252, 253, 254, 255, 256, 257, 258, 259, 260, 261, 262, 263, 264, 265, 266, 267, 268, 269, 270, 271, 272, 273, 274, 275, 276, 277, 278, 279, 280, 281, 282, 283, 284, 285, 286, 287, 288, 289, 290, 291, 292, 293, 294, 295, 296, 297, 298, 299, 300, 301, 302, 303, 304, 305, 306, 307, 308, 309, 310, 311, 312, 313, 314, 315, 316, 317, 318, 319, 320, 321, 322, 323, 324, 325, 326, 327, 328, 329, 330, 331, 332, 333, 334, 335, 336, 337, 338, 339, 340, 341, 342, 343, 344, 345, 346, 347, 348, 349, 350, 351, 352, 353, 354, 355, 356, 357, 358, 359, 360, 361, 362, 363, 364, 365, 366, 367, 368, 369, 370, 371, 372, 373, 374, 375, 376, 377, 378, 379, 380, 381, 382, 383, 384, 385, 386, 387, 388, 389, 390, 391, 392, 393, 394, 395, 396, 397, 398, 399, 400, 401, 402, 403, 404, 405, 406, 407, 408, 409, 410, 411, 412, 413, 414, 415, 416, 417, 418, 419, 420, 421, 422, 423, 424, 425, 426, 427, 428, 429, 430, 431, 432, 433, 434, 435, 436, 437, 438, 439, 440, 441, 442, 443, 444, 445, 446, 447, 448, 449, 450, 451, 452, 453, 454, 455, 456, 457, 458, 459, 460, 461, 462, 463, 464, 465, 466, 467, 468, 469, 470, 471, 472, 473, 474, 475, 476, 477, 478, 479, 480, 481, 482, 483, 484, 485, 486, 487, 488, 489, 490, 491, 492, 493, 494, 495, 496, 497, 498, 499, 500, 501],
      "AcquisitionTime": ["140020.205000", "140021.695000", "140023.185000", "140024.675000", "140026.165000", "140027.655000", "140029.145000", "140030.635000", "140032.125000", "140033.615000", "140035.105000", "140036.595000", "140038.085000", "140039.575000", "140041.065000", "140042.555000", "140044.045000", "140045.535000", "140047.025000", "140048.515000", "140050.005000", "140051.495000", "140052.985000", "140054.475000", "140055.965000", "140057.455000", "140058.945000", "140100.435000", "140101.925000", "140103.415000", "140104.905000", "140106.395000", "140107.885000", "140109.375000", "140110.865000", "140112.355000", "140113.845000", "140115.335000", "140116.825000", "140118.315000", "140119.805000", "140121.295000", "140122.785000", "140124.275000", "140125.765000", "140127.255000", "140128.745000", "140130.235000", "140131.725000", "140133.215000", "140134.705000", "140136.195000", "140137.685000", "140139.175000", "140140.665000", "140142.155000", "140143.645000", "140145.135000", "140146.625000", "140148.115000", "140149.605000", "140151.095000", "140152.585000", "140154.075000", "140155.565000", "140157.055000", "140158.545000", "140200.035000", "140201.525000", "140203.015000", "140204.505000", "140205.995000", "140207.485000", "140208.975000", "140210.465000", "140211.955000", "140213.445000", "140214.935000", "140216.425000", "140217.915000", "140219.405000", "140220.895000", "140222.385000", "140223.875000", "140225.365000", "140226.855000", "140228.345000", "140229.835000", "140231.325000", "140232.815000", "140234.305000", "140235.795000", "140237.285000", "140238.775000", "140240.265000", "140241.755000", "140243.245000", "140244.735000", "140246.225000", "140247.715000", "140249.205000", "140250.695000", "140252.185000", "140253.675000", "140255.165000", "140256.655000", "140258.145000", "140259.635000", "140301.125000", "140302.615000", "140304.105000", "140305.595000", "140307.085000", "140308.575000", "140310.065000", "140311.555000", "140313.045000", "140314.535000", "140316.025000", "140317.515000", "140319.005000", "140320.495000", "140321.985000", "140323.475000", "140324.965000", "140326.455000", "140327.945000", "140329.435000", "140330.925000", "140332.415000", "140333.905000", "140335.395000", "140336.885000", "140338.375000", "140339.865000", "140341.355000", "140342.845000", "140344.335000", "140345.825000", "140347.315000", "140348.805000", "140350.295000", "140351.785000", "140353.275000", "140354.765000", "140356.255000", "140357.745000", "140359.235000", "140400.725000", "140402.215000", "140403.705000", "140405.195000", "140406.685000", "140408.175000", "140409.665000", "140411.155000", "140412.645000", "140414.135000", "140415.625000", "140417.115000", "140418.605000", "140420.095000", "140421.585000", "140423.075000", "140424.565000", "140426.055000", "140427.545000", "140429.035000", "140430.525000", "140432.015000", "140433.505000", "140434.995000", "140436.485000", "140437.975000", "140439.465000", "140440.955000", "140442.445000", "140443.935000", "140445.425000", "140446.915000", "140448.405000", "140449.895000", "140451.385000", "140452.875000", "140454.365000", "140455.855000", "140457.345000", "140458.835000", "140500.325000", "140501.815000", "140503.305000", "140504.795000", "140506.285000", "140507.775000", "140509.265000", "140510.755000", "140512.245000", "140513.735000", "140515.225000", "140516.715000", "140518.205000", "140519.695000", "140521.185000", "140522.675000", "140524.165000", "140525.655000", "140527.145000", "140528.635000", "140530.125000", "140531.615000", "140533.105000", "140534.595000", "140536.085000", "140537.575000", "140539.065000", "140540.555000", "140542.045000", "140543.535000", "140545.025000", "140546.515000", "140548.005000", "140549.495000", "140550.985000", "140552.475000", "140553.965000", "140555.455000", "140556.945000", "140558.435000", "140559.925000", "140601.415000", "140602.905000", "140604.395000", "140605.885000", "140607.375000", "140608.865000", "140610.355000", "140611.845000", "140613.335000", "140614.825000", "140616.315000", "140617.805000", "140619.295000", "140620.785000", "140622.275000", "140623.765000", "140625.255000", "140626.745000", "140628.235000", "140629.725000", "140631.215000", "140632.705000", "140634.195000", "140635.685000", "140637.175000", "140638.665000", "140640.155000", "140641.645000", "140643.135000", "140644.625000", "140646.115000", "140647.605000", "140649.095000", "140650.585000", "140652.075000", "140653.565000", "140655.055000", "140656.545000", "140658.035000", "140659.525000", "140701.015000", "140702.505000", "140703.995000", "140705.485000", "140706.975000", "140708.465000", "140709.955000", "140711.445000", "140712.935000", "140714.425000", "140715.915000", "140717.405000", "140718.895000", "140720.385000", "140721.875000", "140723.365000", "140724.855000", "140726.345000", "140727.835000", "140729.325000", "140730.815000", "140732.305000", "140733.795000", "140735.285000", "140736.775000", "140738.265000", "140739.755000", "140741.245000", "140742.735000", "140744.225000", "140745.715000", "140747.205000", "140748.695000", "140750.185000", "140751.675000", "140753.165000", "140754.655000", "140756.145000", "140757.635000", "140759.125000", "140800.615000", "140802.105000", "140803.595000", "140805.085000", "140806.575000", "140808.065000", "140809.555000", "140811.045000", "140812.535000", "140814.025000", "140815.515000", "140817.005000", "140818.495000", "140819.985000", "140821.475000", "140822.965000", "140824.455000", "140825.945000", "140827.435000", "140828.925000", "140830.415000", "140831.905000", "140833.395000", "140834.885000", "140836.375000", "140837.865000", "140839.355000", "140840.845000", "140842.335000", "140843.825000", "140845.315000", "140846.805000", "140848.295000", "140849.785000", "140851.275000", "140852.765000", "140854.255000", "140855.745000", "140857.235000", "140858.725000", "140900.215000", "140901.705000", "140903.195000", "140904.685000", "140906.175000", "140907.665000", "140909.155000", "140910.645000", "140912.135000", "140913.625000", "140915.115000", "140916.605000", "140918.095000", "140919.585000", "140921.075000", "140922.565000", "140924.055000", "140925.545000", "140927.035000", "140928.525000", "140930.015000", "140931.505000", "140932.995000", "140934.485000", "140935.975000", "140937.465000", "140938.955000", "140940.445000", "140941.935000", "140943.425000", "140944.915000", "140946.405000", "140947.895000", "140949.385000", "140950.875000", "140952.365000", "140953.855000", "140955.345000", "140956.835000", "140958.325000", "140959.815000", "141001.305000", "141002.795000", "141004.285000", "141005.775000", "141007.265000", "141008.755000", "141010.245000", "141011.735000", "141013.225000", "141014.715000", "141016.205000", "141017.695000", "141019.185000", "141020.675000", "141022.165000", "141023.655000", "141025.145000", "141026.635000", "141028.125000", "141029.615000", "141031.105000", "141032.595000", "141034.085000", "141035.575000", "141037.065000", "141038.555000", "141040.045000", "141041.535000", "141043.025000", "141044.515000", "141046.005000", "141047.495000", "141048.985000", "141050.475000", "141051.965000", "141053.455000", "141054.945000", "141056.435000", "141057.925000", "141059.415000", "141100.905000", "141102.395000", "141103.885000", "141105.375000", "141106.865000", "141108.355000", "141109.845000", "141111.335000", "141112.825000", "141114.315000", "141115.805000", "141117.295000", "141118.785000", "141120.275000", "141121.765000", "141123.255000", "141124.745000", "141126.235000", "141127.725000", "141129.215000", "141130.705000", "141132.195000", "141133.685000", "141135.175000", "141136.665000", "141138.155000", "141139.645000", "141141.135000", "141142.625000", "141144.115000", "141145.605000", "141147.095000", "141148.585000", "141150.075000", "141151.565000", "141153.055000", "141154.545000", "141156.035000", "141157.525000", "141159.015000", "141200.505000", "141201.995000", "141203.485000", "141204.975000", "141206.465000", "141207.955000", "141209.445000", "141210.935000", "141212.425000", "141213.915000", "141215.405000", "141216.895000", "141218.385000", "141219.875000", "141221.365000", "141222.855000", "141224.345000", "141225.835000", "141227.325000", "141228.815000", "141230.305000", "141231.795000", "141233.285000", "141234.775000", "141236.265000", "141237.755000", "141239.245000", "141240.735000", "141242.225000", "141243.715000", "141245.205000"],
      "ContentTime": ["140118.262000", "140118.265000", "140118.267000", "140118.270000", "140118.272000", "140138.311000", "140138.314000", "140138.317000", "140138.319000", "140138.322000", "140138.324000", "140138.332000", "140138.335000", "140138.337000", "140138.340000", "140138.342000", "140138.345000", "140138.347000", "140138.350000", "140138.352000", "140138.355000", "140138.357000", "140138.360000", "140138.362000", "140138.365000", "140138.367000", "140158.306000", "140158.308000", "140158.311000", "140158.313000", "140158.316000", "140158.318000", "140158.321000", "140158.323000", "140158.326000", "140158.328000", "140158.331000", "140158.333000", "140158.336000", "140158.339000", "140158.341000", "140158.344000", "140158.346000", "140158.348000", "140158.351000", "140158.353000", "140218.282000", "140218.284000", "140218.287000", "140218.295000", "140218.297000", "140218.300000", "140218.302000", "140218.305000", "140218.307000", "140218.310000", "140218.312000", "140218.315000", "140218.317000", "140218.320000", "140218.322000", "140218.325000", "140218.327000", "140218.330000", "140218.332000", "140218.341000", "140238.292000", "140238.295000", "140238.297000", "140238.300000", "140238.302000", "140238.305000", "140238.308000", "140238.310000", "140238.312000", "140238.315000", "140238.318000", "140238.321000", "140238.324000", "140238.327000", "140238.329000", "140238.332000", "140238.335000", "140238.357000", "140238.360000", "140238.362000", "140318.355000", "140318.358000", "140318.360000", "140318.368000", "140318.371000", "140318.373000", "140318.376000", "140318.378000", "140318.381000", "140318.383000", "140318.386000", "140318.388000", "140318.391000", "140318.393000", "140318.396000", "140318.398000", "140318.401000", "140318.403000", "140318.406000", "140318.408000", "140318.411000", "140318.413000", "140318.415000", "140318.418000", "140318.420000", "140318.423000", "140318.426000", "140318.428000", "140318.431000", "140318.433000", "140318.435000", "140318.438000", "140358.312000", "140358.315000", "140358.318000", "140358.320000", "140358.323000", "140358.325000", "140358.328000", "140358.330000", "140358.333000", "140358.335000", "140358.338000", "140358.340000", "140358.343000", "140358.345000", "140358.348000", "140358.350000", "140358.352000", "140358.355000", "140358.357000", "140358.360000", "140358.362000", "140358.365000", "140358.367000", "140358.370000", "140358.372000", "140358.375000", "140358.377000", "140438.326000", "140438.329000", "140438.332000", "140438.334000", "140438.337000", "140438.339000", "140438.342000", "140438.344000", "140438.347000", "140438.349000", "140438.359000", "140438.362000", "140438.364000", "140438.366000", "140438.369000", "140438.372000", "140438.374000", "140438.377000", "140438.379000", "140438.382000", "140438.384000", "140438.395000", "140438.397000", "140438.400000", "140438.402000", "140438.405000", "140438.407000", "140518.311000", "140518.314000", "140518.316000", "140518.319000", "140518.321000", "140518.324000", "140518.326000", "140518.329000", "140518.331000", "140518.334000", "140518.336000", "140518.339000", "140518.341000", "140518.344000", "140518.346000", "140518.349000", "140518.351000", "140518.354000", "140518.356000", "140518.359000", "140518.361000", "140518.364000", "140518.366000", "140518.369000", "140518.371000", "140518.374000", "140518.376000", "140558.313000", "140558.316000", "140558.318000", "140558.321000", "140558.323000", "140558.326000", "140558.328000", "140558.331000", "140558.333000", "140558.336000", "140558.338000", "140558.341000", "140558.343000", "140558.346000", "140558.349000", "140558.351000", "140558.354000", "140558.356000", "140558.359000", "140558.361000", "140558.364000", "140558.366000", "140558.369000", "140558.371000", "140558.374000", "140558.376000", "140558.379000", "140638.339000", "140638.342000", "140638.344000", "140638.347000", "140638.349000", "140638.352000", "140638.354000", "140638.357000", "140638.359000", "140638.362000", "140638.364000", "140638.367000", "140638.370000", "140638.372000", "140638.375000", "140638.377000", "140638.380000", "140638.382000", "140638.385000", "140638.387000", "140638.390000", "140638.392000", "140638.395000", "140638.397000", "140638.400000", "140638.402000", "140638.405000", "140718.724000", "140718.726000", "140718.740000", "140718.743000", "140718.745000", "140718.748000", "140718.750000", "140718.753000", "140718.755000", "140718.758000", "140718.760000", "140718.763000", "140718.765000", "140718.768000", "140718.770000", "140718.773000", "140718.775000", "140718.778000", "140718.780000", "140718.783000", "140718.785000", "140718.788000", "140718.790000", "140718.793000", "140718.795000", "140718.798000", "140718.800000", "140758.332000", "140758.335000", "140758.337000", "140758.340000", "140758.342000", "140758.345000", "140758.347000", "140758.350000", "140758.352000", "140758.355000", "140758.357000", "140758.360000", "140758.362000", "140758.365000", "140758.368000", "140758.370000", "140758.373000", "140758.375000", "140758.378000", "140758.380000", "140758.383000", "140758.385000", "140758.388000", "140758.390000", "140758.393000", "140758.395000", "140838.334000", "140838.337000", "140838.339000", "140838.342000", "140838.344000", "140838.347000", "140838.349000", "140838.352000", "140838.354000", "140838.357000", "140838.359000", "140838.362000", "140838.365000", "140838.368000", "140838.371000", "140838.373000", "140838.376000", "140838.378000", "140838.381000", "140838.383000", "140838.386000", "140838.388000", "140838.391000", "140838.393000", "140838.396000", "140838.398000", "140838.401000", "140918.314000", "140918.317000", "140918.320000", "140918.322000", "140918.325000", "140918.327000", "140918.330000", "140918.332000", "140918.335000", "140918.337000", "140918.340000", "140918.342000", "140918.345000", "140918.347000", "140918.350000", "140918.352000", "140918.355000", "140918.357000", "140918.360000", "140918.362000", "140918.365000", "140918.367000", "140918.370000", "140918.372000", "140918.375000", "140918.387000", "140918.390000", "140958.300000", "140958.302000", "140958.305000", "140958.307000", "140958.310000", "140958.313000", "140958.315000", "140958.318000", "140958.320000", "140958.323000", "140958.325000", "140958.328000", "140958.330000", "140958.333000", "140958.335000", "140958.338000", "140958.340000", "140958.343000", "140958.345000", "140958.348000", "140958.351000", "140958.353000", "140958.355000", "140958.358000", "140958.369000", "140958.371000", "140958.374000", "141038.308000", "141038.311000", "141038.313000", "141038.316000", "141038.325000", "141038.327000", "141038.330000", "141038.333000", "141038.335000", "141038.338000", "141038.340000", "141038.343000", "141038.345000", "141038.348000", "141038.350000", "141038.353000", "141038.355000", "141038.358000", "141038.360000", "141038.363000", "141038.365000", "141038.368000", "141038.370000", "141038.373000", "141038.375000", "141038.378000", "141038.381000", "141118.317000", "141118.320000", "141118.322000", "141118.325000", "141118.327000", "141118.330000", "141118.332000", "141118.335000", "141118.337000", "141118.340000", "141118.342000", "141118.345000", "141118.347000", "141118.350000", "141118.352000", "141118.355000", "141118.357000", "141118.360000", "141118.362000", "141118.365000", "141118.367000", "141118.370000", "141118.372000", "141118.375000", "141118.377000", "141118.380000", "141118.382000", "141158.320000", "141158.323000", "141158.325000", "141158.328000", "141158.330000", "141158.333000", "141158.335000", "141158.338000", "141158.340000", "141158.343000", "141158.345000", "141158.348000", "141158.350000", "141158.353000", "141158.355000", "141158.358000", "141158.360000", "141158.363000", "141158.365000", "141158.368000", "141158.370000", "141158.373000", "141158.375000", "141158.378000", "141158.380000", "141158.383000", "141238.311000", "141238.314000", "141238.316000", "141238.319000", "141238.321000", "141238.324000", "141238.326000", "141238.329000", "141238.331000", "141238.334000", "141238.336000", "141238.339000", "141238.341000", "141238.344000", "141238.346000", "141238.349000", "141238.351000", "141238.354000", "141238.356000", "141238.359000", "141238.361000", "141238.364000", "141238.366000", "141238.369000", "141238.371000", "141238.375000", "141238.378000", "141248.300000", "141248.302000", "141248.305000", "141248.307000", "141248.310000", "141248.312000", "141248.315000"],
