{
  "AcquisitionMatrixPE": 104,
  "AcquisitionNumber": 1,
  "AcquisitionTime": "13:36:0.262500",
  "BandwidthPerPixelPhaseEncode": 17.17,
  "BaseResolution": 104,
  "BodyPartExamined": "BRAIN",
  "CoilString": "HC1-7;NC1_2",
  "ConsistencyInfo": "N4_VE11C_LATEST_20160120",
  "ConversionSoftware": "dcm2niix",
  "ConversionSoftwareVersion": "v1.0.20190902",
  "DerivedVendorReportedEchoSpacing": 0.000560011,
  "DeviceSerialNumber": "167006",
  "DwellTime": 2.1e-06,
  "EchoTime": 0.037,
  "EchoTrainLength": 104,
  "EffectiveEchoSpacing": 0.000560011,
  "FlipAngle": 52,
  "HeudiconvVersion": "0.10.0",
  "ImageComments": "Unaliased_MB4_PE3_LB",
  "ImageOrientationPatientDICOM": [0.999383, 0.020271, 0.0286973, -0.00313966, 0.865037, -0.501698],
  "ImageType": [
    "ORIGINAL",
    "PRIMARY",
    "M",
    "MB",
    "ND",
    "MOSAIC"
],
  "ImagingFrequency": 123.259,
  "InPlanePhaseEncodingDirectionDICOM": "COL",
  "InstitutionAddress": "Chemin_Queen-Mary_4565_Montreal_District_CA_H3W_1W5",
  "InstitutionName": "IUGM",
  "InstitutionalDepartmentName": "Department",
  "MRAcquisitionType": "2D",
  "MagneticFieldStrength": 3,
  "Manufacturer": "Siemens",
  "ManufacturersModelName": "Prisma_fit",
  "Modality": "MR",
  "MultibandAccelerationFactor": 4,
  "PartialFourier": 1,
  "PatientPosition": "HFS",
  "PercentPhaseFOV": 100,
  "PhaseEncodingDirection": "j",
  "PhaseEncodingSteps": 104,
  "PhaseResolution": 1,
  "PixelBandwidth": 2290,
  "ProcedureStepDescription": "games_mario",
  "ProtocolName": "func_task-mario_run-02",
  "PulseSequenceDetails": "%CustomerSeq%_cmrr_mbep2d_bold",
  "ReceiveCoilActiveElements": "HC1-7;NC1,2",
  "ReceiveCoilName": "HeadNeck_64",
  "ReconMatrixPE": 104,
  "RepetitionTime": 1.49,
  "SAR": 0.0483378,
  "ScanOptions": "FS",
  "ScanningSequence": "EP",
  "SequenceName": "epfid2d1_104",
  "SequenceVariant": "SK_SS",
  "SeriesDescription": "func_task-mario_run-02",
  "SeriesNumber": 13,
  "ShimSetting": [624, -7185, -8862, 284, 25, -159, -15, -2],
  "SliceThickness": 2,
  "SliceTiming": [0, 0.7825, 0.0975, 0.88, 0.195, 0.98, 0.2925, 1.0775, 0.39, 1.175, 0.49, 1.2725, 0.5875, 1.37, 0.685, 0, 0.7825, 0.0975, 0.88, 0.195, 0.98, 0.2925, 1.0775, 0.39, 1.175, 0.49, 1.2725, 0.5875, 1.37, 0.685, 0, 0.7825, 0.0975, 0.88, 0.195, 0.98, 0.2925, 1.0775, 0.39, 1.175, 0.49, 1.2725, 0.5875, 1.37, 0.685, 0, 0.7825, 0.0975, 0.88, 0.195, 0.98, 0.2925, 1.0775, 0.39, 1.175, 0.49, 1.2725, 0.5875, 1.37, 0.685],
  "SoftwareVersions": "syngo_MR_E11",
  "SpacingBetweenSlices": 2,
  "StationName": "MRC35049",
  "TaskName": "mario",
  "TotalReadoutTime": 0.0576811,
  "TxRefAmp": 255.213,
  "WipMemBlock": "b96039df-37b6-46d4-a632-9204faec6624||Sequence: R016 ve11c/master r/e634e98; Dec 19 2017 11:00:25 by eja",
  "dcmmeta_affine": [
    [-1.9987651109695435, -0.006279316730797291, 0.06998832523822784, 105.58721160888672],
    [-0.040541909635066986, 1.7300739288330078, -1.0025969743728638, -50.082462310791016],
    [0.05739467591047287, 1.0033966302871704, 1.729133129119873, -94.16307830810547],
    [0.0, 0.0, 0.0, 1.0]
],
  "dcmmeta_reorient_transform": [
    [0.0, -1.0, 0.0, 103.0],
    [1.0, 0.0, 0.0, 0.0],
    [0.0, 0.0, 1.0, 0.0],
    [0.0, 0.0, 0.0, 1.0]
],
  "dcmmeta_shape": [104, 104, 60, 434],
  "dcmmeta_slice_dim": 2,
  "dcmmeta_version": 0.6,
  "global": {
    "const": {
      "AcquisitionMatrix": [104, 0, 0, 104],
      "AngioFlag": "N",
      "BitsAllocated": 16,
      "BitsStored": 16,
      "BodyPartExamined": "BRAIN",
      "Columns": 832,
      "EchoNumbers": 1,
      "EchoTime": 37.0,
      "EchoTrainLength": 104,
      "FlipAngle": 52.0,
      "HighBit": 15,
      "ImageOrientationPatient": [0.99938258501106, 0.02027095495558, 0.02869733719011, -0.0031396583304, 0.86503696504767, -0.5016983073987],
      "ImagePositionPatient": [-830.20529390191, -772.61931840999, 353.53148189613],
      "ImageType": [
        "ORIGINAL",
        "PRIMARY",
        "M",
        "MB",
        "ND",
        "MOSAIC"
],
      "ImagedNucleus": "1H",
      "ImagingFrequency": 123.258914,
      "InPlanePhaseEncodingDirection": "COL",
      "MRAcquisitionType": "2D",
      "MagneticFieldStrength": 3.0,
      "Manufacturer": "SIEMENS",
      "ManufacturerModelName": "Prisma_fit",
      "Modality": "MR",
      "NumberOfAverages": 1.0,
      "NumberOfPhaseEncodingSteps": 104,
      "PercentPhaseFieldOfView": 100.0,
      "PercentSampling": 100.0,
      "PerformedProcedureStepStartTime": "123358.332000",
      "PhotometricInterpretation": "MONOCHROME2",
      "PixelBandwidth": 2290.0,
      "PixelRepresentation": 0,
      "PixelSpacing": [2.0, 2.0],
      "ProtocolName": "func_task-mario_run-02",
      "RepetitionTime": 1490.0,
      "Rows": 832,
      "SAR": 0.04833781215041,
      "SamplesPerPixel": 1,
      "ScanOptions": "FS",
      "ScanningSequence": "EP",
      "SequenceName": "epfid2d1_104",
      "SequenceVariant": [
        "SK",
        "SS"
],
      "SeriesDescription": "func_task-mario_run-02",
      "SeriesNumber": 13,
      "SeriesTime": "133732.746000",
      "SliceLocation": -52.60904622607,
      "SliceThickness": 2.0,
      "SmallestImagePixelValue": 0,
      "SoftwareVersions": "syngo MR E11",
      "SpacingBetweenSlices": 2.0000000383541,
      "SpecificCharacterSet": "ISO_IR 100",
      "StudyID": "1",
      "StudyTime": "123358.250000",
      "TransmitCoilName": "Body",
      "VariableFlipAngleFlag": "N",
      "WindowCenterWidthExplanation": "Algo1",
      "dBdt": 0.0},
    "slices": {}
  },
  "time": {
    "samples": {
      "AcquisitionNumber": [1, 2, 3, 4, 5, 6, 7, 8, 9, 10, 11, 12, 13, 14, 15, 16, 17, 18, 19, 20, 21, 22, 23, 24, 25, 26, 27, 28, 29, 30, 31, 32, 33, 34, 35, 36, 37, 38, 39, 40, 41, 42, 43, 44, 45, 46, 47, 48, 49, 50, 51, 52, 53, 54, 55, 56, 57, 58, 59, 60, 61, 62, 63, 64, 65, 66, 67, 68, 69, 70, 71, 72, 73, 74, 75, 76, 77, 78, 79, 80, 81, 82, 83, 84, 85, 86, 87, 88, 89, 90, 91, 92, 93, 94, 95, 96, 97, 98, 99, 100, 101, 102, 103, 104, 105, 106, 107, 108, 109, 110, 111, 112, 113, 114, 115, 116, 117, 118, 119, 120, 121, 122, 123, 124, 125, 126, 127, 128, 129, 130, 131, 132, 133, 134, 135, 136, 137, 138, 139, 140, 141, 142, 143, 144, 145, 146, 147, 148, 149, 150, 151, 152, 153, 154, 155, 156, 157, 158, 159, 160, 161, 162, 163, 164, 165, 166, 167, 168, 169, 170, 171, 172, 173, 174, 175, 176, 177, 178, 179, 180, 181, 182, 183, 184, 185, 186, 187, 188, 189, 190, 191, 192, 193, 194, 195, 196, 197, 198, 199, 200, 201, 202, 203, 204, 205, 206, 207, 208, 209, 210, 211, 212, 213, 214, 215, 216, 217, 218, 219, 220, 221, 222, 223, 224, 225, 226, 227, 228, 229, 230, 231, 232, 233, 234, 235, 236, 237, 238, 239, 240, 241, 242, 243, 244, 245, 246, 247, 248, 249, 250, 251, 252, 253, 254, 255, 256, 257, 258, 259, 260, 261, 262, 263, 264, 265, 266, 267, 268, 269, 270, 271, 272, 273, 274, 275, 276, 277, 278, 279, 280, 281, 282, 283, 284, 285, 286, 287, 288, 289, 290, 291, 292, 293, 294, 295, 296, 297, 298, 299, 300, 301, 302, 303, 304, 305, 306, 307, 308, 309, 310, 311, 312, 313, 314, 315, 316, 317, 318, 319, 320, 321, 322, 323, 324, 325, 326, 327, 328, 329, 330, 331, 332, 333, 334, 335, 336, 337, 338, 339, 340, 341, 342, 343, 344, 345, 346, 347, 348, 349, 350, 351, 352, 353, 354, 355, 356, 357, 358, 359, 360, 361, 362, 363, 364, 365, 366, 367, 368, 369, 370, 371, 372, 373, 374, 375, 376, 377, 378, 379, 380, 381, 382, 383, 384, 385, 386, 387, 388, 389, 390, 391, 392, 393, 394, 395, 396, 397, 398, 399, 400, 401, 402, 403, 404, 405, 406, 407, 408, 409, 410, 411, 412, 413, 414, 415, 416, 417, 418, 419, 420, 421, 422, 423, 424, 425, 426, 427, 428, 429, 430, 431, 432, 433, 434],
      "AcquisitionTime": ["133600.262500", "133601.752500", "133603.242500", "133604.732500", "133606.222500", "133607.712500", "133609.202500", "133610.692500", "133612.182500", "133613.672500", "133615.162500", "133616.652500", "133618.142500", "133619.632500", "133621.122500", "133622.612500", "133624.102500", "133625.592500", "133627.082500", "133628.572500", "133630.062500", "133631.552500", "133633.042500", "133634.532500", "133636.022500", "133637.512500", "133639.002500", "133640.492500", "133641.982500", "133643.472500", "133644.962500", "133646.452500", "133647.942500", "133649.432500", "133650.922500", "133652.412500", "133653.902500", "133655.392500", "133656.882500", "133658.372500", "133659.862500", "133701.352500", "133702.842500", "133704.332500", "133705.822500", "133707.312500", "133708.802500", "133710.292500", "133711.782500", "133713.272500", "133714.762500", "133716.252500", "133717.742500", "133719.232500", "133720.722500", "133722.212500", "133723.702500", "133725.192500", "133726.682500", "133728.172500", "133729.662500", "133731.152500", "133732.642500", "133734.132500", "133735.622500", "133737.112500", "133738.602500", "133740.092500", "133741.582500", "133743.072500", "133744.562500", "133746.052500", "133747.542500", "133749.032500", "133750.522500", "133752.012500", "133753.502500", "133754.992500", "133756.482500", "133757.972500", "133759.462500", "133800.952500", "133802.442500", "133803.932500", "133805.422500", "133806.912500", "133808.402500", "133809.892500", "133811.382500", "133812.872500", "133814.362500", "133815.852500", "133817.342500", "133818.832500", "133820.322500", "133821.812500", "133823.302500", "133824.792500", "133826.282500", "133827.772500", "133829.262500", "133830.752500", "133832.242500", "133833.732500", "133835.222500", "133836.712500", "133838.202500", "133839.692500", "133841.182500", "133842.672500", "133844.162500", "133845.652500", "133847.142500", "133848.632500", "133850.122500", "133851.612500", "133853.102500", "133854.592500", "133856.082500", "133857.572500", "133859.062500", "133900.552500", "133902.042500", "133903.532500", "133905.022500", "133906.512500", "133908.002500", "133909.492500", "133910.982500", "133912.472500", "133913.962500", "133915.452500", "133916.942500", "133918.432500", "133919.922500", "133921.412500", "133922.902500", "133924.392500", "133925.882500", "133927.372500", "133928.862500", "133930.352500", "133931.842500", "133933.332500", "133934.822500", "133936.312500", "133937.802500", "133939.292500", "133940.782500", "133942.272500", "133943.762500", "133945.252500", "133946.742500", "133948.232500", "133949.722500", "133951.212500", "133952.702500", "133954.192500", "133955.682500", "133957.172500", "133958.662500", "134000.152500", "134001.642500", "134003.132500", "134004.622500", "134006.112500", "134007.602500", "134009.092500", "134010.582500", "134012.072500", "134013.562500", "134015.052500", "134016.542500", "134018.032500", "134019.522500", "134021.012500", "134022.502500", "134023.992500", "134025.482500", "134026.972500", "134028.462500", "134029.952500", "134031.442500", "134032.932500", "134034.422500", "134035.912500", "134037.402500", "134038.892500", "134040.382500", "134041.872500", "134043.362500", "134044.852500", "134046.342500", "134047.832500", "134049.322500", "134050.812500", "134052.302500", "134053.792500", "134055.282500", "134056.772500", "134058.262500", "134059.752500", "134101.242500", "134102.732500", "134104.222500", "134105.712500", "134107.202500", "134108.692500", "134110.182500", "134111.672500", "134113.162500", "134114.652500", "134116.142500", "134117.632500", "134119.122500", "134120.612500", "134122.102500", "134123.592500", "134125.082500", "134126.572500", "134128.062500", "134129.552500", "134131.042500", "134132.532500", "134134.022500", "134135.512500", "134137.002500", "134138.492500", "134139.982500", "134141.472500", "134142.962500", "134144.452500", "134145.942500", "134147.432500", "134148.922500", "134150.412500", "134151.902500", "134153.392500", "134154.882500", "134156.372500", "134157.862500", "134159.352500", "134200.842500", "134202.332500", "134203.822500", "134205.312500", "134206.802500", "134208.292500", "134209.782500", "134211.272500", "134212.762500", "134214.252500", "134215.742500", "134217.232500", "134218.722500", "134220.212500", "134221.702500", "134223.192500", "134224.682500", "134226.172500", "134227.662500", "134229.152500", "134230.642500", "134232.132500", "134233.622500", "134235.112500", "134236.602500", "134238.092500", "134239.582500", "134241.072500", "134242.562500", "134244.052500", "134245.542500", "134247.032500", "134248.522500", "134250.012500", "134251.502500", "134252.992500", "134254.482500", "134255.972500", "134257.462500", "134258.952500", "134300.442500", "134301.932500", "134303.422500", "134304.912500", "134306.402500", "134307.892500", "134309.382500", "134310.872500", "134312.362500", "134313.852500", "134315.342500", "134316.832500", "134318.322500", "134319.812500", "134321.302500", "134322.792500", "134324.282500", "134325.772500", "134327.262500", "134328.752500", "134330.242500", "134331.732500", "134333.222500", "134334.712500", "134336.202500", "134337.692500", "134339.182500", "134340.672500", "134342.162500", "134343.652500", "134345.142500", "134346.632500", "134348.122500", "134349.612500", "134351.102500", "134352.592500", "134354.082500", "134355.572500", "134357.062500", "134358.552500", "134400.042500", "134401.532500", "134403.022500", "134404.512500", "134406.002500", "134407.492500", "134408.982500", "134410.472500", "134411.962500", "134413.452500", "134414.942500", "134416.432500", "134417.922500", "134419.412500", "134420.902500", "134422.392500", "134423.882500", "134425.372500", "134426.862500", "134428.352500", "134429.842500", "134431.332500", "134432.822500", "134434.312500", "134435.802500", "134437.292500", "134438.782500", "134440.272500", "134441.762500", "134443.252500", "134444.742500", "134446.232500", "134447.722500", "134449.212500", "134450.702500", "134452.192500", "134453.682500", "134455.172500", "134456.662500", "134458.152500", "134459.642500", "134501.132500", "134502.622500", "134504.112500", "134505.602500", "134507.092500", "134508.582500", "134510.072500", "134511.562500", "134513.052500", "134514.542500", "134516.032500", "134517.522500", "134519.012500", "134520.502500", "134521.992500", "134523.482500", "134524.972500", "134526.462500", "134527.952500", "134529.442500", "134530.932500", "134532.422500", "134533.912500", "134535.402500", "134536.892500", "134538.382500", "134539.872500", "134541.362500", "134542.852500", "134544.342500", "134545.832500", "134547.322500", "134548.812500", "134550.302500", "134551.792500", "134553.282500", "134554.772500", "134556.262500", "134557.752500", "134559.242500", "134600.732500", "134602.222500", "134603.712500", "134605.202500", "134606.692500", "134608.182500", "134609.672500", "134611.162500", "134612.652500", "134614.142500", "134615.632500", "134617.122500", "134618.612500", "134620.102500", "134621.592500", "134623.082500", "134624.572500", "134626.062500", "134627.552500", "134629.042500", "134630.532500", "134632.022500", "134633.512500", "134635.002500", "134636.492500", "134637.982500", "134639.472500", "134640.962500", "134642.452500", "134643.942500", "134645.432500"],
      "ContentTime": ["133732.749000", "133732.753000", "133732.757000", "133732.760000", "133732.763000", "133732.766000", "133732.770000", "133732.773000", "133732.785000", "133732.788000", "133732.792000", "133732.795000", "133732.798000", "133732.801000", "133732.805000", "133732.824000", "133732.827000", "133732.830000", "133732.833000", "133732.837000", "133732.840000", "133732.843000", "133732.846000", "133732.850000", "133732.853000", "133732.856000", "133732.859000", "133732.863000", "133732.876000", "133732.879000", "133732.882000", "133732.886000", "133732.889000", "133732.892000", "133732.895000", "133732.898000", "133732.902000", "133732.905000", "133732.922000", "133732.925000", "133752.699000", "133752.703000", "133752.706000", "133752.709000", "133752.712000", "133752.716000", "133752.719000", "133752.722000", "133752.725000", "133752.728000", "133752.732000", "133752.735000", "133752.738000", "133752.741000", "133752.745000", "133752.748000", "133752.751000", "133752.754000", "133752.758000", "133752.773000", "133812.699000", "133812.703000", "133812.706000", "133812.709000", "133812.712000", "133812.716000", "133812.719000", "133812.722000", "133812.725000", "133812.729000", "133812.732000", "133812.735000", "133812.738000", "133812.742000", "133812.745000", "133812.748000", "133812.751000", "133812.755000", "133812.758000", "133812.761000", "133832.699000", "133832.703000", "133832.706000", "133832.709000", "133832.713000", "133832.716000", "133832.719000", "133832.732000", "133832.735000", "133832.738000", "133832.741000", "133832.745000", "133832.748000", "133832.751000", "133832.755000", "133832.758000", "133832.761000", "133832.765000", "133832.768000", "133832.771000", "133912.699000", "133912.703000", "133912.707000", "133912.711000", "133912.715000", "133912.719000", "133912.723000", "133912.726000", "133912.730000", "133912.734000", "133912.738000", "133912.742000", "133912.745000", "133912.749000", "133912.753000", "133912.757000", "133912.761000", "133912.764000", "133912.768000", "133912.772000", "133912.776000", "133912.780000", "133912.783000", "133912.787000", "133912.791000", "133912.795000", "133912.799000", "133912.803000", "133952.699000", "133952.703000", "133952.706000", "133952.709000", "133952.712000", "133952.716000", "133952.719000", "133952.722000", "133952.726000", "133952.729000", "133952.732000", "133952.735000", "133952.739000", "133952.742000", "133952.745000", "133952.748000", "133952.752000", "133952.755000", "133952.758000", "133952.762000", "133952.765000", "133952.768000", "133952.771000", "133952.775000", "133952.778000", "133952.781000", "133952.785000", "134032.714000", "134032.718000", "134032.722000", "134032.725000", "134032.728000", "134032.731000", "134032.735000", "134032.738000", "134032.741000", "134032.745000", "134032.748000", "134032.751000", "134032.755000", "134032.758000", "134032.761000", "134032.764000", "134032.768000", "134032.771000", "134032.774000", "134032.777000", "134032.781000", "134032.784000", "134032.787000", "134032.791000", "134032.794000", "134032.797000", "134032.800000", "134052.699000", "134052.703000", "134052.706000", "134052.709000", "134052.712000", "134052.716000", "134052.719000", "134052.726000", "134052.730000", "134052.733000", "134052.736000", "134052.739000", "134052.743000", "134052.746000", "134132.699000", "134132.703000", "134132.706000", "134132.709000", "134132.712000", "134132.716000", "134132.719000", "134132.722000", "134132.733000", "134132.736000", "134132.739000", "134132.743000", "134132.746000", "134132.750000", "134132.753000", "134132.757000", "134132.760000", "134132.763000", "134132.767000", "134132.770000", "134132.773000", "134132.777000", "134132.780000", "134132.783000", "134132.786000", "134132.790000", "134212.699000", "134212.703000", "134212.706000", "134212.710000", "134212.713000", "134212.716000", "134212.720000", "134212.723000", "134212.726000", "134212.729000", "134212.733000", "134212.736000", "134212.740000", "134212.743000", "134212.746000", "134212.750000", "134212.753000", "134212.756000", "134212.759000", "134212.763000", "134212.766000", "134212.769000", "134212.772000", "134212.776000", "134212.779000", "134212.782000", "134212.786000", "134252.699000", "134252.703000", "134252.706000", "134252.709000", "134252.724000", "134252.727000", "134252.731000", "134252.734000", "134252.737000", "134252.741000", "134252.744000", "134252.747000", "134252.750000", "134252.754000", "134252.757000", "134252.760000", "134252.769000", "134252.772000", "134252.775000", "134252.779000", "134252.782000", "134252.786000", "134252.789000", "134252.793000", "134252.796000", "134252.799000", "134252.803000", "134332.699000", "134332.703000", "134332.706000", "134332.709000", "134332.713000", "134332.716000", "134332.719000", "134332.722000", "134332.726000", "134332.729000", "134332.732000", "134332.735000", "134332.739000", "134332.742000", "134332.745000", "134332.749000", "134332.752000", "134332.755000", "134332.758000", "134332.762000", "134332.765000", "134332.768000", "134332.771000", "134332.775000", "134332.778000", "134332.781000", "134332.784000", "134412.699000", "134412.703000", "134412.706000", "134412.709000", "134412.713000", "134412.716000", "134412.719000", "134412.722000", "134412.726000", "134412.729000", "134412.732000", "134412.736000", "134412.739000", "134412.742000", "134412.745000", "134412.749000", "134412.752000", "134412.755000", "134412.758000", "134412.762000", "134412.765000", "134412.768000", "134412.772000", "134412.775000", "134412.778000", "134412.782000", "134412.785000", "134452.699000", "134452.703000", "134452.706000", "134452.710000", "134452.713000", "134452.716000", "134452.720000", "134452.723000", "134452.738000", "134452.741000", "134452.744000", "134452.748000", "134452.751000", "134452.754000", "134452.763000", "134452.767000", "134452.770000", "134452.774000", "134452.777000", "134452.780000", "134452.784000", "134452.787000", "134452.790000", "134452.794000", "134452.797000", "134452.801000", "134452.804000", "134532.699000", "134532.703000", "134532.706000", "134532.710000", "134532.713000", "134532.716000", "134532.720000", "134532.723000", "134532.734000", "134532.737000", "134532.740000", "134532.744000", "134532.747000", "134532.752000", "134532.755000", "134532.759000", "134532.762000", "134532.766000", "134532.769000", "134532.773000", "134532.776000", "134532.779000", "134532.783000", "134532.786000", "134532.789000", "134532.793000", "134612.699000", "134612.703000", "134612.706000", "134612.709000", "134612.713000", "134612.716000", "134612.719000", "134612.722000", "134612.726000", "134612.729000", "134612.732000", "134612.736000", "134612.739000", "134612.742000", "134612.745000", "134612.749000", "134612.752000", "134612.755000", "134612.759000", "134612.762000", "134612.765000", "134612.768000", "134612.772000", "134612.775000", "134612.778000", "134612.782000", "134612.785000", "134648.090000", "134648.094000", "134648.097000", "134648.101000", "134648.104000", "134648.108000", "134648.111000", "134648.114000", "134648.118000", "134648.121000", "134648.124000", "134648.128000", "134648.131000", "134648.143000", "134648.146000", "134648.149000", "134648.153000", "134648.156000", "134648.159000", "134648.163000", "134648.166000", "134648.169000", "134648.172000", "134648.176000"],
      "InstanceCreationTime": ["133732.749000", "133732.753000", "133732.757000", "133732.760000", "133732.763000", "133732.766000", "133732.770000", "133732.773000", "133732.785000", "133732.788000", "133732.792000", "133732.795000", "133732.798000", "133732.801000", "133732.805000", "133732.824000", "133732.827000", "133732.830000", "133732.833000", "133732.837000", "133732.840000", "133732.843000", "133732.846000", "133732.850000", "133732.853000", "133732.856000", "133732.859000", "133732.863000", "133732.876000", "133732.879000", "133732.882000", "133732.886000", "133732.889000", "133732.892000", "133732.895000", "133732.898000", "133732.902000", "133732.905000", "133732.922000", "133732.925000", "133752.699000", "133752.703000", "133752.706000", "133752.709000", "133752.712000", "133752.716000", "133752.719000", "133752.722000", "133752.725000", "133752.728000", "133752.732000", "133752.735000", "133752.738000", "133752.741000", "133752.745000", "133752.748000", "133752.751000", "133752.754000", "133752.758000", "133752.773000", "133812.699000", "133812.703000", "133812.706000", "133812.709000", "133812.712000", "133812.716000", "133812.719000", "133812.722000", "133812.725000", "133812.729000", "133812.732000", "133812.735000", "133812.738000", "133812.742000", "133812.745000", "133812.748000", "133812.751000", "133812.755000", "133812.758000", "133812.761000", "133832.699000", "133832.703000", "133832.706000", "133832.709000", "133832.713000", "133832.716000", "133832.719000", "133832.732000", "133832.735000", "133832.738000", "133832.741000", "133832.745000", "133832.748000", "133832.751000", "133832.755000", "133832.758000", "133832.761000", "133832.765000", "133832.768000", "133832.771000", "133912.699000", "133912.703000", "133912.707000", "133912.711000", "133912.715000", "133912.719000", "133912.723000", "133912.726000", "133912.730000", "133912.734000", "133912.738000", "133912.742000", "133912.745000", "133912.749000", "133912.753000", "133912.757000", "133912.761000", "133912.764000", "133912.768000", "133912.772000", "133912.776000", "133912.780000", "133912.783000", "133912.787000", "133912.791000", "133912.795000", "133912.799000", "133912.803000", "133952.699000", "133952.703000", "133952.706000", "133952.709000", "133952.712000", "133952.716000", "133952.719000", "133952.722000", "133952.726000", "133952.729000", "133952.732000", "133952.735000", "133952.739000", "133952.742000", "133952.745000", "133952.748000", "133952.752000", "133952.755000", "133952.758000", "133952.762000", "133952.765000", "133952.768000", "133952.771000", "133952.775000", "133952.778000", "133952.781000", "133952.785000", "134032.714000", "134032.718000", "134032.722000", "134032.725000", "134032.728000", "134032.731000", "134032.735000", "134032.738000", "134032.741000", "134032.745000", "134032.748000", "134032.751000", "134032.755000", "134032.758000", "134032.761000", "134032.764000", "134032.768000", "134032.771000", "134032.774000", "134032.777000", "134032.781000", "134032.784000", "134032.787000", "134032.791000", "134032.794000", "134032.797000", "134032.800000", "134052.699000", "134052.703000", "134052.706000", "134052.709000", "134052.712000", "134052.716000", "134052.719000", "134052.726000", "134052.730000", "134052.733000", "134052.736000", "134052.739000", "134052.743000", "134052.746000", "134132.699000", "134132.703000", "134132.706000", "134132.709000", "134132.712000", "134132.716000", "134132.719000", "134132.722000", "134132.733000", "134132.736000", "134132.739000", "134132.743000", "134132.746000", "134132.750000", "134132.753000", "134132.757000", "134132.760000", "134132.763000", "134132.767000", "134132.770000", "134132.773000", "134132.777000", "134132.780000", "134132.783000", "134132.786000", "134132.790000", "134212.699000", "134212.703000", "134212.706000", "134212.710000", "134212.713000", "134212.716000", "134212.720000", "134212.723000", "134212.726000", "134212.729000", "134212.733000", "134212.736000", "134212.740000", "134212.743000", "134212.746000", "134212.750000", "134212.753000", "134212.756000", "134212.759000", "134212.763000", "134212.766000", "134212.769000", "134212.772000", "134212.776000", "134212.779000", "134212.782000", "134212.786000", "134252.699000", "134252.703000", "134252.706000", "134252.709000", "134252.724000", "134252.727000", "134252.731000", "134252.734000", "134252.737000", "134252.741000", "134252.744000", "134252.747000", "134252.750000", "134252.754000", "134252.757000", "134252.760000", "134252.769000", "134252.772000", "134252.775000", "134252.779000", "134252.782000", "134252.786000", "134252.789000", "134252.793000", "134252.796000", "134252.799000", "134252.803000", "134332.699000", "134332.703000", "134332.706000", "134332.709000", "134332.713000", "134332.716000", "134332.719000", "134332.722000", "134332.726000", "134332.729000", "134332.732000", "134332.735000", "134332.739000", "134332.742000", "134332.745000", "134332.749000", "134332.752000", "134332.755000", "134332.758000", "134332.762000", "134332.765000", "134332.768000", "134332.771000", "134332.775000", "134332.778000", "134332.781000", "134332.784000", "134412.699000", "134412.703000", "134412.706000", "134412.709000", "134412.713000", "134412.716000", "134412.719000", "134412.722000", "134412.726000", "134412.729000", "134412.732000", "134412.736000", "134412.739000", "134412.742000", "134412.745000", "134412.749000", "134412.752000", "134412.755000", "134412.758000", "134412.762000", "134412.765000", "134412.768000", "134412.772000", "134412.775000", "134412.778000", "134412.782000", "134412.785000", "134452.699000", "134452.703000", "134452.706000", "134452.710000", "134452.713000", "134452.716000", "134452.720000", "134452.723000", "134452.738000", "134452.741000", "134452.744000", "134452.748000", "134452.751000", "134452.754000", "134452.763000", "134452.767000", "134452.770000", "134452.774000", "134452.777000", "134452.780000", "134452.784000", "134452.787000", "134452.790000", "134452.794000", "134452.797000", "134452.801000", "134452.804000", "134532.699000", "134532.703000", "134532.706000", "134532.710000", "134532.713000", "134532.716000", "134532.720000", "134532.723000", "134532.734000", "134532.737000", "134532.740000", "134532.744000", "134532.747000", "134532.752000", "134532.755000", "134532.759000", "134532.762000", "134532.766000", "134532.769000", "134532.773000", "134532.776000", "134532.779000", "134532.783000", "134532.786000", "134532.789000", "134532.793000", "134612.699000", "134612.703000", "134612.706000", "134612.709000", "134612.713000", "134612.716000", "134612.719000", "134612.722000", "134612.726000", "134612.729000", "134612.732000", "134612.736000", "134612.739000", "134612.742000", "134612.745000", "134612.749000", "134612.752000", "134612.755000", "134612.759000", "134612.762000", "134612.765000", "134612.768000", "134612.772000", "134612.775000", "134612.778000", "134612.782000", "134612.785000", "134648.090000", "134648.094000", "134648.097000", "134648.101000", "134648.104000", "134648.108000", "134648.111000", "134648.114000", "134648.118000", "134648.121000", "134648.124000", "134648.128000", "134648.131000", "134648.143000", "134648.146000", "134648.149000", "134648.153000", "134648.156000", "134648.159000", "134648.163000", "134648.166000", "134648.169000", "134648.172000", "134648.176000"],
