{
  "AcquisitionMatrixPE": 104,
  "AcquisitionNumber": 1,
  "AcquisitionTime": "18:39:46.887500",
  "BandwidthPerPixelPhaseEncode": 17.17,
  "BaseResolution": 104,
  "BodyPartExamined": "BRAIN",
  "CoilString": "HC1-7;NC1_2",
  "ConsistencyInfo": "N4_VE11C_LATEST_20160120",
  "ConversionSoftware": "dcm2niix",
  "ConversionSoftwareVersion": "v1.0.20190902",
  "DerivedVendorReportedEchoSpacing": 0.000560011,
  "DeviceSerialNumber": "167006",
  "DwellTime": 2.1e-06,
  "EchoTime": 0.037,
  "EchoTrainLength": 104,
  "EffectiveEchoSpacing": 0.000560011,
  "FlipAngle": 52,
  "HeudiconvVersion": "0.10.0",
  "ImageComments": "Unaliased_MB4_PE3_LB",
  "ImageOrientationPatientDICOM": [0.999418, -0.00479921, 0.0337711, 0.0130831, 0.968266, -0.24958],
  "ImageType": [
    "ORIGINAL",
    "PRIMARY",
    "P",
    "MB",
    "ND",
    "MOSAIC"
],
  "ImagingFrequency": 123.259,
  "InPlanePhaseEncodingDirectionDICOM": "COL",
  "InstitutionAddress": "Chemin_Queen-Mary_4565_Montreal_District_CA_H3W_1W5",
  "InstitutionName": "IUGM",
  "InstitutionalDepartmentName": "Department",
  "MRAcquisitionType": "2D",
  "MagneticFieldStrength": 3,
  "Manufacturer": "Siemens",
  "ManufacturersModelName": "Prisma_fit",
  "Modality": "MR",
  "MultibandAccelerationFactor": 4,
  "PartialFourier": 1,
  "PatientPosition": "HFS",
  "PercentPhaseFOV": 100,
  "PhaseEncodingDirection": "j",
  "PhaseEncodingSteps": 104,
  "PhaseResolution": 1,
  "PixelBandwidth": 2290,
  "ProcedureStepDescription": "games_mario",
  "ProtocolName": "func_task-mario_run-03",
  "PulseSequenceDetails": "%CustomerSeq%_cmrr_mbep2d_bold",
  "ReceiveCoilActiveElements": "HC1-7;NC1,2",
  "ReceiveCoilName": "HeadNeck_64",
  "ReconMatrixPE": 104,
  "RepetitionTime": 1.49,
  "SAR": 0.0342025,
  "ScanOptions": "FS",
  "ScanningSequence": "EP",
  "SequenceName": "epfid2d1_104",
  "SequenceVariant": "SK_SS",
  "SeriesDescription": "func_task-mario_run-03",
  "SeriesNumber": 18,
  "ShimSetting": [647, -7223, -8720, 701, 63, -17, 88, -24],
  "SliceThickness": 2,
  "SliceTiming": [0, 0.7825, 0.0975, 0.88, 0.195, 0.98, 0.2925, 1.0775, 0.39, 1.175, 0.49, 1.2725, 0.5875, 1.37, 0.685, 0, 0.7825, 0.0975, 0.88, 0.195, 0.98, 0.2925, 1.0775, 0.39, 1.175, 0.49, 1.2725, 0.5875, 1.37, 0.685, 0, 0.7825, 0.0975, 0.88, 0.195, 0.98, 0.2925, 1.0775, 0.39, 1.175, 0.49, 1.2725, 0.5875, 1.37, 0.685, 0, 0.7825, 0.0975, 0.88, 0.195, 0.98, 0.2925, 1.0775, 0.39, 1.175, 0.49, 1.2725, 0.5875, 1.37, 0.685],
  "SoftwareVersions": "syngo_MR_E11",
  "SpacingBetweenSlices": 2,
  "StationName": "MRC35049",
  "TaskName": "mario",
  "TotalReadoutTime": 0.0576811,
  "TxRefAmp": 213.809,
  "WipMemBlock": "8a2c27ff-0867-4c6b-8c0c-725dbef9c3dd||Sequence: R016 ve11c/master r/e634e98; Dec 19 2017 11:00:25 by eja",
  "dcmmeta_affine": [
    [-1.9988361597061157, 0.026166247203946114, 0.06300311535596848, 105.47642517089844],
    [0.009598429314792156, 1.9365313053131104, -0.4997541308403015, -75.625732421875],
    [0.06754210591316223, 0.4991609454154968, 1.9355299472808838, -46.82542037963867],
    [0.0, 0.0, 0.0, 1.0]
],
  "dcmmeta_reorient_transform": [
    [0.0, -1.0, 0.0, 103.0],
    [1.0, 0.0, 0.0, 0.0],
    [0.0, 0.0, 1.0, 0.0],
    [0.0, 0.0, 0.0, 1.0]
],
  "dcmmeta_shape": [104, 104, 60, 446],
  "dcmmeta_slice_dim": 2,
  "dcmmeta_version": 0.6,
  "global": {
    "const": {
      "AcquisitionMatrix": [104, 0, 0, 104],
      "AngioFlag": "N",
      "BitsAllocated": 16,
      "BitsStored": 16,
      "BodyPartExamined": "BRAIN",
      "Columns": 832,
      "EchoNumbers": 1,
      "EchoTime": 37.0,
      "EchoTrainLength": 104,
      "FlipAngle": 52.0,
      "HighBit": 15,
      "ImageOrientationPatient": [0.99941807249715, -0.0047992145687, 0.03377105129552, 0.01308312326188, 0.96826567494062, -0.2495804772363],
      "ImagePositionPatient": [-845.27241620864, -825.24057726823, 161.69742050162],
      "ImageType": [
        "ORIGINAL",
        "PRIMARY",
        "P",
        "MB",
        "ND",
        "MOSAIC"
],
      "ImagedNucleus": "1H",
      "ImagingFrequency": 123.2589,
      "InPlanePhaseEncodingDirection": "COL",
      "LargestImagePixelValue": 4095,
      "MRAcquisitionType": "2D",
      "MagneticFieldStrength": 3.0,
      "Manufacturer": "SIEMENS",
      "ManufacturerModelName": "Prisma_fit",
      "Modality": "MR",
      "NumberOfAverages": 1.0,
      "NumberOfPhaseEncodingSteps": 104,
      "PercentPhaseFieldOfView": 100.0,
      "PercentSampling": 100.0,
      "PerformedProcedureStepStartTime": "174407.474000",
      "PhotometricInterpretation": "MONOCHROME2",
      "PixelBandwidth": 2290.0,
      "PixelRepresentation": 0,
      "PixelSpacing": [2.0, 2.0],
      "ProtocolName": "func_task-mario_run-03",
      "RepetitionTime": 1490.0,
      "RescaleIntercept": -4096.0,
      "RescaleSlope": 2.0,
      "RescaleType": "US",
      "Rows": 832,
      "SAR": 0.03420247800571,
      "SamplesPerPixel": 1,
      "ScanOptions": "FS",
      "ScanningSequence": "EP",
      "SequenceName": "epfid2d1_104",
      "SequenceVariant": [
        "SK",
        "SS"
],
      "SeriesDescription": "func_task-mario_run-03",
      "SeriesNumber": 18,
      "SeriesTime": "184115.220000",
      "SliceLocation": -23.096193757777,
      "SliceThickness": 2.0,
      "SmallestImagePixelValue": 0,
      "SoftwareVersions": "syngo MR E11",
      "SpacingBetweenSlices": 1.9999999929102,
      "SpecificCharacterSet": "ISO_IR 100",
      "StudyID": "1",
      "StudyTime": "174407.408000",
      "TransmitCoilName": "Body",
      "VariableFlipAngleFlag": "N",
      "WindowCenterWidthExplanation": "Algo1",
      "dBdt": 0.0},
    "slices": {}
  },
  "time": {
    "samples": {
      "AcquisitionNumber": [1, 2, 3, 4, 5, 6, 7, 8, 9, 10, 11, 12, 13, 14, 15, 16, 17, 18, 19, 20, 21, 22, 23, 24, 25, 26, 27, 28, 29, 30, 31, 32, 33, 34, 35, 36, 37, 38, 39, 40, 41, 42, 43, 44, 45, 46, 47, 48, 49, 50, 51, 52, 53, 54, 55, 56, 57, 58, 59, 60, 61, 62, 63, 64, 65, 66, 67, 68, 69, 70, 71, 72, 73, 74, 75, 76, 77, 78, 79, 80, 81, 82, 83, 84, 85, 86, 87, 88, 89, 90, 91, 92, 93, 94, 95, 96, 97, 98, 99, 100, 101, 102, 103, 104, 105, 106, 107, 108, 109, 110, 111, 112, 113, 114, 115, 116, 117, 118, 119, 120, 121, 122, 123, 124, 125, 126, 127, 128, 129, 130, 131, 132, 133, 134, 135, 136, 137, 138, 139, 140, 141, 142, 143, 144, 145, 146, 147, 148, 149, 150, 151, 152, 153, 154, 155, 156, 157, 158, 159, 160, 161, 162, 163, 164, 165, 166, 167, 168, 169, 170, 171, 172, 173, 174, 175, 176, 177, 178, 179, 180, 181, 182, 183, 184, 185, 186, 187, 188, 189, 190, 191, 192, 193, 194, 195, 196, 197, 198, 199, 200, 201, 202, 203, 204, 205, 206, 207, 208, 209, 210, 211, 212, 213, 214, 215, 216, 217, 218, 219, 220, 221, 222, 223, 224, 225, 226, 227, 228, 229, 230, 231, 232, 233, 234, 235, 236, 237, 238, 239, 240, 241, 242, 243, 244, 245, 246, 247, 248, 249, 250, 251, 252, 253, 254, 255, 256, 257, 258, 259, 260, 261, 262, 263, 264, 265, 266, 267, 268, 269, 270, 271, 272, 273, 274, 275, 276, 277, 278, 279, 280, 281, 282, 283, 284, 285, 286, 287, 288, 289, 290, 291, 292, 293, 294, 295, 296, 297, 298, 299, 300, 301, 302, 303, 304, 305, 306, 307, 308, 309, 310, 311, 312, 313, 314, 315, 316, 317, 318, 319, 320, 321, 322, 323, 324, 325, 326, 327, 328, 329, 330, 331, 332, 333, 334, 335, 336, 337, 338, 339, 340, 341, 342, 343, 344, 345, 346, 347, 348, 349, 350, 351, 352, 353, 354, 355, 356, 357, 358, 359, 360, 361, 362, 363, 364, 365, 366, 367, 368, 369, 370, 371, 372, 373, 374, 375, 376, 377, 378, 379, 380, 381, 382, 383, 384, 385, 386, 387, 388, 389, 390, 391, 392, 393, 394, 395, 396, 397, 398, 399, 400, 401, 402, 403, 404, 405, 406, 407, 408, 409, 410, 411, 412, 413, 414, 415, 416, 417, 418, 419, 420, 421, 422, 423, 424, 425, 426, 427, 428, 429, 430, 431, 432, 433, 434, 435, 436, 437, 438, 439, 440, 441, 442, 443, 444, 445, 446],
      "AcquisitionTime": ["183946.887500", "183948.377500", "183949.867500", "183951.357500", "183952.847500", "183954.337500", "183955.827500", "183957.317500", "183958.807500", "184000.297500", "184001.787500", "184003.277500", "184004.767500", "184006.257500", "184007.747500", "184009.237500", "184010.727500", "184012.217500", "184013.707500", "184015.197500", "184016.687500", "184018.177500", "184019.667500", "184021.157500", "184022.647500", "184024.137500", "184025.627500", "184027.117500", "184028.607500", "184030.097500", "184031.587500", "184033.077500", "184034.567500", "184036.057500", "184037.547500", "184039.037500", "184040.527500", "184042.017500", "184043.507500", "184044.997500", "184046.487500", "184047.977500", "184049.467500", "184050.957500", "184052.447500", "184053.937500", "184055.427500", "184056.917500", "184058.407500", "184059.897500", "184101.387500", "184102.877500", "184104.367500", "184105.857500", "184107.347500", "184108.837500", "184110.327500", "184111.817500", "184113.307500", "184114.797500", "184116.287500", "184117.777500", "184119.267500", "184120.757500", "184122.247500", "184123.737500", "184125.227500", "184126.717500", "184128.207500", "184129.697500", "184131.187500", "184132.677500", "184134.167500", "184135.657500", "184137.147500", "184138.637500", "184140.127500", "184141.617500", "184143.107500", "184144.597500", "184146.087500", "184147.577500", "184149.067500", "184150.557500", "184152.047500", "184153.537500", "184155.027500", "184156.517500", "184158.007500", "184159.497500", "184200.987500", "184202.477500", "184203.967500", "184205.457500", "184206.947500", "184208.437500", "184209.927500", "184211.417500", "184212.907500", "184214.397500", "184215.887500", "184217.377500", "184218.867500", "184220.357500", "184221.847500", "184223.337500", "184224.827500", "184226.317500", "184227.807500", "184229.297500", "184230.787500", "184232.277500", "184233.767500", "184235.257500", "184236.747500", "184238.237500", "184239.727500", "184241.217500", "184242.707500", "184244.197500", "184245.687500", "184247.177500", "184248.667500", "184250.157500", "184251.647500", "184253.137500", "184254.627500", "184256.117500", "184257.607500", "184259.097500", "184300.587500", "184302.077500", "184303.567500", "184305.057500", "184306.547500", "184308.037500", "184309.527500", "184311.017500", "184312.507500", "184313.997500", "184315.487500", "184316.977500", "184318.467500", "184319.957500", "184321.447500", "184322.937500", "184324.427500", "184325.917500", "184327.407500", "184328.897500", "184330.387500", "184331.877500", "184333.367500", "184334.857500", "184336.347500", "184337.837500", "184339.327500", "184340.817500", "184342.307500", "184343.797500", "184345.287500", "184346.777500", "184348.267500", "184349.757500", "184351.247500", "184352.737500", "184354.227500", "184355.717500", "184357.207500", "184358.697500", "184400.187500", "184401.677500", "184403.167500", "184404.657500", "184406.147500", "184407.637500", "184409.127500", "184410.617500", "184412.107500", "184413.597500", "184415.087500", "184416.577500", "184418.067500", "184419.557500", "184421.047500", "184422.537500", "184424.027500", "184425.517500", "184427.007500", "184428.497500", "184429.987500", "184431.477500", "184432.967500", "184434.457500", "184435.947500", "184437.437500", "184438.927500", "184440.417500", "184441.907500", "184443.397500", "184444.887500", "184446.377500", "184447.867500", "184449.357500", "184450.847500", "184452.337500", "184453.827500", "184455.317500", "184456.807500", "184458.297500", "184459.787500", "184501.277500", "184502.767500", "184504.257500", "184505.747500", "184507.237500", "184508.727500", "184510.217500", "184511.707500", "184513.197500", "184514.687500", "184516.177500", "184517.667500", "184519.157500", "184520.647500", "184522.137500", "184523.627500", "184525.117500", "184526.607500", "184528.097500", "184529.587500", "184531.077500", "184532.567500", "184534.057500", "184535.547500", "184537.037500", "184538.527500", "184540.017500", "184541.507500", "184542.997500", "184544.487500", "184545.977500", "184547.467500", "184548.957500", "184550.447500", "184551.937500", "184553.427500", "184554.917500", "184556.407500", "184557.897500", "184559.387500", "184600.877500", "184602.367500", "184603.857500", "184605.347500", "184606.837500", "184608.327500", "184609.817500", "184611.307500", "184612.797500", "184614.287500", "184615.777500", "184617.267500", "184618.757500", "184620.247500", "184621.737500", "184623.227500", "184624.717500", "184626.207500", "184627.697500", "184629.187500", "184630.677500", "184632.167500", "184633.657500", "184635.147500", "184636.637500", "184638.127500", "184639.617500", "184641.107500", "184642.597500", "184644.087500", "184645.577500", "184647.067500", "184648.557500", "184650.047500", "184651.537500", "184653.027500", "184654.517500", "184656.007500", "184657.497500", "184658.987500", "184700.477500", "184701.967500", "184703.457500", "184704.947500", "184706.437500", "184707.927500", "184709.417500", "184710.907500", "184712.397500", "184713.887500", "184715.377500", "184716.867500", "184718.357500", "184719.847500", "184721.337500", "184722.827500", "184724.317500", "184725.807500", "184727.297500", "184728.787500", "184730.277500", "184731.767500", "184733.257500", "184734.747500", "184736.237500", "184737.727500", "184739.217500", "184740.707500", "184742.197500", "184743.687500", "184745.177500", "184746.667500", "184748.157500", "184749.647500", "184751.137500", "184752.627500", "184754.117500", "184755.607500", "184757.097500", "184758.587500", "184800.077500", "184801.567500", "184803.057500", "184804.547500", "184806.037500", "184807.527500", "184809.017500", "184810.507500", "184811.997500", "184813.487500", "184814.977500", "184816.467500", "184817.957500", "184819.447500", "184820.937500", "184822.427500", "184823.917500", "184825.407500", "184826.897500", "184828.387500", "184829.877500", "184831.367500", "184832.857500", "184834.347500", "184835.837500", "184837.327500", "184838.817500", "184840.307500", "184841.797500", "184843.287500", "184844.777500", "184846.267500", "184847.757500", "184849.247500", "184850.737500", "184852.227500", "184853.717500", "184855.207500", "184856.697500", "184858.187500", "184859.677500", "184901.167500", "184902.657500", "184904.147500", "184905.637500", "184907.127500", "184908.617500", "184910.107500", "184911.597500", "184913.087500", "184914.577500", "184916.067500", "184917.557500", "184919.047500", "184920.537500", "184922.027500", "184923.517500", "184925.007500", "184926.497500", "184927.987500", "184929.477500", "184930.967500", "184932.457500", "184933.947500", "184935.437500", "184936.927500", "184938.417500", "184939.907500", "184941.397500", "184942.887500", "184944.377500", "184945.867500", "184947.357500", "184948.847500", "184950.337500", "184951.827500", "184953.317500", "184954.807500", "184956.297500", "184957.787500", "184959.277500", "185000.767500", "185002.257500", "185003.747500", "185005.237500", "185006.727500", "185008.217500", "185009.707500", "185011.197500", "185012.687500", "185014.177500", "185015.667500", "185017.157500", "185018.647500", "185020.137500", "185021.627500", "185023.117500", "185024.607500", "185026.097500", "185027.587500", "185029.077500", "185030.567500", "185032.057500", "185033.547500", "185035.037500", "185036.527500", "185038.017500", "185039.507500", "185040.997500", "185042.487500", "185043.977500", "185045.467500", "185046.957500", "185048.447500", "185049.937500"],
      "ContentTime": ["184115.222000", "184115.225000", "184115.227000", "184115.230000", "184115.232000", "184115.235000", "184115.237000", "184115.240000", "184115.242000", "184115.245000", "184115.247000", "184115.250000", "184115.252000", "184115.255000", "184115.257000", "184115.260000", "184115.262000", "184115.265000", "184115.267000", "184115.269000", "184115.272000", "184115.274000", "184115.277000", "184115.279000", "184115.282000", "184115.284000", "184115.287000", "184115.289000", "184115.292000", "184115.294000", "184115.297000", "184115.299000", "184115.302000", "184115.311000", "184115.314000", "184135.493000", "184135.495000", "184135.498000", "184135.501000", "184135.503000", "184135.506000", "184135.508000", "184135.511000", "184135.513000", "184135.516000", "184135.520000", "184135.523000", "184135.525000", "184135.528000", "184135.530000", "184135.533000", "184135.535000", "184135.538000", "184135.540000", "184135.543000", "184155.115000", "184155.118000", "184155.120000", "184155.123000", "184155.125000", "184155.128000", "184155.130000", "184155.133000", "184155.135000", "184155.138000", "184155.140000", "184155.143000", "184155.145000", "184155.148000", "184155.150000", "184155.153000", "184155.155000", "184155.157000", "184155.160000", "184155.163000", "184155.165000", "184215.103000", "184215.105000", "184215.108000", "184215.110000", "184215.113000", "184215.115000", "184215.118000", "184215.120000", "184215.123000", "184215.125000", "184215.127000", "184215.130000", "184215.132000", "184215.135000", "184215.137000", "184215.140000", "184215.142000", "184215.145000", "184215.147000", "184215.150000", "184255.163000", "184255.165000", "184255.168000", "184255.170000", "184255.173000", "184255.175000", "184255.178000", "184255.180000", "184255.183000", "184255.185000", "184255.188000", "184255.190000", "184255.193000", "184255.195000", "184255.198000", "184255.200000", "184255.203000", "184255.205000", "184255.208000", "184255.210000", "184255.213000", "184255.215000", "184255.218000", "184255.220000", "184255.223000", "184255.225000", "184255.228000", "184255.234000", "184255.237000", "184335.137000", "184335.140000", "184335.142000", "184335.145000", "184335.147000", "184335.150000", "184335.152000", "184335.155000", "184335.157000", "184335.160000", "184335.162000", "184335.164000", "184335.167000", "184335.169000", "184335.172000", "184335.174000", "184335.177000", "184335.179000", "184335.182000", "184335.184000", "184335.187000", "184335.190000", "184335.192000", "184335.195000", "184335.197000", "184335.199000", "184335.202000", "184415.183000", "184415.186000", "184415.188000", "184415.191000", "184415.193000", "184415.196000", "184415.198000", "184415.201000", "184415.203000", "184415.206000", "184415.208000", "184415.210000", "184415.213000", "184415.215000", "184415.218000", "184415.220000", "184415.223000", "184415.225000", "184415.228000", "184415.230000", "184415.233000", "184415.235000", "184415.238000", "184415.240000", "184415.243000", "184415.245000", "184415.248000", "184455.134000", "184455.136000", "184455.139000", "184455.141000", "184455.144000", "184455.146000", "184455.149000", "184455.151000", "184455.153000", "184455.156000", "184455.164000", "184455.167000", "184455.169000", "184455.172000", "184455.174000", "184455.177000", "184455.179000", "184455.182000", "184455.184000", "184455.187000", "184455.189000", "184455.192000", "184455.194000", "184455.197000", "184455.200000", "184455.202000", "184455.205000", "184535.131000", "184535.134000", "184535.136000", "184535.139000", "184535.141000", "184535.144000", "184535.146000", "184535.149000", "184535.151000", "184535.154000", "184535.156000", "184535.159000", "184535.161000", "184535.163000", "184535.166000", "184535.168000", "184535.171000", "184535.173000", "184535.176000", "184535.178000", "184535.181000", "184535.183000", "184535.186000", "184535.188000", "184535.191000", "184535.193000", "184535.196000", "184615.133000", "184615.136000", "184615.138000", "184615.141000", "184615.143000", "184615.146000", "184615.148000", "184615.151000", "184615.153000", "184615.155000", "184615.158000", "184615.160000", "184615.163000", "184615.165000", "184615.168000", "184615.170000", "184615.173000", "184615.175000", "184615.178000", "184615.180000", "184615.183000", "184615.185000", "184615.188000", "184615.190000", "184615.193000", "184615.195000", "184615.198000", "184655.158000", "184655.160000", "184655.163000", "184655.165000", "184655.168000", "184655.170000", "184655.173000", "184655.175000", "184655.178000", "184655.180000", "184655.183000", "184655.185000", "184655.188000", "184655.190000", "184655.193000", "184655.195000", "184655.198000", "184655.200000", "184655.203000", "184655.205000", "184655.208000", "184655.210000", "184655.213000", "184655.215000", "184655.218000", "184655.220000", "184655.223000", "184735.145000", "184735.149000", "184735.152000", "184735.155000", "184735.158000", "184735.162000", "184735.166000", "184735.168000", "184735.171000", "184735.173000", "184735.176000", "184735.178000", "184735.181000", "184735.183000", "184735.185000", "184735.188000", "184735.190000", "184735.193000", "184735.195000", "184735.198000", "184735.200000", "184735.203000", "184735.205000", "184735.208000", "184735.210000", "184735.213000", "184815.127000", "184815.130000", "184815.132000", "184815.135000", "184815.137000", "184815.140000", "184815.142000", "184815.145000", "184815.147000", "184815.150000", "184815.152000", "184815.155000", "184815.157000", "184815.160000", "184815.162000", "184815.165000", "184815.167000", "184815.170000", "184815.172000", "184815.175000", "184815.177000", "184815.180000", "184815.182000", "184815.185000", "184815.187000", "184815.190000", "184815.192000", "184855.135000", "184855.138000", "184855.140000", "184855.143000", "184855.145000", "184855.148000", "184855.150000", "184855.153000", "184855.155000", "184855.158000", "184855.160000", "184855.163000", "184855.165000", "184855.168000", "184855.170000", "184855.173000", "184855.175000", "184855.178000", "184855.180000", "184855.183000", "184855.185000", "184855.188000", "184855.190000", "184855.193000", "184855.195000", "184855.198000", "184855.200000", "184935.138000", "184935.140000", "184935.143000", "184935.145000", "184935.148000", "184935.150000", "184935.153000", "184935.155000", "184935.158000", "184935.160000", "184935.163000", "184935.165000", "184935.168000", "184935.170000", "184935.173000", "184935.175000", "184935.178000", "184935.180000", "184935.183000", "184935.185000", "184935.188000", "184935.190000", "184935.193000", "184935.195000", "184935.198000", "184935.200000", "184935.203000", "185015.141000", "185015.144000", "185015.146000", "185015.150000", "185015.152000", "185015.155000", "185015.157000", "185015.160000", "185015.162000", "185015.165000", "185015.167000", "185015.170000", "185015.172000", "185015.175000", "185015.177000", "185015.180000", "185015.182000", "185015.185000", "185015.187000", "185015.190000", "185015.192000", "185015.195000", "185015.197000", "185015.200000", "185015.202000", "185015.205000", "185015.207000", "185053.284000", "185053.287000", "185053.289000", "185053.292000", "185053.294000", "185053.297000", "185053.299000", "185053.302000", "185053.304000", "185053.307000", "185053.309000", "185053.312000", "185053.315000", "185053.317000", "185053.320000", "185053.322000", "185053.325000", "185053.328000", "185053.330000", "185053.333000", "185053.335000", "185053.338000", "185053.340000", "185053.343000", "185053.345000"],
