{
  "AcquisitionMatrixPE": 104,
  "AcquisitionNumber": 1,
  "AcquisitionTime": "18:39:46.887500",
  "BandwidthPerPixelPhaseEncode": 17.17,
  "BaseResolution": 104,
  "BodyPartExamined": "BRAIN",
  "CoilString": "HC1-7;NC1_2",
  "ConsistencyInfo": "N4_VE11C_LATEST_20160120",
  "ConversionSoftware": "dcm2niix",
  "ConversionSoftwareVersion": "v1.0.20190902",
  "DerivedVendorReportedEchoSpacing": 0.000560011,
  "DeviceSerialNumber": "167006",
  "DwellTime": 2.1e-06,
  "EchoTime": 0.037,
  "EchoTrainLength": 104,
  "EffectiveEchoSpacing": 0.000560011,
  "FlipAngle": 52,
  "HeudiconvVersion": "0.10.0",
  "ImageComments": "Unaliased_MB4_PE3_LB",
  "ImageOrientationPatientDICOM": [0.999418, -0.00479921, 0.0337711, 0.0130831, 0.968266, -0.24958],
  "ImageType": [
    "ORIGINAL",
    "PRIMARY",
    "M",
    "MB",
    "ND",
    "MOSAIC"
],
  "ImagingFrequency": 123.259,
  "InPlanePhaseEncodingDirectionDICOM": "COL",
  "InstitutionAddress": "Chemin_Queen-Mary_4565_Montreal_District_CA_H3W_1W5",
  "InstitutionName": "IUGM",
  "InstitutionalDepartmentName": "Department",
  "MRAcquisitionType": "2D",
  "MagneticFieldStrength": 3,
  "Manufacturer": "Siemens",
  "ManufacturersModelName": "Prisma_fit",
  "Modality": "MR",
  "MultibandAccelerationFactor": 4,
  "PartialFourier": 1,
  "PatientPosition": "HFS",
  "PercentPhaseFOV": 100,
  "PhaseEncodingDirection": "j",
  "PhaseEncodingSteps": 104,
  "PhaseResolution": 1,
  "PixelBandwidth": 2290,
  "ProcedureStepDescription": "games_mario",
  "ProtocolName": "func_task-mario_run-03",
  "PulseSequenceDetails": "%CustomerSeq%_cmrr_mbep2d_bold",
  "ReceiveCoilActiveElements": "HC1-7;NC1,2",
  "ReceiveCoilName": "HeadNeck_64",
  "ReconMatrixPE": 104,
  "RepetitionTime": 1.49,
  "SAR": 0.0342025,
  "ScanOptions": "FS",
  "ScanningSequence": "EP",
  "SequenceName": "epfid2d1_104",
  "SequenceVariant": "SK_SS",
  "SeriesDescription": "func_task-mario_run-03",
  "SeriesNumber": 17,
  "ShimSetting": [647, -7223, -8720, 701, 63, -17, 88, -24],
  "SliceThickness": 2,
  "SliceTiming": [0, 0.7825, 0.0975, 0.88, 0.195, 0.98, 0.2925, 1.0775, 0.39, 1.175, 0.49, 1.2725, 0.5875, 1.37, 0.685, 0, 0.7825, 0.0975, 0.88, 0.195, 0.98, 0.2925, 1.0775, 0.39, 1.175, 0.49, 1.2725, 0.5875, 1.37, 0.685, 0, 0.7825, 0.0975, 0.88, 0.195, 0.98, 0.2925, 1.0775, 0.39, 1.175, 0.49, 1.2725, 0.5875, 1.37, 0.685, 0, 0.7825, 0.0975, 0.88, 0.195, 0.98, 0.2925, 1.0775, 0.39, 1.175, 0.49, 1.2725, 0.5875, 1.37, 0.685],
  "SoftwareVersions": "syngo_MR_E11",
  "SpacingBetweenSlices": 2,
  "StationName": "MRC35049",
  "TaskName": "mario",
  "TotalReadoutTime": 0.0576811,
  "TxRefAmp": 213.809,
  "WipMemBlock": "8a2c27ff-0867-4c6b-8c0c-725dbef9c3dd||Sequence: R016 ve11c/master r/e634e98; Dec 19 2017 11:00:25 by eja",
  "dcmmeta_affine": [
    [-1.9988361597061157, 0.026166247203946114, 0.06300311535596848, 105.47642517089844],
    [0.009598429314792156, 1.9365313053131104, -0.4997541308403015, -75.625732421875],
    [0.06754210591316223, 0.4991609454154968, 1.9355299472808838, -46.82542037963867],
    [0.0, 0.0, 0.0, 1.0]
],
  "dcmmeta_reorient_transform": [
    [0.0, -1.0, 0.0, 103.0],
    [1.0, 0.0, 0.0, 0.0],
    [0.0, 0.0, 1.0, 0.0],
    [0.0, 0.0, 0.0, 1.0]
],
  "dcmmeta_shape": [104, 104, 60, 446],
  "dcmmeta_slice_dim": 2,
  "dcmmeta_version": 0.6,
  "global": {
    "const": {
      "AcquisitionMatrix": [104, 0, 0, 104],
      "AngioFlag": "N",
      "BitsAllocated": 16,
      "BitsStored": 16,
      "BodyPartExamined": "BRAIN",
      "Columns": 832,
      "EchoNumbers": 1,
      "EchoTime": 37.0,
      "EchoTrainLength": 104,
      "FlipAngle": 52.0,
      "HighBit": 15,
      "ImageOrientationPatient": [0.99941807249715, -0.0047992145687, 0.03377105129552, 0.01308312326188, 0.96826567494062, -0.2495804772363],
      "ImagePositionPatient": [-845.27241620864, -825.24057726823, 161.69742050162],
      "ImageType": [
        "ORIGINAL",
        "PRIMARY",
        "M",
        "MB",
        "ND",
        "MOSAIC"
],
      "ImagedNucleus": "1H",
      "ImagingFrequency": 123.2589,
      "InPlanePhaseEncodingDirection": "COL",
      "MRAcquisitionType": "2D",
      "MagneticFieldStrength": 3.0,
      "Manufacturer": "SIEMENS",
      "ManufacturerModelName": "Prisma_fit",
      "Modality": "MR",
      "NumberOfAverages": 1.0,
      "NumberOfPhaseEncodingSteps": 104,
      "PercentPhaseFieldOfView": 100.0,
      "PercentSampling": 100.0,
      "PerformedProcedureStepStartTime": "174407.474000",
      "PhotometricInterpretation": "MONOCHROME2",
      "PixelBandwidth": 2290.0,
      "PixelRepresentation": 0,
      "PixelSpacing": [2.0, 2.0],
      "ProtocolName": "func_task-mario_run-03",
      "RepetitionTime": 1490.0,
      "Rows": 832,
      "SAR": 0.03420247800571,
      "SamplesPerPixel": 1,
      "ScanOptions": "FS",
      "ScanningSequence": "EP",
      "SequenceName": "epfid2d1_104",
      "SequenceVariant": [
        "SK",
        "SS"
],
      "SeriesDescription": "func_task-mario_run-03",
      "SeriesNumber": 17,
      "SeriesTime": "184115.038000",
      "SliceLocation": -23.096193757777,
      "SliceThickness": 2.0,
      "SmallestImagePixelValue": 0,
      "SoftwareVersions": "syngo MR E11",
      "SpacingBetweenSlices": 1.9999999929102,
      "SpecificCharacterSet": "ISO_IR 100",
      "StudyID": "1",
      "StudyTime": "174407.408000",
      "TransmitCoilName": "Body",
      "VariableFlipAngleFlag": "N",
      "WindowCenterWidthExplanation": "Algo1",
      "dBdt": 0.0},
    "slices": {}
  },
  "time": {
    "samples": {
      "AcquisitionNumber": [1, 2, 3, 4, 5, 6, 7, 8, 9, 10, 11, 12, 13, 14, 15, 16, 17, 18, 19, 20, 21, 22, 23, 24, 25, 26, 27, 28, 29, 30, 31, 32, 33, 34, 35, 36, 37, 38, 39, 40, 41, 42, 43, 44, 45, 46, 47, 48, 49, 50, 51, 52, 53, 54, 55, 56, 57, 58, 59, 60, 61, 62, 63, 64, 65, 66, 67, 68, 69, 70, 71, 72, 73, 74, 75, 76, 77, 78, 79, 80, 81, 82, 83, 84, 85, 86, 87, 88, 89, 90, 91, 92, 93, 94, 95, 96, 97, 98, 99, 100, 101, 102, 103, 104, 105, 106, 107, 108, 109, 110, 111, 112, 113, 114, 115, 116, 117, 118, 119, 120, 121, 122, 123, 124, 125, 126, 127, 128, 129, 130, 131, 132, 133, 134, 135, 136, 137, 138, 139, 140, 141, 142, 143, 144, 145, 146, 147, 148, 149, 150, 151, 152, 153, 154, 155, 156, 157, 158, 159, 160, 161, 162, 163, 164, 165, 166, 167, 168, 169, 170, 171, 172, 173, 174, 175, 176, 177, 178, 179, 180, 181, 182, 183, 184, 185, 186, 187, 188, 189, 190, 191, 192, 193, 194, 195, 196, 197, 198, 199, 200, 201, 202, 203, 204, 205, 206, 207, 208, 209, 210, 211, 212, 213, 214, 215, 216, 217, 218, 219, 220, 221, 222, 223, 224, 225, 226, 227, 228, 229, 230, 231, 232, 233, 234, 235, 236, 237, 238, 239, 240, 241, 242, 243, 244, 245, 246, 247, 248, 249, 250, 251, 252, 253, 254, 255, 256, 257, 258, 259, 260, 261, 262, 263, 264, 265, 266, 267, 268, 269, 270, 271, 272, 273, 274, 275, 276, 277, 278, 279, 280, 281, 282, 283, 284, 285, 286, 287, 288, 289, 290, 291, 292, 293, 294, 295, 296, 297, 298, 299, 300, 301, 302, 303, 304, 305, 306, 307, 308, 309, 310, 311, 312, 313, 314, 315, 316, 317, 318, 319, 320, 321, 322, 323, 324, 325, 326, 327, 328, 329, 330, 331, 332, 333, 334, 335, 336, 337, 338, 339, 340, 341, 342, 343, 344, 345, 346, 347, 348, 349, 350, 351, 352, 353, 354, 355, 356, 357, 358, 359, 360, 361, 362, 363, 364, 365, 366, 367, 368, 369, 370, 371, 372, 373, 374, 375, 376, 377, 378, 379, 380, 381, 382, 383, 384, 385, 386, 387, 388, 389, 390, 391, 392, 393, 394, 395, 396, 397, 398, 399, 400, 401, 402, 403, 404, 405, 406, 407, 408, 409, 410, 411, 412, 413, 414, 415, 416, 417, 418, 419, 420, 421, 422, 423, 424, 425, 426, 427, 428, 429, 430, 431, 432, 433, 434, 435, 436, 437, 438, 439, 440, 441, 442, 443, 444, 445, 446],
      "AcquisitionTime": ["183946.887500", "183948.377500", "183949.867500", "183951.357500", "183952.847500", "183954.337500", "183955.827500", "183957.317500", "183958.807500", "184000.297500", "184001.787500", "184003.277500", "184004.767500", "184006.257500", "184007.747500", "184009.237500", "184010.727500", "184012.217500", "184013.707500", "184015.197500", "184016.687500", "184018.177500", "184019.667500", "184021.157500", "184022.647500", "184024.137500", "184025.627500", "184027.117500", "184028.607500", "184030.097500", "184031.587500", "184033.077500", "184034.567500", "184036.057500", "184037.547500", "184039.037500", "184040.527500", "184042.017500", "184043.507500", "184044.997500", "184046.487500", "184047.977500", "184049.467500", "184050.957500", "184052.447500", "184053.937500", "184055.427500", "184056.917500", "184058.407500", "184059.897500", "184101.387500", "184102.877500", "184104.367500", "184105.857500", "184107.347500", "184108.837500", "184110.327500", "184111.817500", "184113.307500", "184114.797500", "184116.287500", "184117.777500", "184119.267500", "184120.757500", "184122.247500", "184123.737500", "184125.227500", "184126.717500", "184128.207500", "184129.697500", "184131.187500", "184132.677500", "184134.167500", "184135.657500", "184137.147500", "184138.637500", "184140.127500", "184141.617500", "184143.107500", "184144.597500", "184146.087500", "184147.577500", "184149.067500", "184150.557500", "184152.047500", "184153.537500", "184155.027500", "184156.517500", "184158.007500", "184159.497500", "184200.987500", "184202.477500", "184203.967500", "184205.457500", "184206.947500", "184208.437500", "184209.927500", "184211.417500", "184212.907500", "184214.397500", "184215.887500", "184217.377500", "184218.867500", "184220.357500", "184221.847500", "184223.337500", "184224.827500", "184226.317500", "184227.807500", "184229.297500", "184230.787500", "184232.277500", "184233.767500", "184235.257500", "184236.747500", "184238.237500", "184239.727500", "184241.217500", "184242.707500", "184244.197500", "184245.687500", "184247.177500", "184248.667500", "184250.157500", "184251.647500", "184253.137500", "184254.627500", "184256.117500", "184257.607500", "184259.097500", "184300.587500", "184302.077500", "184303.567500", "184305.057500", "184306.547500", "184308.037500", "184309.527500", "184311.017500", "184312.507500", "184313.997500", "184315.487500", "184316.977500", "184318.467500", "184319.957500", "184321.447500", "184322.937500", "184324.427500", "184325.917500", "184327.407500", "184328.897500", "184330.387500", "184331.877500", "184333.367500", "184334.857500", "184336.347500", "184337.837500", "184339.327500", "184340.817500", "184342.307500", "184343.797500", "184345.287500", "184346.777500", "184348.267500", "184349.757500", "184351.247500", "184352.737500", "184354.227500", "184355.717500", "184357.207500", "184358.697500", "184400.187500", "184401.677500", "184403.167500", "184404.657500", "184406.147500", "184407.637500", "184409.127500", "184410.617500", "184412.107500", "184413.597500", "184415.087500", "184416.577500", "184418.067500", "184419.557500", "184421.047500", "184422.537500", "184424.027500", "184425.517500", "184427.007500", "184428.497500", "184429.987500", "184431.477500", "184432.967500", "184434.457500", "184435.947500", "184437.437500", "184438.927500", "184440.417500", "184441.907500", "184443.397500", "184444.887500", "184446.377500", "184447.867500", "184449.357500", "184450.847500", "184452.337500", "184453.827500", "184455.317500", "184456.807500", "184458.297500", "184459.787500", "184501.277500", "184502.767500", "184504.257500", "184505.747500", "184507.237500", "184508.727500", "184510.217500", "184511.707500", "184513.197500", "184514.687500", "184516.177500", "184517.667500", "184519.157500", "184520.647500", "184522.137500", "184523.627500", "184525.117500", "184526.607500", "184528.097500", "184529.587500", "184531.077500", "184532.567500", "184534.057500", "184535.547500", "184537.037500", "184538.527500", "184540.017500", "184541.507500", "184542.997500", "184544.487500", "184545.977500", "184547.467500", "184548.957500", "184550.447500", "184551.937500", "184553.427500", "184554.917500", "184556.407500", "184557.897500", "184559.387500", "184600.877500", "184602.367500", "184603.857500", "184605.347500", "184606.837500", "184608.327500", "184609.817500", "184611.307500", "184612.797500", "184614.287500", "184615.777500", "184617.267500", "184618.757500", "184620.247500", "184621.737500", "184623.227500", "184624.717500", "184626.207500", "184627.697500", "184629.187500", "184630.677500", "184632.167500", "184633.657500", "184635.147500", "184636.637500", "184638.127500", "184639.617500", "184641.107500", "184642.597500", "184644.087500", "184645.577500", "184647.067500", "184648.557500", "184650.047500", "184651.537500", "184653.027500", "184654.517500", "184656.007500", "184657.497500", "184658.987500", "184700.477500", "184701.967500", "184703.457500", "184704.947500", "184706.437500", "184707.927500", "184709.417500", "184710.907500", "184712.397500", "184713.887500", "184715.377500", "184716.867500", "184718.357500", "184719.847500", "184721.337500", "184722.827500", "184724.317500", "184725.807500", "184727.297500", "184728.787500", "184730.277500", "184731.767500", "184733.257500", "184734.747500", "184736.237500", "184737.727500", "184739.217500", "184740.707500", "184742.197500", "184743.687500", "184745.177500", "184746.667500", "184748.157500", "184749.647500", "184751.137500", "184752.627500", "184754.117500", "184755.607500", "184757.097500", "184758.587500", "184800.077500", "184801.567500", "184803.057500", "184804.547500", "184806.037500", "184807.527500", "184809.017500", "184810.507500", "184811.997500", "184813.487500", "184814.977500", "184816.467500", "184817.957500", "184819.447500", "184820.937500", "184822.427500", "184823.917500", "184825.407500", "184826.897500", "184828.387500", "184829.877500", "184831.367500", "184832.857500", "184834.347500", "184835.837500", "184837.327500", "184838.817500", "184840.307500", "184841.797500", "184843.287500", "184844.777500", "184846.267500", "184847.757500", "184849.247500", "184850.737500", "184852.227500", "184853.717500", "184855.207500", "184856.697500", "184858.187500", "184859.677500", "184901.167500", "184902.657500", "184904.147500", "184905.637500", "184907.127500", "184908.617500", "184910.107500", "184911.597500", "184913.087500", "184914.577500", "184916.067500", "184917.557500", "184919.047500", "184920.537500", "184922.027500", "184923.517500", "184925.007500", "184926.497500", "184927.987500", "184929.477500", "184930.967500", "184932.457500", "184933.947500", "184935.437500", "184936.927500", "184938.417500", "184939.907500", "184941.397500", "184942.887500", "184944.377500", "184945.867500", "184947.357500", "184948.847500", "184950.337500", "184951.827500", "184953.317500", "184954.807500", "184956.297500", "184957.787500", "184959.277500", "185000.767500", "185002.257500", "185003.747500", "185005.237500", "185006.727500", "185008.217500", "185009.707500", "185011.197500", "185012.687500", "185014.177500", "185015.667500", "185017.157500", "185018.647500", "185020.137500", "185021.627500", "185023.117500", "185024.607500", "185026.097500", "185027.587500", "185029.077500", "185030.567500", "185032.057500", "185033.547500", "185035.037500", "185036.527500", "185038.017500", "185039.507500", "185040.997500", "185042.487500", "185043.977500", "185045.467500", "185046.957500", "185048.447500", "185049.937500"],
      "ContentTime": ["184115.041000", "184115.045000", "184115.049000", "184115.052000", "184115.058000", "184115.061000", "184115.076000", "184115.079000", "184115.083000", "184115.086000", "184115.089000", "184115.093000", "184115.096000", "184115.099000", "184115.103000", "184115.106000", "184115.109000", "184115.112000", "184115.116000", "184115.119000", "184115.122000", "184115.126000", "184115.129000", "184115.132000", "184115.136000", "184115.139000", "184115.142000", "184115.146000", "184115.149000", "184115.152000", "184115.156000", "184115.159000", "184115.162000", "184115.166000", "184115.169000", "184134.997000", "184135.002000", "184135.005000", "184135.008000", "184135.012000", "184135.015000", "184135.018000", "184135.022000", "184135.025000", "184135.028000", "184135.031000", "184135.035000", "184135.038000", "184135.041000", "184135.045000", "184135.048000", "184135.051000", "184135.054000", "184135.058000", "184135.061000", "184154.996000", "184155.001000", "184155.004000", "184155.007000", "184155.011000", "184155.014000", "184155.017000", "184155.020000", "184155.024000", "184155.027000", "184155.030000", "184155.034000", "184155.037000", "184155.040000", "184155.044000", "184155.047000", "184155.050000", "184155.053000", "184155.057000", "184155.060000", "184155.063000", "184214.996000", "184215.001000", "184215.004000", "184215.007000", "184215.011000", "184215.014000", "184215.017000", "184215.021000", "184215.024000", "184215.027000", "184215.030000", "184215.034000", "184215.037000", "184215.040000", "184215.043000", "184215.047000", "184215.050000", "184215.053000", "184215.057000", "184215.060000", "184254.997000", "184255.002000", "184255.005000", "184255.009000", "184255.012000", "184255.015000", "184255.018000", "184255.022000", "184255.025000", "184255.029000", "184255.033000", "184255.056000", "184255.059000", "184255.063000", "184255.066000", "184255.069000", "184255.072000", "184255.076000", "184255.079000", "184255.082000", "184255.086000", "184255.089000", "184255.092000", "184255.095000", "184255.099000", "184255.102000", "184255.105000", "184255.109000", "184255.112000", "184334.997000", "184335.002000", "184335.005000", "184335.009000", "184335.012000", "184335.015000", "184335.019000", "184335.022000", "184335.025000", "184335.028000", "184335.032000", "184335.035000", "184335.038000", "184335.042000", "184335.045000", "184335.048000", "184335.052000", "184335.055000", "184335.058000", "184335.061000", "184335.065000", "184335.068000", "184335.071000", "184335.075000", "184335.078000", "184335.081000", "184335.084000", "184414.996000", "184415.001000", "184415.004000", "184415.007000", "184415.011000", "184415.014000", "184415.017000", "184415.021000", "184415.024000", "184415.027000", "184415.031000", "184415.034000", "184415.037000", "184415.041000", "184415.044000", "184415.047000", "184415.051000", "184415.054000", "184415.057000", "184415.060000", "184415.064000", "184415.067000", "184415.070000", "184415.074000", "184415.077000", "184415.080000", "184415.083000", "184454.996000", "184455.001000", "184455.004000", "184455.007000", "184455.011000", "184455.014000", "184455.017000", "184455.021000", "184455.024000", "184455.027000", "184455.031000", "184455.034000", "184455.037000", "184455.041000", "184455.044000", "184455.047000", "184455.050000", "184455.054000", "184455.057000", "184455.060000", "184455.064000", "184455.067000", "184455.070000", "184455.073000", "184455.077000", "184455.080000", "184455.083000", "184534.997000", "184535.002000", "184535.005000", "184535.008000", "184535.012000", "184535.015000", "184535.018000", "184535.022000", "184535.025000", "184535.028000", "184535.031000", "184535.035000", "184535.038000", "184535.042000", "184535.045000", "184535.048000", "184535.052000", "184535.055000", "184535.058000", "184535.061000", "184535.065000", "184535.068000", "184535.071000", "184535.075000", "184535.078000", "184535.082000", "184535.085000", "184614.997000", "184615.002000", "184615.005000", "184615.008000", "184615.012000", "184615.015000", "184615.018000", "184615.022000", "184615.025000", "184615.029000", "184615.032000", "184615.035000", "184615.039000", "184615.042000", "184615.045000", "184615.049000", "184615.052000", "184615.055000", "184615.058000", "184615.062000", "184615.065000", "184615.068000", "184615.072000", "184615.075000", "184615.078000", "184615.082000", "184615.085000", "184654.996000", "184655.001000", "184655.005000", "184655.008000", "184655.012000", "184655.015000", "184655.018000", "184655.022000", "184655.025000", "184655.029000", "184655.032000", "184655.036000", "184655.039000", "184655.043000", "184655.046000", "184655.050000", "184655.054000", "184655.057000", "184655.061000", "184655.065000", "184655.068000", "184655.072000", "184655.075000", "184655.079000", "184655.082000", "184655.085000", "184655.089000", "184734.997000", "184735.002000", "184735.005000", "184735.008000", "184735.012000", "184735.015000", "184735.019000", "184735.023000", "184735.027000", "184735.030000", "184735.033000", "184735.037000", "184735.040000", "184735.043000", "184735.068000", "184735.071000", "184735.075000", "184735.078000", "184735.081000", "184735.085000", "184735.088000", "184735.092000", "184735.095000", "184735.098000", "184735.101000", "184735.105000", "184814.997000", "184815.002000", "184815.005000", "184815.009000", "184815.012000", "184815.015000", "184815.018000", "184815.022000", "184815.025000", "184815.029000", "184815.032000", "184815.035000", "184815.038000", "184815.042000", "184815.045000", "184815.048000", "184815.052000", "184815.055000", "184815.058000", "184815.062000", "184815.065000", "184815.068000", "184815.072000", "184815.075000", "184815.078000", "184815.082000", "184815.085000", "184854.996000", "184855.001000", "184855.004000", "184855.008000", "184855.011000", "184855.014000", "184855.017000", "184855.021000", "184855.024000", "184855.027000", "184855.031000", "184855.034000", "184855.037000", "184855.041000", "184855.044000", "184855.048000", "184855.051000", "184855.054000", "184855.058000", "184855.061000", "184855.064000", "184855.068000", "184855.071000", "184855.074000", "184855.078000", "184855.081000", "184855.084000", "184934.996000", "184935.001000", "184935.004000", "184935.007000", "184935.012000", "184935.015000", "184935.019000", "184935.022000", "184935.025000", "184935.029000", "184935.032000", "184935.035000", "184935.039000", "184935.042000", "184935.045000", "184935.049000", "184935.052000", "184935.055000", "184935.059000", "184935.062000", "184935.065000", "184935.068000", "184935.072000", "184935.075000", "184935.078000", "184935.082000", "184935.085000", "185014.997000", "185015.002000", "185015.005000", "185015.009000", "185015.012000", "185015.015000", "185015.019000", "185015.022000", "185015.025000", "185015.028000", "185015.032000", "185015.035000", "185015.038000", "185015.042000", "185015.045000", "185015.048000", "185015.052000", "185015.055000", "185015.058000", "185015.062000", "185015.065000", "185015.068000", "185015.072000", "185015.075000", "185015.078000", "185015.081000", "185015.085000", "185053.149000", "185053.153000", "185053.156000", "185053.159000", "185053.163000", "185053.166000", "185053.169000", "185053.172000", "185053.176000", "185053.179000", "185053.182000", "185053.186000", "185053.189000", "185053.192000", "185053.195000", "185053.199000", "185053.202000", "185053.205000", "185053.208000", "185053.212000", "185053.215000", "185053.218000", "185053.222000", "185053.225000", "185053.228000"],
