{
  "AcquisitionMatrixPE": 104,
  "AcquisitionNumber": 1,
  "AcquisitionTime": "18:25:49.985000",
  "BandwidthPerPixelPhaseEncode": 17.17,
  "BaseResolution": 104,
  "BodyPartExamined": "BRAIN",
  "CoilString": "HC1-7;NC1_2",
  "ConsistencyInfo": "N4_VE11C_LATEST_20160120",
  "ConversionSoftware": "dcm2niix",
  "ConversionSoftwareVersion": "v1.0.20190902",
  "DerivedVendorReportedEchoSpacing": 0.000560011,
  "DeviceSerialNumber": "167006",
  "DwellTime": 2.1e-06,
  "EchoTime": 0.037,
  "EchoTrainLength": 104,
  "EffectiveEchoSpacing": 0.000560011,
  "FlipAngle": 52,
  "HeudiconvVersion": "0.10.0",
  "ImageComments": "Unaliased_MB4_PE3_LB",
  "ImageOrientationPatientDICOM": [0.999418, -0.00479921, 0.0337711, 0.0130831, 0.968266, -0.24958],
  "ImageType": [
    "ORIGINAL",
    "PRIMARY",
    "P",
    "MB",
    "ND",
    "MOSAIC"
],
  "ImagingFrequency": 123.259,
  "InPlanePhaseEncodingDirectionDICOM": "COL",
  "InstitutionAddress": "Chemin_Queen-Mary_4565_Montreal_District_CA_H3W_1W5",
  "InstitutionName": "IUGM",
  "InstitutionalDepartmentName": "Department",
  "MRAcquisitionType": "2D",
  "MagneticFieldStrength": 3,
  "Manufacturer": "Siemens",
  "ManufacturersModelName": "Prisma_fit",
  "Modality": "MR",
  "MultibandAccelerationFactor": 4,
  "PartialFourier": 1,
  "PatientPosition": "HFS",
  "PercentPhaseFOV": 100,
  "PhaseEncodingDirection": "j",
  "PhaseEncodingSteps": 104,
  "PhaseResolution": 1,
  "PixelBandwidth": 2290,
  "ProcedureStepDescription": "games_mario",
  "ProtocolName": "func_task-mario_run-02",
  "PulseSequenceDetails": "%CustomerSeq%_cmrr_mbep2d_bold",
  "ReceiveCoilActiveElements": "HC1-7;NC1,2",
  "ReceiveCoilName": "HeadNeck_64",
  "ReconMatrixPE": 104,
  "RepetitionTime": 1.49,
  "SAR": 0.0342025,
  "ScanOptions": "FS",
  "ScanningSequence": "EP",
  "SequenceName": "epfid2d1_104",
  "SequenceVariant": "SK_SS",
  "SeriesDescription": "func_task-mario_run-02",
  "SeriesNumber": 15,
  "ShimSetting": [647, -7223, -8720, 701, 63, -17, 88, -24],
  "SliceThickness": 2,
  "SliceTiming": [0, 0.7825, 0.0975, 0.88, 0.195, 0.98, 0.2925, 1.0775, 0.39, 1.175, 0.49, 1.2725, 0.5875, 1.37, 0.685, 0, 0.7825, 0.0975, 0.88, 0.195, 0.98, 0.2925, 1.0775, 0.39, 1.175, 0.49, 1.2725, 0.5875, 1.37, 0.685, 0, 0.7825, 0.0975, 0.88, 0.195, 0.98, 0.2925, 1.0775, 0.39, 1.175, 0.49, 1.2725, 0.5875, 1.37, 0.685, 0, 0.7825, 0.0975, 0.88, 0.195, 0.98, 0.2925, 1.0775, 0.39, 1.175, 0.49, 1.2725, 0.5875, 1.37, 0.685],
  "SoftwareVersions": "syngo_MR_E11",
  "SpacingBetweenSlices": 2,
  "StationName": "MRC35049",
  "TaskName": "mario",
  "TotalReadoutTime": 0.0576811,
  "TxRefAmp": 213.809,
  "WipMemBlock": "a3689e8a-4151-42ce-8115-ed2372bd4dc0||Sequence: R016 ve11c/master r/e634e98; Dec 19 2017 11:00:25 by eja",
  "dcmmeta_affine": [
    [-1.9988361597061157, 0.026166247203946114, 0.06300311535596848, 105.47642517089844],
    [0.009598429314792156, 1.9365313053131104, -0.4997541308403015, -75.625732421875],
    [0.06754210591316223, 0.4991609454154968, 1.9355299472808838, -46.82542037963867],
    [0.0, 0.0, 0.0, 1.0]
],
  "dcmmeta_reorient_transform": [
    [0.0, -1.0, 0.0, 103.0],
    [1.0, 0.0, 0.0, 0.0],
    [0.0, 0.0, 1.0, 0.0],
    [0.0, 0.0, 0.0, 1.0]
],
  "dcmmeta_shape": [104, 104, 60, 500],
  "dcmmeta_slice_dim": 2,
  "dcmmeta_version": 0.6,
  "global": {
    "const": {
      "AcquisitionMatrix": [104, 0, 0, 104],
      "AngioFlag": "N",
      "BitsAllocated": 16,
      "BitsStored": 16,
      "BodyPartExamined": "BRAIN",
      "Columns": 832,
      "EchoNumbers": 1,
      "EchoTime": 37.0,
      "EchoTrainLength": 104,
      "FlipAngle": 52.0,
      "HighBit": 15,
      "ImageOrientationPatient": [0.99941807249715, -0.0047992145687, 0.03377105129552, 0.01308312326188, 0.96826567494062, -0.2495804772363],
      "ImagePositionPatient": [-845.27241620864, -825.24057726823, 161.69742050162],
      "ImageType": [
        "ORIGINAL",
        "PRIMARY",
        "P",
        "MB",
        "ND",
        "MOSAIC"
],
      "ImagedNucleus": "1H",
      "ImagingFrequency": 123.258894,
      "InPlanePhaseEncodingDirection": "COL",
      "LargestImagePixelValue": 4095,
      "MRAcquisitionType": "2D",
      "MagneticFieldStrength": 3.0,
      "Manufacturer": "SIEMENS",
      "ManufacturerModelName": "Prisma_fit",
      "Modality": "MR",
      "NumberOfAverages": 1.0,
      "NumberOfPhaseEncodingSteps": 104,
      "PercentPhaseFieldOfView": 100.0,
      "PercentSampling": 100.0,
      "PerformedProcedureStepStartTime": "174407.474000",
      "PhotometricInterpretation": "MONOCHROME2",
      "PixelBandwidth": 2290.0,
      "PixelRepresentation": 0,
      "PixelSpacing": [2.0, 2.0],
      "ProtocolName": "func_task-mario_run-02",
      "RepetitionTime": 1490.0,
      "RescaleIntercept": -4096.0,
      "RescaleSlope": 2.0,
      "RescaleType": "US",
      "Rows": 832,
      "SAR": 0.03420247800571,
      "SamplesPerPixel": 1,
      "ScanOptions": "FS",
      "ScanningSequence": "EP",
      "SequenceName": "epfid2d1_104",
      "SequenceVariant": [
        "SK",
        "SS"
],
      "SeriesDescription": "func_task-mario_run-02",
      "SeriesNumber": 15,
      "SeriesTime": "182720.619000",
      "SliceLocation": -23.096193757777,
      "SliceThickness": 2.0,
      "SmallestImagePixelValue": 0,
      "SoftwareVersions": "syngo MR E11",
      "SpacingBetweenSlices": 1.9999999929102,
      "SpecificCharacterSet": "ISO_IR 100",
      "StudyID": "1",
      "StudyTime": "174407.408000",
      "TransmitCoilName": "Body",
      "VariableFlipAngleFlag": "N",
      "WindowCenterWidthExplanation": "Algo1",
      "dBdt": 0.0},
    "slices": {}
  },
  "time": {
    "samples": {
      "AcquisitionNumber": [1, 2, 3, 4, 5, 6, 7, 8, 9, 10, 11, 12, 13, 14, 15, 16, 17, 18, 19, 20, 21, 22, 23, 24, 25, 26, 27, 28, 29, 30, 31, 32, 33, 34, 35, 36, 37, 38, 39, 40, 41, 42, 43, 44, 45, 46, 47, 48, 49, 50, 51, 52, 53, 54, 55, 56, 57, 58, 59, 60, 61, 62, 63, 64, 65, 66, 67, 68, 69, 70, 71, 72, 73, 74, 75, 76, 77, 78, 79, 80, 81, 82, 83, 84, 85, 86, 87, 88, 89, 90, 91, 92, 93, 94, 95, 96, 97, 98, 99, 100, 101, 102, 103, 104, 105, 106, 107, 108, 109, 110, 111, 112, 113, 114, 115, 116, 117, 118, 119, 120, 121, 122, 123, 124, 125, 126, 127, 128, 129, 130, 131, 132, 133, 134, 135, 136, 137, 138, 139, 140, 141, 142, 143, 144, 145, 146, 147, 148, 149, 150, 151, 152, 153, 154, 155, 156, 157, 158, 159, 160, 161, 162, 163, 164, 165, 166, 167, 168, 169, 170, 171, 172, 173, 174, 175, 176, 177, 178, 179, 180, 181, 182, 183, 184, 185, 186, 187, 188, 189, 190, 191, 192, 193, 194, 195, 196, 197, 198, 199, 200, 201, 202, 203, 204, 205, 206, 207, 208, 209, 210, 211, 212, 213, 214, 215, 216, 217, 218, 219, 220, 221, 222, 223, 224, 225, 226, 227, 228, 229, 230, 231, 232, 233, 234, 235, 236, 237, 238, 239, 240, 241, 242, 243, 244, 245, 246, 247, 248, 249, 250, 251, 252, 253, 254, 255, 256, 257, 258, 259, 260, 261, 262, 263, 264, 265, 266, 267, 268, 269, 270, 271, 272, 273, 274, 275, 276, 277, 278, 279, 280, 281, 282, 283, 284, 285, 286, 287, 288, 289, 290, 291, 292, 293, 294, 295, 296, 297, 298, 299, 300, 301, 302, 303, 304, 305, 306, 307, 308, 309, 310, 311, 312, 313, 314, 315, 316, 317, 318, 319, 320, 321, 322, 323, 324, 325, 326, 327, 328, 329, 330, 331, 332, 333, 334, 335, 336, 337, 338, 339, 340, 341, 342, 343, 344, 345, 346, 347, 348, 349, 350, 351, 352, 353, 354, 355, 356, 357, 358, 359, 360, 361, 362, 363, 364, 365, 366, 367, 368, 369, 370, 371, 372, 373, 374, 375, 376, 377, 378, 379, 380, 381, 382, 383, 384, 385, 386, 387, 388, 389, 390, 391, 392, 393, 394, 395, 396, 397, 398, 399, 400, 401, 402, 403, 404, 405, 406, 407, 408, 409, 410, 411, 412, 413, 414, 415, 416, 417, 418, 419, 420, 421, 422, 423, 424, 425, 426, 427, 428, 429, 430, 431, 432, 433, 434, 435, 436, 437, 438, 439, 440, 441, 442, 443, 444, 445, 446, 447, 448, 449, 450, 451, 452, 453, 454, 455, 456, 457, 458, 459, 460, 461, 462, 463, 464, 465, 466, 467, 468, 469, 470, 471, 472, 473, 474, 475, 476, 477, 478, 479, 480, 481, 482, 483, 484, 485, 486, 487, 488, 489, 490, 491, 492, 493, 494, 495, 496, 497, 498, 499, 500],
      "AcquisitionTime": ["182549.985000", "182551.475000", "182552.965000", "182554.455000", "182555.945000", "182557.435000", "182558.925000", "182600.415000", "182601.905000", "182603.395000", "182604.885000", "182606.375000", "182607.865000", "182609.355000", "182610.845000", "182612.335000", "182613.825000", "182615.315000", "182616.805000", "182618.295000", "182619.785000", "182621.275000", "182622.765000", "182624.255000", "182625.745000", "182627.235000", "182628.725000", "182630.215000", "182631.705000", "182633.195000", "182634.685000", "182636.175000", "182637.665000", "182639.155000", "182640.645000", "182642.135000", "182643.625000", "182645.115000", "182646.605000", "182648.095000", "182649.585000", "182651.075000", "182652.565000", "182654.055000", "182655.545000", "182657.035000", "182658.525000", "182700.015000", "182701.505000", "182702.995000", "182704.485000", "182705.975000", "182707.465000", "182708.955000", "182710.445000", "182711.935000", "182713.425000", "182714.915000", "182716.405000", "182717.895000", "182719.385000", "182720.875000", "182722.365000", "182723.855000", "182725.345000", "182726.835000", "182728.325000", "182729.815000", "182731.305000", "182732.795000", "182734.285000", "182735.775000", "182737.265000", "182738.755000", "182740.245000", "182741.735000", "182743.225000", "182744.715000", "182746.205000", "182747.695000", "182749.185000", "182750.675000", "182752.165000", "182753.655000", "182755.145000", "182756.635000", "182758.125000", "182759.615000", "182801.105000", "182802.595000", "182804.085000", "182805.575000", "182807.065000", "182808.555000", "182810.045000", "182811.535000", "182813.025000", "182814.515000", "182816.005000", "182817.495000", "182818.985000", "182820.475000", "182821.965000", "182823.455000", "182824.945000", "182826.435000", "182827.925000", "182829.415000", "182830.905000", "182832.395000", "182833.885000", "182835.375000", "182836.865000", "182838.355000", "182839.845000", "182841.335000", "182842.825000", "182844.315000", "182845.805000", "182847.295000", "182848.785000", "182850.275000", "182851.765000", "182853.255000", "182854.745000", "182856.235000", "182857.725000", "182859.215000", "182900.705000", "182902.195000", "182903.685000", "182905.175000", "182906.665000", "182908.155000", "182909.645000", "182911.135000", "182912.625000", "182914.115000", "182915.605000", "182917.095000", "182918.585000", "182920.075000", "182921.565000", "182923.055000", "182924.545000", "182926.035000", "182927.525000", "182929.015000", "182930.505000", "182931.995000", "182933.485000", "182934.975000", "182936.465000", "182937.955000", "182939.445000", "182940.935000", "182942.425000", "182943.915000", "182945.405000", "182946.895000", "182948.385000", "182949.875000", "182951.365000", "182952.855000", "182954.345000", "182955.835000", "182957.325000", "182958.815000", "183000.305000", "183001.795000", "183003.285000", "183004.775000", "183006.265000", "183007.755000", "183009.245000", "183010.735000", "183012.225000", "183013.715000", "183015.205000", "183016.695000", "183018.185000", "183019.675000", "183021.165000", "183022.655000", "183024.145000", "183025.635000", "183027.125000", "183028.615000", "183030.105000", "183031.595000", "183033.085000", "183034.575000", "183036.065000", "183037.555000", "183039.045000", "183040.535000", "183042.025000", "183043.515000", "183045.005000", "183046.495000", "183047.985000", "183049.475000", "183050.965000", "183052.455000", "183053.945000", "183055.435000", "183056.925000", "183058.415000", "183059.905000", "183101.395000", "183102.885000", "183104.375000", "183105.865000", "183107.355000", "183108.845000", "183110.335000", "183111.825000", "183113.315000", "183114.805000", "183116.295000", "183117.785000", "183119.275000", "183120.765000", "183122.255000", "183123.745000", "183125.235000", "183126.725000", "183128.215000", "183129.705000", "183131.195000", "183132.685000", "183134.175000", "183135.665000", "183137.155000", "183138.645000", "183140.135000", "183141.625000", "183143.115000", "183144.605000", "183146.095000", "183147.585000", "183149.075000", "183150.565000", "183152.055000", "183153.545000", "183155.035000", "183156.525000", "183158.015000", "183159.505000", "183200.995000", "183202.485000", "183203.975000", "183205.465000", "183206.955000", "183208.445000", "183209.935000", "183211.425000", "183212.915000", "183214.405000", "183215.895000", "183217.385000", "183218.875000", "183220.365000", "183221.855000", "183223.345000", "183224.835000", "183226.325000", "183227.815000", "183229.305000", "183230.795000", "183232.285000", "183233.775000", "183235.265000", "183236.755000", "183238.245000", "183239.735000", "183241.225000", "183242.715000", "183244.205000", "183245.695000", "183247.185000", "183248.675000", "183250.165000", "183251.655000", "183253.145000", "183254.635000", "183256.125000", "183257.615000", "183259.105000", "183300.595000", "183302.085000", "183303.575000", "183305.065000", "183306.555000", "183308.045000", "183309.535000", "183311.025000", "183312.515000", "183314.005000", "183315.495000", "183316.985000", "183318.475000", "183319.965000", "183321.455000", "183322.945000", "183324.435000", "183325.925000", "183327.415000", "183328.905000", "183330.395000", "183331.885000", "183333.375000", "183334.865000", "183336.355000", "183337.845000", "183339.335000", "183340.825000", "183342.315000", "183343.805000", "183345.295000", "183346.785000", "183348.275000", "183349.765000", "183351.255000", "183352.745000", "183354.235000", "183355.725000", "183357.215000", "183358.705000", "183400.195000", "183401.685000", "183403.175000", "183404.665000", "183406.155000", "183407.645000", "183409.135000", "183410.625000", "183412.115000", "183413.605000", "183415.095000", "183416.585000", "183418.075000", "183419.565000", "183421.055000", "183422.545000", "183424.035000", "183425.525000", "183427.015000", "183428.505000", "183429.995000", "183431.485000", "183432.975000", "183434.465000", "183435.955000", "183437.445000", "183438.935000", "183440.425000", "183441.915000", "183443.405000", "183444.895000", "183446.385000", "183447.875000", "183449.365000", "183450.855000", "183452.345000", "183453.835000", "183455.325000", "183456.815000", "183458.305000", "183459.795000", "183501.285000", "183502.775000", "183504.265000", "183505.755000", "183507.245000", "183508.735000", "183510.225000", "183511.715000", "183513.205000", "183514.695000", "183516.185000", "183517.675000", "183519.165000", "183520.655000", "183522.145000", "183523.635000", "183525.125000", "183526.615000", "183528.105000", "183529.595000", "183531.085000", "183532.575000", "183534.065000", "183535.555000", "183537.045000", "183538.535000", "183540.025000", "183541.515000", "183543.005000", "183544.495000", "183545.985000", "183547.475000", "183548.965000", "183550.455000", "183551.945000", "183553.435000", "183554.925000", "183556.415000", "183557.905000", "183559.395000", "183600.885000", "183602.375000", "183603.865000", "183605.355000", "183606.845000", "183608.335000", "183609.825000", "183611.315000", "183612.805000", "183614.295000", "183615.785000", "183617.275000", "183618.765000", "183620.255000", "183621.745000", "183623.235000", "183624.725000", "183626.215000", "183627.705000", "183629.195000", "183630.685000", "183632.175000", "183633.665000", "183635.155000", "183636.645000", "183638.135000", "183639.625000", "183641.115000", "183642.605000", "183644.095000", "183645.585000", "183647.075000", "183648.565000", "183650.055000", "183651.545000", "183653.035000", "183654.525000", "183656.015000", "183657.505000", "183658.995000", "183700.485000", "183701.975000", "183703.465000", "183704.955000", "183706.445000", "183707.935000", "183709.425000", "183710.915000", "183712.405000", "183713.895000", "183715.385000", "183716.875000", "183718.365000", "183719.855000", "183721.345000", "183722.835000", "183724.325000", "183725.815000", "183727.305000", "183728.795000", "183730.285000", "183731.775000", "183733.265000", "183734.755000", "183736.245000", "183737.735000", "183739.225000", "183740.715000", "183742.205000", "183743.695000", "183745.185000", "183746.675000", "183748.165000", "183749.655000", "183751.145000", "183752.635000", "183754.125000", "183755.615000", "183757.105000", "183758.595000", "183800.085000", "183801.575000", "183803.065000", "183804.555000", "183806.045000", "183807.535000", "183809.025000", "183810.515000", "183812.005000", "183813.495000"],
      "ContentTime": ["182720.621000", "182720.624000", "182720.626000", "182720.629000", "182720.631000", "182720.634000", "182720.636000", "182720.639000", "182720.641000", "182720.644000", "182720.646000", "182720.649000", "182720.651000", "182720.654000", "182720.656000", "182720.659000", "182720.661000", "182720.663000", "182720.670000", "182720.673000", "182720.675000", "182720.678000", "182720.680000", "182720.683000", "182720.685000", "182720.688000", "182720.690000", "182720.693000", "182720.695000", "182720.697000", "182720.700000", "182720.702000", "182720.705000", "182720.707000", "182720.710000", "182720.712000", "182720.715000", "182740.538000", "182740.540000", "182740.543000", "182740.545000", "182740.548000", "182740.550000", "182740.553000", "182740.555000", "182740.564000", "182740.566000", "182740.569000", "182740.572000", "182740.574000", "182740.577000", "182740.579000", "182740.582000", "182740.584000", "182740.587000", "182740.589000", "182740.592000", "182800.525000", "182800.528000", "182800.531000", "182800.533000", "182800.536000", "182800.538000", "182800.541000", "182800.543000", "182800.545000", "182800.548000", "182800.550000", "182800.553000", "182800.555000", "182800.558000", "182800.560000", "182800.563000", "182800.565000", "182800.568000", "182800.570000", "182800.573000", "182820.531000", "182820.534000", "182820.536000", "182820.539000", "182820.541000", "182820.544000", "182820.546000", "182820.549000", "182820.551000", "182820.554000", "182820.556000", "182820.559000", "182820.561000", "182820.564000", "182820.566000", "182820.569000", "182820.572000", "182820.574000", "182820.576000", "182820.579000", "182820.582000", "182900.568000", "182900.571000", "182900.573000", "182900.576000", "182900.578000", "182900.581000", "182900.583000", "182900.586000", "182900.588000", "182900.591000", "182900.593000", "182900.596000", "182900.598000", "182900.600000", "182900.603000", "182900.606000", "182900.608000", "182900.611000", "182900.613000", "182900.616000", "182900.625000", "182900.627000", "182900.630000", "182900.633000", "182900.635000", "182900.637000", "182900.640000", "182900.642000", "182900.645000", "182940.946000", "182940.948000", "182940.951000", "182940.953000", "182940.956000", "182940.958000", "182940.961000", "182940.963000", "182940.966000", "182940.968000", "182940.971000", "182940.973000", "182940.976000", "182940.978000", "182940.981000", "182940.983000", "182940.986000", "182940.988000", "182940.991000", "182940.993000", "182940.996000", "182940.998000", "182941.001000", "182941.003000", "182941.006000", "182941.008000", "182941.011000", "183020.548000", "183020.551000", "183020.553000", "183020.556000", "183020.558000", "183020.561000", "183020.563000", "183020.566000", "183020.568000", "183020.571000", "183020.573000", "183020.576000", "183020.578000", "183020.581000", "183020.583000", "183020.586000", "183020.588000", "183020.591000", "183020.593000", "183020.596000", "183020.598000", "183020.601000", "183020.603000", "183020.606000", "183020.608000", "183020.611000", "183100.556000", "183100.559000", "183100.561000", "183100.564000", "183100.567000", "183100.569000", "183100.572000", "183100.574000", "183100.577000", "183100.579000", "183100.582000", "183100.584000", "183100.587000", "183100.589000", "183100.592000", "183100.594000", "183100.597000", "183100.599000", "183100.602000", "183100.604000", "183100.607000", "183100.609000", "183100.612000", "183100.614000", "183100.617000", "183100.619000", "183100.622000", "183140.553000", "183140.555000", "183140.558000", "183140.560000", "183140.563000", "183140.565000", "183140.568000", "183140.570000", "183140.573000", "183140.575000", "183140.578000", "183140.580000", "183140.583000", "183140.585000", "183140.588000", "183140.590000", "183140.593000", "183140.595000", "183140.598000", "183140.600000", "183140.603000", "183140.605000", "183140.608000", "183140.610000", "183140.613000", "183140.615000", "183140.618000", "183220.578000", "183220.580000", "183220.583000", "183220.585000", "183220.588000", "183220.590000", "183220.593000", "183220.595000", "183220.598000", "183220.600000", "183220.603000", "183220.605000", "183220.608000", "183220.610000", "183220.613000", "183220.615000", "183220.618000", "183220.620000", "183220.623000", "183220.625000", "183220.628000", "183220.630000", "183220.633000", "183220.635000", "183220.638000", "183220.640000", "183220.643000", "183300.563000", "183300.566000", "183300.569000", "183300.571000", "183300.574000", "183300.576000", "183300.579000", "183300.581000", "183300.584000", "183300.586000", "183300.589000", "183300.591000", "183300.594000", "183300.596000", "183300.599000", "183300.601000", "183300.604000", "183300.606000", "183300.609000", "183300.611000", "183300.614000", "183300.616000", "183300.619000", "183300.621000", "183300.624000", "183300.626000", "183300.629000", "183340.560000", "183340.562000", "183340.565000", "183340.567000", "183340.570000", "183340.573000", "183340.575000", "183340.578000", "183340.580000", "183340.583000", "183340.585000", "183340.588000", "183340.590000", "183340.593000", "183340.595000", "183340.598000", "183340.600000", "183340.603000", "183340.605000", "183340.608000", "183340.610000", "183340.613000", "183340.615000", "183340.617000", "183340.620000", "183340.622000", "183340.625000", "183420.556000", "183420.559000", "183420.561000", "183420.564000", "183420.566000", "183420.569000", "183420.571000", "183420.574000", "183420.576000", "183420.579000", "183420.581000", "183420.584000", "183420.586000", "183420.589000", "183420.610000", "183420.612000", "183420.615000", "183420.617000", "183420.620000", "183420.622000", "183420.625000", "183420.627000", "183420.630000", "183420.632000", "183420.635000", "183420.637000", "183500.547000", "183500.550000", "183500.552000", "183500.555000", "183500.557000", "183500.560000", "183500.562000", "183500.565000", "183500.567000", "183500.570000", "183500.572000", "183500.575000", "183500.577000", "183500.580000", "183500.582000", "183500.585000", "183500.587000", "183500.590000", "183500.592000", "183500.595000", "183500.598000", "183500.600000", "183500.603000", "183500.606000", "183500.608000", "183500.611000", "183500.613000", "183540.560000", "183540.563000", "183540.565000", "183540.568000", "183540.570000", "183540.573000", "183540.575000", "183540.578000", "183540.580000", "183540.583000", "183540.585000", "183540.588000", "183540.590000", "183540.593000", "183540.595000", "183540.598000", "183540.600000", "183540.603000", "183540.605000", "183540.608000", "183540.610000", "183540.613000", "183540.615000", "183540.618000", "183540.620000", "183540.623000", "183540.625000", "183620.563000", "183620.565000", "183620.568000", "183620.570000", "183620.573000", "183620.575000", "183620.578000", "183620.581000", "183620.583000", "183620.586000", "183620.588000", "183620.591000", "183620.593000", "183620.595000", "183620.598000", "183620.601000", "183620.603000", "183620.606000", "183620.608000", "183620.610000", "183620.613000", "183620.615000", "183620.618000", "183620.621000", "183620.623000", "183620.626000", "183620.628000", "183700.565000", "183700.568000", "183700.571000", "183700.573000", "183700.576000", "183700.578000", "183700.581000", "183700.583000", "183700.586000", "183700.588000", "183700.591000", "183700.593000", "183700.596000", "183700.598000", "183700.601000", "183700.603000", "183700.606000", "183700.608000", "183700.611000", "183700.613000", "183700.616000", "183700.618000", "183700.621000", "183700.623000", "183700.626000", "183700.628000", "183700.631000", "183740.546000", "183740.549000", "183740.552000", "183740.554000", "183740.557000", "183740.559000", "183740.562000", "183740.564000", "183740.567000", "183740.569000", "183740.572000", "183740.574000", "183740.577000", "183740.579000", "183740.582000", "183740.584000", "183740.587000", "183740.589000", "183740.592000", "183740.594000", "183740.597000", "183740.599000", "183740.602000", "183740.604000", "183740.607000", "183740.610000", "183740.612000", "183817.172000", "183817.175000", "183817.177000", "183817.180000", "183817.182000", "183817.185000", "183817.187000", "183817.190000", "183817.192000", "183817.195000", "183817.197000", "183817.200000", "183817.202000", "183817.205000", "183817.208000", "183817.210000", "183817.213000", "183817.215000", "183817.218000", "183817.220000", "183817.223000", "183817.225000", "183817.228000", "183817.230000"],
