{
  "AcquisitionMatrixPE": 104,
  "AcquisitionNumber": 1,
  "AcquisitionTime": "18:12:2.015000",
  "BandwidthPerPixelPhaseEncode": 17.17,
  "BaseResolution": 104,
  "BodyPartExamined": "BRAIN",
  "CoilString": "HC1-7;NC1_2",
  "ConsistencyInfo": "N4_VE11C_LATEST_20160120",
  "ConversionSoftware": "dcm2niix",
  "ConversionSoftwareVersion": "v1.0.20190902",
  "DerivedVendorReportedEchoSpacing": 0.000560011,
  "DeviceSerialNumber": "167006",
  "DwellTime": 2.1e-06,
  "EchoTime": 0.037,
  "EchoTrainLength": 104,
  "EffectiveEchoSpacing": 0.000560011,
  "FlipAngle": 52,
  "HeudiconvVersion": "0.10.0",
  "ImageComments": "Unaliased_MB4_PE3_LB",
  "ImageOrientationPatientDICOM": [0.999418, -0.00479921, 0.0337711, 0.0130831, 0.968266, -0.24958],
  "ImageType": [
    "ORIGINAL",
    "PRIMARY",
    "P",
    "MB",
    "ND",
    "MOSAIC"
],
  "ImagingFrequency": 123.259,
  "InPlanePhaseEncodingDirectionDICOM": "COL",
  "InstitutionAddress": "Chemin_Queen-Mary_4565_Montreal_District_CA_H3W_1W5",
  "InstitutionName": "IUGM",
  "InstitutionalDepartmentName": "Department",
  "MRAcquisitionType": "2D",
  "MagneticFieldStrength": 3,
  "Manufacturer": "Siemens",
  "ManufacturersModelName": "Prisma_fit",
  "Modality": "MR",
  "MultibandAccelerationFactor": 4,
  "PartialFourier": 1,
  "PatientPosition": "HFS",
  "PercentPhaseFOV": 100,
  "PhaseEncodingDirection": "j",
  "PhaseEncodingSteps": 104,
  "PhaseResolution": 1,
  "PixelBandwidth": 2290,
  "ProcedureStepDescription": "games_mario",
  "ProtocolName": "func_task-mario_run-01",
  "PulseSequenceDetails": "%CustomerSeq%_cmrr_mbep2d_bold",
  "ReceiveCoilActiveElements": "HC1-7;NC1,2",
  "ReceiveCoilName": "HeadNeck_64",
  "ReconMatrixPE": 104,
  "RepetitionTime": 1.49,
  "SAR": 0.0342025,
  "ScanOptions": "FS",
  "ScanningSequence": "EP",
  "SequenceName": "epfid2d1_104",
  "SequenceVariant": "SK_SS",
  "SeriesDescription": "func_task-mario_run-01",
  "SeriesNumber": 12,
  "ShimSetting": [647, -7223, -8720, 701, 63, -17, 88, -24],
  "SliceThickness": 2,
  "SliceTiming": [0, 0.7825, 0.0975, 0.8825, 0.195, 0.98, 0.2925, 1.0775, 0.3925, 1.175, 0.49, 1.2725, 0.5875, 1.3725, 0.685, 0, 0.7825, 0.0975, 0.8825, 0.195, 0.98, 0.2925, 1.0775, 0.3925, 1.175, 0.49, 1.2725, 0.5875, 1.3725, 0.685, 0, 0.7825, 0.0975, 0.8825, 0.195, 0.98, 0.2925, 1.0775, 0.3925, 1.175, 0.49, 1.2725, 0.5875, 1.3725, 0.685, 0, 0.7825, 0.0975, 0.8825, 0.195, 0.98, 0.2925, 1.0775, 0.3925, 1.175, 0.49, 1.2725, 0.5875, 1.3725, 0.685],
  "SoftwareVersions": "syngo_MR_E11",
  "SpacingBetweenSlices": 2,
  "StationName": "MRC35049",
  "TaskName": "mario",
  "TotalReadoutTime": 0.0576811,
  "TxRefAmp": 213.809,
  "WipMemBlock": "719614f9-afb9-4c84-93ad-1f8941b112a8||Sequence: R016 ve11c/master r/e634e98; Dec 19 2017 11:00:25 by eja",
  "dcmmeta_affine": [
    [-1.9988361597061157, 0.026166247203946114, 0.06300311535596848, 105.47642517089844],
    [0.009598429314792156, 1.9365313053131104, -0.4997541308403015, -75.625732421875],
    [0.06754210591316223, 0.4991609454154968, 1.9355299472808838, -46.82542037963867],
    [0.0, 0.0, 0.0, 1.0]
],
  "dcmmeta_reorient_transform": [
    [0.0, -1.0, 0.0, 103.0],
    [1.0, 0.0, 0.0, 0.0],
    [0.0, 0.0, 1.0, 0.0],
    [0.0, 0.0, 0.0, 1.0]
],
  "dcmmeta_shape": [104, 104, 60, 474],
  "dcmmeta_slice_dim": 2,
  "dcmmeta_version": 0.6,
  "global": {
    "const": {
      "AcquisitionMatrix": [104, 0, 0, 104],
      "AngioFlag": "N",
      "BitsAllocated": 16,
      "BitsStored": 16,
      "BodyPartExamined": "BRAIN",
      "Columns": 832,
      "EchoNumbers": 1,
      "EchoTime": 37.0,
      "EchoTrainLength": 104,
      "FlipAngle": 52.0,
      "HighBit": 15,
      "ImageOrientationPatient": [0.99941807249715, -0.0047992145687, 0.03377105129552, 0.01308312326188, 0.96826567494062, -0.2495804772363],
      "ImagePositionPatient": [-845.27241620864, -825.24057726823, 161.69742050162],
      "ImageType": [
        "ORIGINAL",
        "PRIMARY",
        "P",
        "MB",
        "ND",
        "MOSAIC"
],
      "ImagedNucleus": "1H",
      "ImagingFrequency": 123.258881,
      "InPlanePhaseEncodingDirection": "COL",
      "LargestImagePixelValue": 4095,
      "MRAcquisitionType": "2D",
      "MagneticFieldStrength": 3.0,
      "Manufacturer": "SIEMENS",
      "ManufacturerModelName": "Prisma_fit",
      "Modality": "MR",
      "NumberOfAverages": 1.0,
      "NumberOfPhaseEncodingSteps": 104,
      "PercentPhaseFieldOfView": 100.0,
      "PercentSampling": 100.0,
      "PerformedProcedureStepStartTime": "174407.474000",
      "PhotometricInterpretation": "MONOCHROME2",
      "PixelBandwidth": 2290.0,
      "PixelRepresentation": 0,
      "PixelSpacing": [2.0, 2.0],
      "ProtocolName": "func_task-mario_run-01",
      "RepetitionTime": 1490.0,
      "RescaleIntercept": -4096.0,
      "RescaleSlope": 2.0,
      "RescaleType": "US",
      "Rows": 832,
      "SAR": 0.03420247800571,
      "SamplesPerPixel": 1,
      "ScanOptions": "FS",
      "ScanningSequence": "EP",
      "SequenceName": "epfid2d1_104",
      "SequenceVariant": [
        "SK",
        "SS"
],
      "SeriesDescription": "func_task-mario_run-01",
      "SeriesNumber": 12,
      "SeriesTime": "181330.947000",
      "SliceLocation": -23.096193757777,
      "SliceThickness": 2.0,
      "SmallestImagePixelValue": 0,
      "SoftwareVersions": "syngo MR E11",
      "SpacingBetweenSlices": 1.9999999929102,
      "SpecificCharacterSet": "ISO_IR 100",
      "StudyID": "1",
      "StudyTime": "174407.408000",
      "TransmitCoilName": "Body",
      "VariableFlipAngleFlag": "N",
      "WindowCenterWidthExplanation": "Algo1",
      "dBdt": 0.0},
    "slices": {}
  },
  "time": {
    "samples": {
      "AcquisitionNumber": [1, 2, 3, 4, 5, 6, 7, 8, 9, 10, 11, 12, 13, 14, 15, 16, 17, 18, 19, 20, 21, 22, 23, 24, 25, 26, 27, 28, 29, 30, 31, 32, 33, 34, 35, 36, 37, 38, 39, 40, 41, 42, 43, 44, 45, 46, 47, 48, 49, 50, 51, 52, 53, 54, 55, 56, 57, 58, 59, 60, 61, 62, 63, 64, 65, 66, 67, 68, 69, 70, 71, 72, 73, 74, 75, 76, 77, 78, 79, 80, 81, 82, 83, 84, 85, 86, 87, 88, 89, 90, 91, 92, 93, 94, 95, 96, 97, 98, 99, 100, 101, 102, 103, 104, 105, 106, 107, 108, 109, 110, 111, 112, 113, 114, 115, 116, 117, 118, 119, 120, 121, 122, 123, 124, 125, 126, 127, 128, 129, 130, 131, 132, 133, 134, 135, 136, 137, 138, 139, 140, 141, 142, 143, 144, 145, 146, 147, 148, 149, 150, 151, 152, 153, 154, 155, 156, 157, 158, 159, 160, 161, 162, 163, 164, 165, 166, 167, 168, 169, 170, 171, 172, 173, 174, 175, 176, 177, 178, 179, 180, 181, 182, 183, 184, 185, 186, 187, 188, 189, 190, 191, 192, 193, 194, 195, 196, 197, 198, 199, 200, 201, 202, 203, 204, 205, 206, 207, 208, 209, 210, 211, 212, 213, 214, 215, 216, 217, 218, 219, 220, 221, 222, 223, 224, 225, 226, 227, 228, 229, 230, 231, 232, 233, 234, 235, 236, 237, 238, 239, 240, 241, 242, 243, 244, 245, 246, 247, 248, 249, 250, 251, 252, 253, 254, 255, 256, 257, 258, 259, 260, 261, 262, 263, 264, 265, 266, 267, 268, 269, 270, 271, 272, 273, 274, 275, 276, 277, 278, 279, 280, 281, 282, 283, 284, 285, 286, 287, 288, 289, 290, 291, 292, 293, 294, 295, 296, 297, 298, 299, 300, 301, 302, 303, 304, 305, 306, 307, 308, 309, 310, 311, 312, 313, 314, 315, 316, 317, 318, 319, 320, 321, 322, 323, 324, 325, 326, 327, 328, 329, 330, 331, 332, 333, 334, 335, 336, 337, 338, 339, 340, 341, 342, 343, 344, 345, 346, 347, 348, 349, 350, 351, 352, 353, 354, 355, 356, 357, 358, 359, 360, 361, 362, 363, 364, 365, 366, 367, 368, 369, 370, 371, 372, 373, 374, 375, 376, 377, 378, 379, 380, 381, 382, 383, 384, 385, 386, 387, 388, 389, 390, 391, 392, 393, 394, 395, 396, 397, 398, 399, 400, 401, 402, 403, 404, 405, 406, 407, 408, 409, 410, 411, 412, 413, 414, 415, 416, 417, 418, 419, 420, 421, 422, 423, 424, 425, 426, 427, 428, 429, 430, 431, 432, 433, 434, 435, 436, 437, 438, 439, 440, 441, 442, 443, 444, 445, 446, 447, 448, 449, 450, 451, 452, 453, 454, 455, 456, 457, 458, 459, 460, 461, 462, 463, 464, 465, 466, 467, 468, 469, 470, 471, 472, 473, 474],
      "AcquisitionTime": ["181202.015000", "181203.505000", "181204.995000", "181206.485000", "181207.975000", "181209.465000", "181210.955000", "181212.445000", "181213.935000", "181215.425000", "181216.915000", "181218.405000", "181219.895000", "181221.385000", "181222.875000", "181224.365000", "181225.855000", "181227.345000", "181228.835000", "181230.325000", "181231.815000", "181233.305000", "181234.795000", "181236.285000", "181237.775000", "181239.265000", "181240.755000", "181242.245000", "181243.735000", "181245.225000", "181246.715000", "181248.205000", "181249.695000", "181251.185000", "181252.675000", "181254.165000", "181255.655000", "181257.145000", "181258.635000", "181300.125000", "181301.615000", "181303.105000", "181304.595000", "181306.085000", "181307.575000", "181309.065000", "181310.555000", "181312.045000", "181313.535000", "181315.025000", "181316.515000", "181318.005000", "181319.495000", "181320.985000", "181322.475000", "181323.965000", "181325.455000", "181326.945000", "181328.435000", "181329.925000", "181331.415000", "181332.905000", "181334.395000", "181335.885000", "181337.375000", "181338.865000", "181340.355000", "181341.845000", "181343.335000", "181344.825000", "181346.315000", "181347.805000", "181349.295000", "181350.785000", "181352.275000", "181353.765000", "181355.255000", "181356.745000", "181358.235000", "181359.725000", "181401.215000", "181402.705000", "181404.195000", "181405.685000", "181407.175000", "181408.665000", "181410.155000", "181411.645000", "181413.135000", "181414.625000", "181416.115000", "181417.605000", "181419.095000", "181420.585000", "181422.075000", "181423.565000", "181425.055000", "181426.545000", "181428.035000", "181429.525000", "181431.015000", "181432.505000", "181433.995000", "181435.485000", "181436.975000", "181438.465000", "181439.955000", "181441.445000", "181442.935000", "181444.425000", "181445.915000", "181447.405000", "181448.895000", "181450.385000", "181451.875000", "181453.365000", "181454.855000", "181456.345000", "181457.835000", "181459.325000", "181500.815000", "181502.305000", "181503.795000", "181505.285000", "181506.775000", "181508.265000", "181509.755000", "181511.245000", "181512.735000", "181514.225000", "181515.715000", "181517.205000", "181518.695000", "181520.185000", "181521.675000", "181523.165000", "181524.655000", "181526.145000", "181527.635000", "181529.125000", "181530.615000", "181532.105000", "181533.595000", "181535.085000", "181536.575000", "181538.065000", "181539.555000", "181541.045000", "181542.535000", "181544.025000", "181545.515000", "181547.005000", "181548.495000", "181549.985000", "181551.475000", "181552.965000", "181554.455000", "181555.945000", "181557.435000", "181558.925000", "181600.415000", "181601.905000", "181603.395000", "181604.885000", "181606.375000", "181607.865000", "181609.355000", "181610.845000", "181612.335000", "181613.825000", "181615.315000", "181616.805000", "181618.295000", "181619.785000", "181621.275000", "181622.765000", "181624.255000", "181625.745000", "181627.235000", "181628.725000", "181630.215000", "181631.705000", "181633.195000", "181634.685000", "181636.175000", "181637.665000", "181639.155000", "181640.645000", "181642.135000", "181643.625000", "181645.115000", "181646.605000", "181648.095000", "181649.585000", "181651.075000", "181652.565000", "181654.055000", "181655.545000", "181657.035000", "181658.525000", "181700.015000", "181701.505000", "181702.995000", "181704.485000", "181705.975000", "181707.465000", "181708.955000", "181710.445000", "181711.935000", "181713.425000", "181714.915000", "181716.405000", "181717.895000", "181719.385000", "181720.875000", "181722.365000", "181723.855000", "181725.345000", "181726.835000", "181728.325000", "181729.815000", "181731.305000", "181732.795000", "181734.285000", "181735.775000", "181737.265000", "181738.755000", "181740.245000", "181741.735000", "181743.225000", "181744.715000", "181746.205000", "181747.695000", "181749.185000", "181750.675000", "181752.165000", "181753.655000", "181755.145000", "181756.635000", "181758.125000", "181759.615000", "181801.105000", "181802.595000", "181804.085000", "181805.575000", "181807.065000", "181808.555000", "181810.045000", "181811.535000", "181813.025000", "181814.515000", "181816.005000", "181817.495000", "181818.985000", "181820.475000", "181821.965000", "181823.455000", "181824.945000", "181826.435000", "181827.925000", "181829.415000", "181830.905000", "181832.395000", "181833.885000", "181835.375000", "181836.865000", "181838.355000", "181839.845000", "181841.335000", "181842.825000", "181844.315000", "181845.805000", "181847.295000", "181848.785000", "181850.275000", "181851.765000", "181853.255000", "181854.745000", "181856.235000", "181857.725000", "181859.215000", "181900.705000", "181902.195000", "181903.685000", "181905.175000", "181906.665000", "181908.155000", "181909.645000", "181911.135000", "181912.625000", "181914.115000", "181915.605000", "181917.095000", "181918.585000", "181920.075000", "181921.565000", "181923.055000", "181924.545000", "181926.035000", "181927.525000", "181929.015000", "181930.505000", "181931.995000", "181933.485000", "181934.975000", "181936.465000", "181937.955000", "181939.445000", "181940.935000", "181942.425000", "181943.915000", "181945.405000", "181946.895000", "181948.385000", "181949.875000", "181951.365000", "181952.855000", "181954.345000", "181955.835000", "181957.325000", "181958.815000", "182000.305000", "182001.795000", "182003.285000", "182004.775000", "182006.265000", "182007.755000", "182009.245000", "182010.735000", "182012.225000", "182013.715000", "182015.205000", "182016.695000", "182018.185000", "182019.675000", "182021.165000", "182022.655000", "182024.145000", "182025.635000", "182027.125000", "182028.615000", "182030.105000", "182031.595000", "182033.085000", "182034.575000", "182036.065000", "182037.555000", "182039.045000", "182040.535000", "182042.025000", "182043.515000", "182045.005000", "182046.495000", "182047.985000", "182049.475000", "182050.965000", "182052.455000", "182053.945000", "182055.435000", "182056.925000", "182058.415000", "182059.905000", "182101.395000", "182102.885000", "182104.375000", "182105.865000", "182107.355000", "182108.845000", "182110.335000", "182111.825000", "182113.315000", "182114.805000", "182116.295000", "182117.785000", "182119.275000", "182120.765000", "182122.255000", "182123.745000", "182125.235000", "182126.725000", "182128.215000", "182129.705000", "182131.195000", "182132.685000", "182134.175000", "182135.665000", "182137.155000", "182138.645000", "182140.135000", "182141.625000", "182143.115000", "182144.605000", "182146.095000", "182147.585000", "182149.075000", "182150.565000", "182152.055000", "182153.545000", "182155.035000", "182156.525000", "182158.015000", "182159.505000", "182200.995000", "182202.485000", "182203.975000", "182205.465000", "182206.955000", "182208.445000", "182209.935000", "182211.425000", "182212.915000", "182214.405000", "182215.895000", "182217.385000", "182218.875000", "182220.365000", "182221.855000", "182223.345000", "182224.835000", "182226.325000", "182227.815000", "182229.305000", "182230.795000", "182232.285000", "182233.775000", "182235.265000", "182236.755000", "182238.245000", "182239.735000", "182241.225000", "182242.715000", "182244.205000", "182245.695000", "182247.185000", "182248.675000", "182250.165000", "182251.655000", "182253.145000", "182254.635000", "182256.125000", "182257.615000", "182259.105000", "182300.595000", "182302.085000", "182303.575000", "182305.065000", "182306.555000", "182308.045000", "182309.535000", "182311.025000", "182312.515000", "182314.005000", "182315.495000", "182316.985000", "182318.475000", "182319.965000", "182321.455000", "182322.945000", "182324.435000", "182325.925000", "182327.415000", "182328.905000", "182330.395000", "182331.885000", "182333.375000", "182334.865000", "182336.355000", "182337.845000", "182339.335000", "182340.825000", "182342.315000", "182343.805000", "182345.295000", "182346.785000"],
      "ContentTime": ["181330.949000", "181330.952000", "181330.962000", "181330.965000", "181330.967000", "181330.970000", "181330.972000", "181330.975000", "181330.977000", "181330.980000", "181330.982000", "181330.985000", "181330.987000", "181330.990000", "181330.992000", "181330.995000", "181330.997000", "181331.001000", "181331.003000", "181331.006000", "181331.008000", "181331.010000", "181331.013000", "181331.015000", "181331.018000", "181331.020000", "181331.023000", "181331.025000", "181331.028000", "181331.030000", "181331.033000", "181410.940000", "181410.943000", "181410.945000", "181410.948000", "181410.950000", "181410.953000", "181410.955000", "181410.958000", "181410.960000", "181410.963000", "181410.965000", "181410.968000", "181410.970000", "181410.973000", "181410.975000", "181410.978000", "181410.980000", "181410.983000", "181410.985000", "181410.988000", "181410.990000", "181410.993000", "181410.995000", "181410.998000", "181411.001000", "181411.004000", "181411.006000", "181411.009000", "181411.011000", "181411.014000", "181411.016000", "181411.019000", "181411.021000", "181411.024000", "181411.026000", "181411.029000", "181411.031000", "181411.034000", "181411.036000", "181411.039000", "181430.875000", "181430.878000", "181430.881000", "181430.883000", "181430.886000", "181430.888000", "181430.891000", "181430.893000", "181430.896000", "181430.898000", "181430.901000", "181430.903000", "181430.906000", "181430.909000", "181430.911000", "181430.914000", "181430.916000", "181430.919000", "181430.921000", "181430.924000", "181450.874000", "181450.877000", "181450.880000", "181450.882000", "181450.885000", "181450.887000", "181450.890000", "181450.892000", "181450.895000", "181450.898000", "181450.901000", "181450.903000", "181450.906000", "181450.910000", "181450.913000", "181450.917000", "181450.919000", "181450.922000", "181450.924000", "181450.927000", "181530.912000", "181530.914000", "181530.917000", "181530.919000", "181530.922000", "181530.924000", "181530.927000", "181530.929000", "181530.932000", "181530.934000", "181530.937000", "181530.939000", "181530.942000", "181530.946000", "181530.948000", "181530.951000", "181530.953000", "181530.956000", "181530.958000", "181530.961000", "181530.963000", "181530.966000", "181530.968000", "181530.971000", "181530.973000", "181530.976000", "181530.978000", "181530.981000", "181610.891000", "181610.893000", "181610.896000", "181610.898000", "181610.901000", "181610.903000", "181610.906000", "181610.908000", "181610.911000", "181610.913000", "181610.916000", "181610.918000", "181610.921000", "181610.923000", "181610.926000", "181610.928000", "181610.931000", "181610.933000", "181610.936000", "181610.938000", "181610.941000", "181610.943000", "181610.946000", "181610.948000", "181610.951000", "181610.953000", "181610.956000", "181650.909000", "181650.912000", "181650.915000", "181650.917000", "181650.920000", "181650.922000", "181650.925000", "181650.927000", "181650.930000", "181650.932000", "181650.935000", "181650.937000", "181650.940000", "181650.942000", "181650.944000", "181650.947000", "181650.949000", "181650.952000", "181650.955000", "181650.957000", "181650.960000", "181650.962000", "181650.965000", "181650.968000", "181650.970000", "181650.973000", "181650.975000", "181731.231000", "181731.234000", "181731.236000", "181731.239000", "181731.241000", "181731.244000", "181731.246000", "181731.249000", "181731.251000", "181731.253000", "181731.256000", "181731.258000", "181731.261000", "181731.264000", "181731.266000", "181731.268000", "181731.271000", "181731.273000", "181731.276000", "181731.278000", "181731.281000", "181731.284000", "181731.286000", "181731.289000", "181731.291000", "181731.294000", "181731.296000", "181810.903000", "181810.906000", "181810.909000", "181810.911000", "181810.914000", "181810.916000", "181810.919000", "181810.922000", "181810.924000", "181810.927000", "181810.929000", "181810.932000", "181810.934000", "181810.937000", "181810.939000", "181810.942000", "181810.944000", "181810.947000", "181810.949000", "181810.958000", "181810.961000", "181810.963000", "181810.966000", "181810.968000", "181810.971000", "181810.973000", "181810.976000", "181850.916000", "181850.919000", "181850.921000", "181850.924000", "181850.926000", "181850.929000", "181850.931000", "181850.934000", "181850.936000", "181850.939000", "181850.941000", "181850.944000", "181850.946000", "181850.949000", "181850.951000", "181850.954000", "181850.956000", "181850.959000", "181850.961000", "181850.964000", "181850.966000", "181850.969000", "181850.972000", "181850.974000", "181850.977000", "181850.979000", "181930.890000", "181930.892000", "181930.895000", "181930.897000", "181930.900000", "181930.902000", "181930.905000", "181930.907000", "181930.910000", "181930.912000", "181930.915000", "181930.917000", "181930.920000", "181930.922000", "181930.925000", "181930.927000", "181930.930000", "181930.932000", "181930.935000", "181930.937000", "181930.940000", "181930.942000", "181930.945000", "181930.948000", "181930.952000", "181930.954000", "181930.957000", "182010.893000", "182010.895000", "182010.898000", "182010.900000", "182010.903000", "182010.905000", "182010.908000", "182010.910000", "182010.913000", "182010.916000", "182010.918000", "182010.921000", "182010.923000", "182010.926000", "182010.928000", "182010.931000", "182010.933000", "182010.936000", "182010.939000", "182010.941000", "182010.944000", "182010.946000", "182010.949000", "182010.951000", "182010.954000", "182010.956000", "182010.959000", "182050.895000", "182050.898000", "182050.900000", "182050.903000", "182050.905000", "182050.908000", "182050.910000", "182050.913000", "182050.915000", "182050.918000", "182050.920000", "182050.923000", "182050.925000", "182050.928000", "182050.930000", "182050.933000", "182050.935000", "182050.938000", "182050.940000", "182050.943000", "182050.945000", "182050.948000", "182050.950000", "182050.953000", "182050.955000", "182050.958000", "182050.960000", "182130.886000", "182130.889000", "182130.891000", "182130.894000", "182130.896000", "182130.899000", "182130.901000", "182130.904000", "182130.906000", "182130.909000", "182130.911000", "182130.914000", "182130.916000", "182130.919000", "182130.921000", "182130.924000", "182130.926000", "182130.929000", "182130.931000", "182130.934000", "182130.936000", "182130.939000", "182130.941000", "182130.944000", "182130.946000", "182130.949000", "182130.951000", "182210.894000", "182210.897000", "182210.899000", "182210.902000", "182210.904000", "182210.907000", "182210.909000", "182210.912000", "182210.914000", "182210.917000", "182210.919000", "182210.922000", "182210.924000", "182210.927000", "182210.929000", "182210.932000", "182210.934000", "182210.937000", "182210.939000", "182210.942000", "182210.944000", "182210.947000", "182210.949000", "182210.952000", "182210.954000", "182210.957000", "182210.960000", "182250.890000", "182250.893000", "182250.896000", "182250.898000", "182250.901000", "182250.903000", "182250.906000", "182250.908000", "182250.911000", "182250.913000", "182250.916000", "182250.918000", "182250.921000", "182250.923000", "182250.926000", "182250.928000", "182250.931000", "182250.933000", "182250.936000", "182250.938000", "182250.941000", "182250.943000", "182250.946000", "182250.948000", "182250.951000", "182250.953000", "182250.956000", "182330.927000", "182330.930000", "182330.932000", "182330.935000", "182330.937000", "182330.940000", "182330.942000", "182330.945000", "182330.947000", "182330.950000", "182330.952000", "182330.955000", "182330.957000", "182330.960000", "182330.962000", "182330.965000", "182330.967000", "182330.970000", "182330.972000", "182330.975000", "182330.977000", "182330.980000", "182330.982000", "182330.985000", "182330.987000", "182330.990000", "182349.038000", "182349.041000", "182349.043000", "182349.046000", "182349.048000", "182349.050000", "182349.053000", "182349.055000", "182349.058000", "182349.061000", "182349.063000", "182349.066000", "182349.068000"],
