{
  "AcquisitionMatrixPE": 104,
  "AcquisitionNumber": 1,
  "AcquisitionTime": "14:17:33.052500",
  "BandwidthPerPixelPhaseEncode": 17.17,
  "BaseResolution": 104,
  "BodyPartExamined": "BRAIN",
  "CoilString": "HC1-7;NC1_2",
  "ConsistencyInfo": "N4_VE11C_LATEST_20160120",
  "ConversionSoftware": "dcm2niix",
  "ConversionSoftwareVersion": "v1.0.20190902",
  "DerivedVendorReportedEchoSpacing": 0.000560011,
  "DeviceSerialNumber": "167006",
  "DwellTime": 2.1e-06,
  "EchoTime": 0.037,
  "EchoTrainLength": 104,
  "EffectiveEchoSpacing": 0.000560011,
  "FlipAngle": 52,
  "HeudiconvVersion": "0.10.0",
  "ImageComments": "Unaliased_MB4_PE3_LB",
  "ImageOrientationPatientDICOM": [0.999658, 0.0119491, 0.0232501, 0.00139576, 0.863747, -0.503923],
  "ImageType": [
    "ORIGINAL",
    "PRIMARY",
    "P",
    "MB",
    "ND",
    "MOSAIC"
],
  "ImagingFrequency": 123.259,
  "InPlanePhaseEncodingDirectionDICOM": "COL",
  "InstitutionAddress": "Chemin_Queen-Mary_4565_Montreal_District_CA_H3W_1W5",
  "InstitutionName": "IUGM",
  "InstitutionalDepartmentName": "Department",
  "MRAcquisitionType": "2D",
  "MagneticFieldStrength": 3,
  "Manufacturer": "Siemens",
  "ManufacturersModelName": "Prisma_fit",
  "Modality": "MR",
  "MultibandAccelerationFactor": 4,
  "PartialFourier": 1,
  "PatientPosition": "HFS",
  "PercentPhaseFOV": 100,
  "PhaseEncodingDirection": "j",
  "PhaseEncodingSteps": 104,
  "PhaseResolution": 1,
  "PixelBandwidth": 2290,
  "ProcedureStepDescription": "games_mario",
  "ProtocolName": "func_task-mario_run-03",
  "PulseSequenceDetails": "%CustomerSeq%_cmrr_mbep2d_bold",
  "ReceiveCoilActiveElements": "HC1-7;NC1,2",
  "ReceiveCoilName": "HeadNeck_64",
  "ReconMatrixPE": 104,
  "RepetitionTime": 1.49,
  "SAR": 0.0604176,
  "ScanOptions": "FS",
  "ScanningSequence": "EP",
  "SequenceName": "epfid2d1_104",
  "SequenceVariant": "SK_SS",
  "SeriesDescription": "func_task-mario_run-03",
  "SeriesNumber": 17,
  "ShimSetting": [618, -7177, -8860, 300, 2, -155, -32, -26],
  "SliceThickness": 2,
  "SliceTiming": [0, 0.785, 0.0975, 0.8825, 0.195, 0.98, 0.295, 1.0775, 0.3925, 1.175, 0.49, 1.275, 0.5875, 1.3725, 0.685, 0, 0.785, 0.0975, 0.8825, 0.195, 0.98, 0.295, 1.0775, 0.3925, 1.175, 0.49, 1.275, 0.5875, 1.3725, 0.685, 0, 0.785, 0.0975, 0.8825, 0.195, 0.98, 0.295, 1.0775, 0.3925, 1.175, 0.49, 1.275, 0.5875, 1.3725, 0.685, 0, 0.785, 0.0975, 0.8825, 0.195, 0.98, 0.295, 1.0775, 0.3925, 1.175, 0.49, 1.275, 0.5875, 1.3725, 0.685],
  "SoftwareVersions": "syngo_MR_E11",
  "SpacingBetweenSlices": 2,
  "StationName": "MRC35049",
  "TaskName": "mario",
  "TotalReadoutTime": 0.0576811,
  "TxRefAmp": 291.612,
  "WipMemBlock": "9ac45b1b-7d4a-4a9d-bb52-aa2e698fc8bb||Sequence: R016 ve11c/master r/e634e98; Dec 19 2017 11:00:25 by eja",
  "dcmmeta_affine": [
    [-1.9993165731430054, 0.002791517646983266, 0.05220726504921913, 105.68477630615234],
    [-0.02389814890921116, 1.7274948358535767, -1.0075665712356567, -51.108299255371094],
    [0.04650021344423294, 1.0078461170196533, 1.726871132850647, -97.93193817138672],
    [0.0, 0.0, 0.0, 1.0]
],
  "dcmmeta_reorient_transform": [
    [0.0, -1.0, 0.0, 103.0],
    [1.0, 0.0, 0.0, 0.0],
    [0.0, 0.0, 1.0, 0.0],
    [0.0, 0.0, 0.0, 1.0]
],
  "dcmmeta_shape": [104, 104, 60, 483],
  "dcmmeta_slice_dim": 2,
  "dcmmeta_version": 0.6,
  "global": {
    "const": {
      "AcquisitionMatrix": [104, 0, 0, 104],
      "AngioFlag": "N",
      "BitsAllocated": 16,
      "BitsStored": 16,
      "BodyPartExamined": "BRAIN",
      "Columns": 832,
      "EchoNumbers": 1,
      "EchoTime": 37.0,
      "EchoTrainLength": 104,
      "FlipAngle": 52.0,
      "HighBit": 15,
      "ImageOrientationPatient": [0.99965826770287, 0.01194907445747, 0.02325010608393, 0.00139575885641, 0.86374742760655, -0.5039230428947],
      "ImagePositionPatient": [-834.73963196301, -764.33072567918, 355.80610626595],
      "ImageType": [
        "ORIGINAL",
        "PRIMARY",
        "P",
        "MB",
        "ND",
        "MOSAIC"
],
      "ImagedNucleus": "1H",
      "ImagingFrequency": 123.258926,
      "InPlanePhaseEncodingDirection": "COL",
      "LargestImagePixelValue": 4095,
      "MRAcquisitionType": "2D",
      "MagneticFieldStrength": 3.0,
      "Manufacturer": "SIEMENS",
      "ManufacturerModelName": "Prisma_fit",
      "Modality": "MR",
      "NumberOfAverages": 1.0,
      "NumberOfPhaseEncodingSteps": 104,
      "PercentPhaseFieldOfView": 100.0,
      "PercentSampling": 100.0,
      "PerformedProcedureStepStartTime": "132141.013000",
      "PhotometricInterpretation": "MONOCHROME2",
      "PixelBandwidth": 2290.0,
      "PixelRepresentation": 0,
      "PixelSpacing": [2.0, 2.0],
      "ProtocolName": "func_task-mario_run-03",
      "RepetitionTime": 1490.0,
      "RescaleIntercept": -4096.0,
      "RescaleSlope": 2.0,
      "RescaleType": "US",
      "Rows": 832,
      "SAR": 0.06041759451132,
      "SamplesPerPixel": 1,
      "ScanOptions": "FS",
      "ScanningSequence": "EP",
      "SequenceName": "epfid2d1_104",
      "SequenceVariant": [
        "SK",
        "SS"
],
      "SeriesDescription": "func_task-mario_run-03",
      "SeriesNumber": 17,
      "SeriesTime": "141843.240000",
      "SliceLocation": -56.051657159206,
      "SliceThickness": 2.0,
      "SmallestImagePixelValue": 0,
      "SoftwareVersions": "syngo MR E11",
      "SpacingBetweenSlices": 1.9999999941911,
      "SpecificCharacterSet": "ISO_IR 100",
      "StudyID": "1",
      "StudyTime": "132140.882000",
      "TransmitCoilName": "Body",
      "VariableFlipAngleFlag": "N",
      "WindowCenterWidthExplanation": "Algo1",
      "dBdt": 0.0},
    "slices": {}
  },
  "time": {
    "samples": {
      "AcquisitionNumber": [1, 2, 3, 4, 5, 6, 7, 8, 9, 10, 11, 12, 13, 14, 15, 16, 17, 18, 19, 20, 21, 22, 23, 24, 25, 26, 27, 28, 29, 30, 31, 32, 33, 34, 35, 36, 37, 38, 39, 40, 41, 42, 43, 44, 45, 46, 47, 48, 49, 50, 51, 52, 53, 54, 55, 56, 57, 58, 59, 60, 61, 62, 63, 64, 65, 66, 67, 68, 69, 70, 71, 72, 73, 74, 75, 76, 77, 78, 79, 80, 81, 82, 83, 84, 85, 86, 87, 88, 89, 90, 91, 92, 93, 94, 95, 96, 97, 98, 99, 100, 101, 102, 103, 104, 105, 106, 107, 108, 109, 110, 111, 112, 113, 114, 115, 116, 117, 118, 119, 120, 121, 122, 123, 124, 125, 126, 127, 128, 129, 130, 131, 132, 133, 134, 135, 136, 137, 138, 139, 140, 141, 142, 143, 144, 145, 146, 147, 148, 149, 150, 151, 152, 153, 154, 155, 156, 157, 158, 159, 160, 161, 162, 163, 164, 165, 166, 167, 168, 169, 170, 171, 172, 173, 174, 175, 176, 177, 178, 179, 180, 181, 182, 183, 184, 185, 186, 187, 188, 189, 190, 191, 192, 193, 194, 195, 196, 197, 198, 199, 200, 201, 202, 203, 204, 205, 206, 207, 208, 209, 210, 211, 212, 213, 214, 215, 216, 217, 218, 219, 220, 221, 222, 223, 224, 225, 226, 227, 228, 229, 230, 231, 232, 233, 234, 235, 236, 237, 238, 239, 240, 241, 242, 243, 244, 245, 246, 247, 248, 249, 250, 251, 252, 253, 254, 255, 256, 257, 258, 259, 260, 261, 262, 263, 264, 265, 266, 267, 268, 269, 270, 271, 272, 273, 274, 275, 276, 277, 278, 279, 280, 281, 282, 283, 284, 285, 286, 287, 288, 289, 290, 291, 292, 293, 294, 295, 296, 297, 298, 299, 300, 301, 302, 303, 304, 305, 306, 307, 308, 309, 310, 311, 312, 313, 314, 315, 316, 317, 318, 319, 320, 321, 322, 323, 324, 325, 326, 327, 328, 329, 330, 331, 332, 333, 334, 335, 336, 337, 338, 339, 340, 341, 342, 343, 344, 345, 346, 347, 348, 349, 350, 351, 352, 353, 354, 355, 356, 357, 358, 359, 360, 361, 362, 363, 364, 365, 366, 367, 368, 369, 370, 371, 372, 373, 374, 375, 376, 377, 378, 379, 380, 381, 382, 383, 384, 385, 386, 387, 388, 389, 390, 391, 392, 393, 394, 395, 396, 397, 398, 399, 400, 401, 402, 403, 404, 405, 406, 407, 408, 409, 410, 411, 412, 413, 414, 415, 416, 417, 418, 419, 420, 421, 422, 423, 424, 425, 426, 427, 428, 429, 430, 431, 432, 433, 434, 435, 436, 437, 438, 439, 440, 441, 442, 443, 444, 445, 446, 447, 448, 449, 450, 451, 452, 453, 454, 455, 456, 457, 458, 459, 460, 461, 462, 463, 464, 465, 466, 467, 468, 469, 470, 471, 472, 473, 474, 475, 476, 477, 478, 479, 480, 481, 482, 483],
      "AcquisitionTime": ["141733.052500", "141734.542500", "141736.032500", "141737.522500", "141739.012500", "141740.502500", "141741.992500", "141743.482500", "141744.972500", "141746.462500", "141747.952500", "141749.442500", "141750.932500", "141752.422500", "141753.912500", "141755.402500", "141756.892500", "141758.382500", "141759.872500", "141801.362500", "141802.852500", "141804.342500", "141805.832500", "141807.322500", "141808.812500", "141810.302500", "141811.792500", "141813.282500", "141814.772500", "141816.262500", "141817.752500", "141819.242500", "141820.732500", "141822.222500", "141823.712500", "141825.202500", "141826.692500", "141828.182500", "141829.672500", "141831.162500", "141832.652500", "141834.142500", "141835.632500", "141837.122500", "141838.612500", "141840.102500", "141841.592500", "141843.082500", "141844.572500", "141846.062500", "141847.552500", "141849.042500", "141850.532500", "141852.022500", "141853.512500", "141855.002500", "141856.492500", "141857.982500", "141859.472500", "141900.962500", "141902.452500", "141903.942500", "141905.432500", "141906.922500", "141908.412500", "141909.902500", "141911.392500", "141912.882500", "141914.372500", "141915.862500", "141917.352500", "141918.842500", "141920.332500", "141921.822500", "141923.312500", "141924.802500", "141926.292500", "141927.782500", "141929.272500", "141930.762500", "141932.252500", "141933.742500", "141935.232500", "141936.722500", "141938.212500", "141939.702500", "141941.192500", "141942.682500", "141944.172500", "141945.662500", "141947.152500", "141948.642500", "141950.132500", "141951.622500", "141953.112500", "141954.602500", "141956.092500", "141957.582500", "141959.072500", "142000.562500", "142002.052500", "142003.542500", "142005.032500", "142006.522500", "142008.012500", "142009.502500", "142010.992500", "142012.482500", "142013.972500", "142015.462500", "142016.952500", "142018.442500", "142019.932500", "142021.422500", "142022.912500", "142024.402500", "142025.892500", "142027.382500", "142028.872500", "142030.362500", "142031.852500", "142033.342500", "142034.832500", "142036.322500", "142037.812500", "142039.302500", "142040.792500", "142042.282500", "142043.772500", "142045.262500", "142046.752500", "142048.242500", "142049.732500", "142051.222500", "142052.712500", "142054.202500", "142055.692500", "142057.182500", "142058.672500", "142100.162500", "142101.652500", "142103.142500", "142104.632500", "142106.122500", "142107.612500", "142109.102500", "142110.592500", "142112.082500", "142113.572500", "142115.062500", "142116.552500", "142118.042500", "142119.532500", "142121.022500", "142122.512500", "142124.002500", "142125.492500", "142126.982500", "142128.472500", "142129.962500", "142131.452500", "142132.942500", "142134.432500", "142135.922500", "142137.412500", "142138.902500", "142140.392500", "142141.882500", "142143.372500", "142144.862500", "142146.352500", "142147.842500", "142149.332500", "142150.822500", "142152.312500", "142153.802500", "142155.292500", "142156.782500", "142158.272500", "142159.762500", "142201.252500", "142202.742500", "142204.232500", "142205.722500", "142207.212500", "142208.702500", "142210.192500", "142211.682500", "142213.172500", "142214.662500", "142216.152500", "142217.642500", "142219.132500", "142220.622500", "142222.112500", "142223.602500", "142225.092500", "142226.582500", "142228.072500", "142229.562500", "142231.052500", "142232.542500", "142234.032500", "142235.522500", "142237.012500", "142238.502500", "142239.992500", "142241.482500", "142242.972500", "142244.462500", "142245.952500", "142247.442500", "142248.932500", "142250.422500", "142251.912500", "142253.402500", "142254.892500", "142256.382500", "142257.872500", "142259.362500", "142300.852500", "142302.342500", "142303.832500", "142305.322500", "142306.812500", "142308.302500", "142309.792500", "142311.282500", "142312.772500", "142314.262500", "142315.752500", "142317.242500", "142318.732500", "142320.222500", "142321.712500", "142323.202500", "142324.692500", "142326.182500", "142327.672500", "142329.162500", "142330.652500", "142332.142500", "142333.632500", "142335.122500", "142336.612500", "142338.102500", "142339.592500", "142341.082500", "142342.572500", "142344.062500", "142345.552500", "142347.042500", "142348.532500", "142350.022500", "142351.512500", "142353.002500", "142354.492500", "142355.982500", "142357.472500", "142358.962500", "142400.452500", "142401.942500", "142403.432500", "142404.922500", "142406.412500", "142407.902500", "142409.392500", "142410.882500", "142412.372500", "142413.862500", "142415.352500", "142416.842500", "142418.332500", "142419.822500", "142421.312500", "142422.802500", "142424.292500", "142425.782500", "142427.272500", "142428.762500", "142430.252500", "142431.742500", "142433.232500", "142434.722500", "142436.212500", "142437.702500", "142439.192500", "142440.682500", "142442.172500", "142443.662500", "142445.152500", "142446.642500", "142448.132500", "142449.622500", "142451.112500", "142452.602500", "142454.092500", "142455.582500", "142457.072500", "142458.562500", "142500.052500", "142501.542500", "142503.032500", "142504.522500", "142506.012500", "142507.502500", "142508.992500", "142510.482500", "142511.972500", "142513.462500", "142514.952500", "142516.442500", "142517.932500", "142519.422500", "142520.912500", "142522.402500", "142523.892500", "142525.382500", "142526.872500", "142528.362500", "142529.852500", "142531.342500", "142532.832500", "142534.322500", "142535.812500", "142537.302500", "142538.792500", "142540.282500", "142541.772500", "142543.262500", "142544.752500", "142546.242500", "142547.732500", "142549.222500", "142550.712500", "142552.202500", "142553.692500", "142555.182500", "142556.672500", "142558.162500", "142559.652500", "142601.142500", "142602.632500", "142604.122500", "142605.612500", "142607.102500", "142608.592500", "142610.082500", "142611.572500", "142613.062500", "142614.552500", "142616.042500", "142617.532500", "142619.022500", "142620.512500", "142622.002500", "142623.492500", "142624.982500", "142626.472500", "142627.962500", "142629.452500", "142630.942500", "142632.432500", "142633.922500", "142635.412500", "142636.902500", "142638.392500", "142639.882500", "142641.372500", "142642.862500", "142644.352500", "142645.842500", "142647.332500", "142648.822500", "142650.312500", "142651.802500", "142653.292500", "142654.782500", "142656.272500", "142657.762500", "142659.252500", "142700.742500", "142702.232500", "142703.722500", "142705.212500", "142706.702500", "142708.192500", "142709.682500", "142711.172500", "142712.662500", "142714.152500", "142715.642500", "142717.132500", "142718.622500", "142720.112500", "142721.602500", "142723.092500", "142724.582500", "142726.072500", "142727.562500", "142729.052500", "142730.542500", "142732.032500", "142733.522500", "142735.012500", "142736.502500", "142737.992500", "142739.482500", "142740.972500", "142742.462500", "142743.952500", "142745.442500", "142746.932500", "142748.422500", "142749.912500", "142751.402500", "142752.892500", "142754.382500", "142755.872500", "142757.362500", "142758.852500", "142800.342500", "142801.832500", "142803.322500", "142804.812500", "142806.302500", "142807.792500", "142809.282500", "142810.772500", "142812.262500", "142813.752500", "142815.242500", "142816.732500", "142818.222500", "142819.712500", "142821.202500", "142822.692500", "142824.182500", "142825.672500", "142827.162500", "142828.652500", "142830.142500", "142831.632500", "142833.122500", "142834.612500", "142836.102500", "142837.592500", "142839.082500", "142840.572500", "142842.062500", "142843.552500", "142845.042500", "142846.532500", "142848.022500", "142849.512500", "142851.002500", "142852.492500", "142853.982500", "142855.472500", "142856.962500", "142858.452500", "142859.942500", "142901.432500", "142902.922500", "142904.412500", "142905.902500", "142907.392500", "142908.882500", "142910.372500", "142911.862500", "142913.352500", "142914.842500", "142916.332500", "142917.822500", "142919.312500", "142920.802500", "142922.292500", "142923.782500", "142925.272500", "142926.762500", "142928.252500", "142929.742500", "142931.232500"],
      "ContentTime": ["141843.242000", "141843.245000", "141843.247000", "141843.250000", "141843.252000", "141843.258000", "141843.261000", "141843.263000", "141843.265000", "141843.279000", "141843.282000", "141843.284000", "141903.234000", "141903.237000", "141903.239000", "141903.242000", "141903.244000", "141903.247000", "141903.249000", "141903.252000", "141903.254000", "141903.256000", "141903.259000", "141903.265000", "141903.267000", "141903.270000", "141903.272000", "141903.275000", "141903.277000", "141903.280000", "141903.282000", "141903.285000", "141923.245000", "141923.247000", "141923.250000", "141923.252000", "141923.255000", "141923.257000", "141923.259000", "141923.262000", "141923.264000", "141923.267000", "141923.269000", "141923.272000", "141923.274000", "141923.276000", "141923.279000", "141923.281000", "141923.284000", "141923.286000", "141923.289000", "141923.291000", "141943.249000", "141943.252000", "141943.255000", "141943.257000", "141943.259000", "141943.262000", "141943.264000", "141943.267000", "141943.269000", "141943.272000", "141943.274000", "141943.277000", "141943.279000", "141943.281000", "141943.284000", "141943.286000", "141943.289000", "141943.291000", "141943.294000", "141943.296000", "142003.249000", "142003.252000", "142003.254000", "142003.257000", "142003.259000", "142003.262000", "142003.264000", "142003.267000", "142003.269000", "142003.271000", "142003.274000", "142003.276000", "142003.279000", "142003.281000", "142003.284000", "142003.286000", "142003.289000", "142003.291000", "142003.293000", "142003.296000", "142023.248000", "142023.251000", "142023.253000", "142023.256000", "142023.258000", "142023.270000", "142023.272000", "142023.275000", "142023.277000", "142023.280000", "142023.282000", "142023.285000", "142023.287000", "142023.290000", "142023.292000", "142023.295000", "142023.297000", "142023.299000", "142023.302000", "142023.304000", "142103.256000", "142103.258000", "142103.261000", "142103.263000", "142103.266000", "142103.268000", "142103.275000", "142103.278000", "142103.280000", "142103.283000", "142103.285000", "142103.287000", "142103.290000", "142103.292000", "142103.295000", "142103.297000", "142103.300000", "142103.302000", "142103.305000", "142103.307000", "142103.310000", "142103.312000", "142103.315000", "142103.317000", "142103.320000", "142103.322000", "142103.325000", "142103.327000", "142143.754000", "142143.757000", "142143.759000", "142143.762000", "142143.764000", "142143.767000", "142143.769000", "142143.772000", "142143.774000", "142143.777000", "142143.779000", "142143.782000", "142143.784000", "142143.787000", "142143.789000", "142143.791000", "142143.801000", "142143.803000", "142143.806000", "142143.808000", "142143.811000", "142143.813000", "142143.815000", "142143.818000", "142143.820000", "142143.823000", "142143.825000", "142223.249000", "142223.251000", "142223.254000", "142223.256000", "142223.259000", "142223.261000", "142223.264000", "142223.266000", "142223.269000", "142223.271000", "142223.274000", "142223.276000", "142223.279000", "142223.281000", "142223.284000", "142223.286000", "142223.289000", "142223.291000", "142223.294000", "142223.296000", "142223.298000", "142223.301000", "142223.304000", "142223.306000", "142223.308000", "142223.311000", "142223.313000", "142303.262000", "142303.265000", "142303.267000", "142303.270000", "142303.272000", "142303.275000", "142303.277000", "142303.280000", "142303.282000", "142303.285000", "142303.287000", "142303.290000", "142303.292000", "142303.295000", "142303.297000", "142303.300000", "142303.302000", "142303.305000", "142303.307000", "142303.310000", "142303.312000", "142303.315000", "142303.317000", "142303.319000", "142303.322000", "142303.324000", "142303.327000", "142343.268000", "142343.271000", "142343.273000", "142343.276000", "142343.278000", "142343.281000", "142343.283000", "142343.286000", "142343.288000", "142343.291000", "142343.293000", "142343.296000", "142343.298000", "142343.301000", "142343.303000", "142343.306000", "142343.308000", "142343.311000", "142343.313000", "142343.316000", "142343.318000", "142343.321000", "142343.323000", "142343.326000", "142343.328000", "142343.331000", "142343.333000", "142423.270000", "142423.273000", "142423.275000", "142423.278000", "142423.280000", "142423.283000", "142423.285000", "142423.288000", "142423.290000", "142423.293000", "142423.295000", "142423.298000", "142423.300000", "142423.303000", "142423.305000", "142423.308000", "142423.310000", "142423.313000", "142423.315000", "142423.318000", "142423.320000", "142423.323000", "142423.325000", "142423.328000", "142423.330000", "142423.332000", "142503.262000", "142503.265000", "142503.267000", "142503.270000", "142503.272000", "142503.275000", "142503.277000", "142503.280000", "142503.282000", "142503.285000", "142503.287000", "142503.290000", "142503.292000", "142503.295000", "142503.297000", "142503.300000", "142503.302000", "142503.305000", "142503.307000", "142503.310000", "142503.312000", "142503.315000", "142503.317000", "142503.320000", "142503.322000", "142503.325000", "142503.327000", "142543.253000", "142543.255000", "142543.258000", "142543.260000", "142543.263000", "142543.265000", "142543.268000", "142543.270000", "142543.273000", "142543.275000", "142543.278000", "142543.280000", "142543.283000", "142543.285000", "142543.287000", "142543.290000", "142543.292000", "142543.295000", "142543.297000", "142543.300000", "142543.302000", "142543.305000", "142543.307000", "142543.310000", "142543.312000", "142543.315000", "142543.317000", "142623.255000", "142623.257000", "142623.260000", "142623.262000", "142623.265000", "142623.267000", "142623.270000", "142623.273000", "142623.275000", "142623.278000", "142623.280000", "142623.283000", "142623.285000", "142623.288000", "142623.290000", "142623.293000", "142623.295000", "142623.298000", "142623.300000", "142623.303000", "142623.305000", "142623.308000", "142623.310000", "142623.313000", "142623.315000", "142623.318000", "142623.320000", "142703.258000", "142703.261000", "142703.263000", "142703.266000", "142703.268000", "142703.271000", "142703.273000", "142703.276000", "142703.278000", "142703.281000", "142703.283000", "142703.285000", "142703.288000", "142703.290000", "142703.293000", "142703.295000", "142703.298000", "142703.300000", "142703.303000", "142703.305000", "142703.307000", "142703.310000", "142703.312000", "142703.315000", "142703.317000", "142703.320000", "142703.322000", "142743.272000", "142743.275000", "142743.277000", "142743.280000", "142743.282000", "142743.285000", "142743.287000", "142743.290000", "142743.292000", "142743.295000", "142743.297000", "142743.300000", "142743.302000", "142743.304000", "142743.307000", "142743.309000", "142743.312000", "142743.314000", "142743.317000", "142743.319000", "142743.322000", "142743.324000", "142743.326000", "142743.329000", "142743.331000", "142743.334000", "142743.336000", "142803.202000", "142803.205000", "142803.207000", "142803.210000", "142803.212000", "142803.215000", "142803.217000", "142803.219000", "142803.222000", "142803.224000", "142803.227000", "142803.229000", "142803.232000", "142843.262000", "142843.265000", "142843.267000", "142843.270000", "142843.272000", "142843.287000", "142843.290000", "142843.292000", "142843.295000", "142843.317000", "142843.319000", "142843.322000", "142843.324000", "142843.327000", "142843.329000", "142843.332000", "142843.334000", "142843.337000", "142843.339000", "142843.342000", "142843.344000", "142843.346000", "142843.349000", "142843.351000", "142843.354000", "142843.356000", "142843.359000", "142923.265000", "142923.268000", "142923.271000", "142923.273000", "142923.276000", "142923.278000", "142923.281000", "142923.283000", "142923.286000", "142923.288000", "142923.290000", "142923.293000", "142923.295000", "142923.298000", "142923.300000", "142923.303000", "142923.305000", "142923.308000", "142923.310000", "142923.313000", "142923.315000", "142923.318000", "142923.320000", "142923.323000", "142923.325000", "142923.328000", "142923.330000", "142934.525000", "142934.527000", "142934.530000", "142934.533000", "142934.536000", "142934.538000", "142934.541000"],
