{
  "AcquisitionMatrixPE": 104,
  "AcquisitionNumber": 1,
  "AcquisitionTime": "14:45:15.262500",
  "BandwidthPerPixelPhaseEncode": 17.17,
  "BaseResolution": 104,
  "BodyPartExamined": "BRAIN",
  "CoilString": "HC1-7;NC1_2",
  "ConsistencyInfo": "N4_VE11C_LATEST_20160120",
  "ConversionSoftware": "dcm2niix",
  "ConversionSoftwareVersion": "v1.0.20190902",
  "DerivedVendorReportedEchoSpacing": 0.000560011,
  "DeviceSerialNumber": "167006",
  "DwellTime": 2.1e-06,
  "EchoTime": 0.037,
  "EchoTrainLength": 104,
  "EffectiveEchoSpacing": 0.000560011,
  "FlipAngle": 52,
  "HeudiconvVersion": "0.10.0",
  "ImageComments": "Unaliased_MB4_PE3_LB",
  "ImageOrientationPatientDICOM": [0.999658, 0.0119491, 0.0232501, 0.00139576, 0.863747, -0.503923],
  "ImageType": [
    "ORIGINAL",
    "PRIMARY",
    "M",
    "MB",
    "ND",
    "MOSAIC"
],
  "ImagingFrequency": 123.259,
  "InPlanePhaseEncodingDirectionDICOM": "COL",
  "InstitutionAddress": "Chemin_Queen-Mary_4565_Montreal_District_CA_H3W_1W5",
  "InstitutionName": "IUGM",
  "InstitutionalDepartmentName": "Department",
  "MRAcquisitionType": "2D",
  "MagneticFieldStrength": 3,
  "Manufacturer": "Siemens",
  "ManufacturersModelName": "Prisma_fit",
  "Modality": "MR",
  "MultibandAccelerationFactor": 4,
  "PartialFourier": 1,
  "PatientPosition": "HFS",
  "PercentPhaseFOV": 100,
  "PhaseEncodingDirection": "j",
  "PhaseEncodingSteps": 104,
  "PhaseResolution": 1,
  "PixelBandwidth": 2290,
  "ProcedureStepDescription": "games_mario",
  "ProtocolName": "func_task-mario_run-05",
  "PulseSequenceDetails": "%CustomerSeq%_cmrr_mbep2d_bold",
  "ReceiveCoilActiveElements": "HC1-7;NC1,2",
  "ReceiveCoilName": "HeadNeck_64",
  "ReconMatrixPE": 104,
  "RepetitionTime": 1.49,
  "SAR": 0.0604176,
  "ScanOptions": "FS",
  "ScanningSequence": "EP",
  "SequenceName": "epfid2d1_104",
  "SequenceVariant": "SK_SS",
  "SeriesDescription": "func_task-mario_run-05",
  "SeriesNumber": 22,
  "ShimSetting": [618, -7177, -8860, 300, 2, -155, -32, -26],
  "SliceThickness": 2,
  "SliceTiming": [0, 0.7825, 0.0975, 0.8825, 0.195, 0.98, 0.2925, 1.0775, 0.3925, 1.175, 0.49, 1.2725, 0.5875, 1.3725, 0.685, 0, 0.7825, 0.0975, 0.8825, 0.195, 0.98, 0.2925, 1.0775, 0.3925, 1.175, 0.49, 1.2725, 0.5875, 1.3725, 0.685, 0, 0.7825, 0.0975, 0.8825, 0.195, 0.98, 0.2925, 1.0775, 0.3925, 1.175, 0.49, 1.2725, 0.5875, 1.3725, 0.685, 0, 0.7825, 0.0975, 0.8825, 0.195, 0.98, 0.2925, 1.0775, 0.3925, 1.175, 0.49, 1.2725, 0.5875, 1.3725, 0.685],
  "SoftwareVersions": "syngo_MR_E11",
  "SpacingBetweenSlices": 2,
  "StationName": "MRC35049",
  "TaskName": "mario",
  "TotalReadoutTime": 0.0576811,
  "TxRefAmp": 291.612,
  "WipMemBlock": "446a4392-92a4-4790-bec0-94a78c31ead1||Sequence: R016 ve11c/master r/e634e98; Dec 19 2017 11:00:25 by eja",
  "dcmmeta_affine": [
    [-1.9993165731430054, 0.002791517646983266, 0.05220726504921913, 105.68477630615234],
    [-0.02389814890921116, 1.7274948358535767, -1.0075665712356567, -51.108299255371094],
    [0.04650021344423294, 1.0078461170196533, 1.726871132850647, -97.93193817138672],
    [0.0, 0.0, 0.0, 1.0]
],
  "dcmmeta_reorient_transform": [
    [0.0, -1.0, 0.0, 103.0],
    [1.0, 0.0, 0.0, 0.0],
    [0.0, 0.0, 1.0, 0.0],
    [0.0, 0.0, 0.0, 1.0]
],
  "dcmmeta_shape": [104, 104, 60, 469],
  "dcmmeta_slice_dim": 2,
  "dcmmeta_version": 0.6,
  "global": {
    "const": {
      "AcquisitionMatrix": [104, 0, 0, 104],
      "AngioFlag": "N",
      "BitsAllocated": 16,
      "BitsStored": 16,
      "BodyPartExamined": "BRAIN",
      "Columns": 832,
      "EchoNumbers": 1,
      "EchoTime": 37.0,
      "EchoTrainLength": 104,
      "FlipAngle": 52.0,
      "HighBit": 15,
      "ImageOrientationPatient": [0.99965826770287, 0.01194907445747, 0.02325010608393, 0.00139575885641, 0.86374742760655, -0.5039230428947],
      "ImagePositionPatient": [-834.73963196301, -764.33072567918, 355.80610626595],
      "ImageType": [
        "ORIGINAL",
        "PRIMARY",
        "M",
        "MB",
        "ND",
        "MOSAIC"
],
      "ImagedNucleus": "1H",
      "ImagingFrequency": 123.258936,
      "InPlanePhaseEncodingDirection": "COL",
      "MRAcquisitionType": "2D",
      "MagneticFieldStrength": 3.0,
      "Manufacturer": "SIEMENS",
      "ManufacturerModelName": "Prisma_fit",
      "Modality": "MR",
      "NumberOfAverages": 1.0,
      "NumberOfPhaseEncodingSteps": 104,
      "PercentPhaseFieldOfView": 100.0,
      "PercentSampling": 100.0,
      "PerformedProcedureStepStartTime": "132141.013000",
      "PhotometricInterpretation": "MONOCHROME2",
      "PixelBandwidth": 2290.0,
      "PixelRepresentation": 0,
      "PixelSpacing": [2.0, 2.0],
      "ProtocolName": "func_task-mario_run-05",
      "RepetitionTime": 1490.0,
      "Rows": 832,
      "SAR": 0.06041759451132,
      "SamplesPerPixel": 1,
      "ScanOptions": "FS",
      "ScanningSequence": "EP",
      "SequenceName": "epfid2d1_104",
      "SequenceVariant": [
        "SK",
        "SS"
],
      "SeriesDescription": "func_task-mario_run-05",
      "SeriesNumber": 22,
      "SeriesTime": "144648.117000",
      "SliceLocation": -56.051657159206,
      "SliceThickness": 2.0,
      "SmallestImagePixelValue": 0,
      "SoftwareVersions": "syngo MR E11",
      "SpacingBetweenSlices": 1.9999999941911,
      "SpecificCharacterSet": "ISO_IR 100",
      "StudyID": "1",
      "StudyTime": "132140.882000",
      "TransmitCoilName": "Body",
      "VariableFlipAngleFlag": "N",
      "WindowCenterWidthExplanation": "Algo1",
      "dBdt": 0.0},
    "slices": {}
  },
  "time": {
    "samples": {
      "AcquisitionNumber": [1, 2, 3, 4, 5, 6, 7, 8, 9, 10, 11, 12, 13, 14, 15, 16, 17, 18, 19, 20, 21, 22, 23, 24, 25, 26, 27, 28, 29, 30, 31, 32, 33, 34, 35, 36, 37, 38, 39, 40, 41, 42, 43, 44, 45, 46, 47, 48, 49, 50, 51, 52, 53, 54, 55, 56, 57, 58, 59, 60, 61, 62, 63, 64, 65, 66, 67, 68, 69, 70, 71, 72, 73, 74, 75, 76, 77, 78, 79, 80, 81, 82, 83, 84, 85, 86, 87, 88, 89, 90, 91, 92, 93, 94, 95, 96, 97, 98, 99, 100, 101, 102, 103, 104, 105, 106, 107, 108, 109, 110, 111, 112, 113, 114, 115, 116, 117, 118, 119, 120, 121, 122, 123, 124, 125, 126, 127, 128, 129, 130, 131, 132, 133, 134, 135, 136, 137, 138, 139, 140, 141, 142, 143, 144, 145, 146, 147, 148, 149, 150, 151, 152, 153, 154, 155, 156, 157, 158, 159, 160, 161, 162, 163, 164, 165, 166, 167, 168, 169, 170, 171, 172, 173, 174, 175, 176, 177, 178, 179, 180, 181, 182, 183, 184, 185, 186, 187, 188, 189, 190, 191, 192, 193, 194, 195, 196, 197, 198, 199, 200, 201, 202, 203, 204, 205, 206, 207, 208, 209, 210, 211, 212, 213, 214, 215, 216, 217, 218, 219, 220, 221, 222, 223, 224, 225, 226, 227, 228, 229, 230, 231, 232, 233, 234, 235, 236, 237, 238, 239, 240, 241, 242, 243, 244, 245, 246, 247, 248, 249, 250, 251, 252, 253, 254, 255, 256, 257, 258, 259, 260, 261, 262, 263, 264, 265, 266, 267, 268, 269, 270, 271, 272, 273, 274, 275, 276, 277, 278, 279, 280, 281, 282, 283, 284, 285, 286, 287, 288, 289, 290, 291, 292, 293, 294, 295, 296, 297, 298, 299, 300, 301, 302, 303, 304, 305, 306, 307, 308, 309, 310, 311, 312, 313, 314, 315, 316, 317, 318, 319, 320, 321, 322, 323, 324, 325, 326, 327, 328, 329, 330, 331, 332, 333, 334, 335, 336, 337, 338, 339, 340, 341, 342, 343, 344, 345, 346, 347, 348, 349, 350, 351, 352, 353, 354, 355, 356, 357, 358, 359, 360, 361, 362, 363, 364, 365, 366, 367, 368, 369, 370, 371, 372, 373, 374, 375, 376, 377, 378, 379, 380, 381, 382, 383, 384, 385, 386, 387, 388, 389, 390, 391, 392, 393, 394, 395, 396, 397, 398, 399, 400, 401, 402, 403, 404, 405, 406, 407, 408, 409, 410, 411, 412, 413, 414, 415, 416, 417, 418, 419, 420, 421, 422, 423, 424, 425, 426, 427, 428, 429, 430, 431, 432, 433, 434, 435, 436, 437, 438, 439, 440, 441, 442, 443, 444, 445, 446, 447, 448, 449, 450, 451, 452, 453, 454, 455, 456, 457, 458, 459, 460, 461, 462, 463, 464, 465, 466, 467, 468, 469],
      "AcquisitionTime": ["144515.262500", "144516.752500", "144518.242500", "144519.732500", "144521.222500", "144522.712500", "144524.202500", "144525.692500", "144527.182500", "144528.672500", "144530.162500", "144531.652500", "144533.142500", "144534.632500", "144536.122500", "144537.612500", "144539.102500", "144540.592500", "144542.082500", "144543.572500", "144545.062500", "144546.552500", "144548.042500", "144549.532500", "144551.022500", "144552.512500", "144554.002500", "144555.492500", "144556.982500", "144558.472500", "144559.962500", "144601.452500", "144602.942500", "144604.432500", "144605.922500", "144607.412500", "144608.902500", "144610.392500", "144611.882500", "144613.372500", "144614.862500", "144616.352500", "144617.842500", "144619.332500", "144620.822500", "144622.312500", "144623.802500", "144625.292500", "144626.782500", "144628.272500", "144629.762500", "144631.252500", "144632.742500", "144634.232500", "144635.722500", "144637.212500", "144638.702500", "144640.192500", "144641.682500", "144643.172500", "144644.662500", "144646.152500", "144647.642500", "144649.132500", "144650.622500", "144652.112500", "144653.602500", "144655.092500", "144656.582500", "144658.072500", "144659.562500", "144701.052500", "144702.542500", "144704.032500", "144705.522500", "144707.012500", "144708.502500", "144709.992500", "144711.482500", "144712.972500", "144714.462500", "144715.952500", "144717.442500", "144718.932500", "144720.422500", "144721.912500", "144723.402500", "144724.892500", "144726.382500", "144727.872500", "144729.362500", "144730.852500", "144732.342500", "144733.832500", "144735.322500", "144736.812500", "144738.302500", "144739.792500", "144741.282500", "144742.772500", "144744.262500", "144745.752500", "144747.242500", "144748.732500", "144750.222500", "144751.712500", "144753.202500", "144754.692500", "144756.182500", "144757.672500", "144759.162500", "144800.652500", "144802.142500", "144803.632500", "144805.122500", "144806.612500", "144808.102500", "144809.592500", "144811.082500", "144812.572500", "144814.062500", "144815.552500", "144817.042500", "144818.532500", "144820.022500", "144821.512500", "144823.002500", "144824.492500", "144825.982500", "144827.472500", "144828.962500", "144830.452500", "144831.942500", "144833.432500", "144834.922500", "144836.412500", "144837.902500", "144839.392500", "144840.882500", "144842.372500", "144843.862500", "144845.352500", "144846.842500", "144848.332500", "144849.822500", "144851.312500", "144852.802500", "144854.292500", "144855.782500", "144857.272500", "144858.762500", "144900.252500", "144901.742500", "144903.232500", "144904.722500", "144906.212500", "144907.702500", "144909.192500", "144910.682500", "144912.172500", "144913.662500", "144915.152500", "144916.642500", "144918.132500", "144919.622500", "144921.112500", "144922.602500", "144924.092500", "144925.582500", "144927.072500", "144928.562500", "144930.052500", "144931.542500", "144933.032500", "144934.522500", "144936.012500", "144937.502500", "144938.992500", "144940.482500", "144941.972500", "144943.462500", "144944.952500", "144946.442500", "144947.932500", "144949.422500", "144950.912500", "144952.402500", "144953.892500", "144955.382500", "144956.872500", "144958.362500", "144959.852500", "145001.342500", "145002.832500", "145004.322500", "145005.812500", "145007.302500", "145008.792500", "145010.282500", "145011.772500", "145013.262500", "145014.752500", "145016.242500", "145017.732500", "145019.222500", "145020.712500", "145022.202500", "145023.692500", "145025.182500", "145026.672500", "145028.162500", "145029.652500", "145031.142500", "145032.632500", "145034.122500", "145035.612500", "145037.102500", "145038.592500", "145040.082500", "145041.572500", "145043.062500", "145044.552500", "145046.042500", "145047.532500", "145049.022500", "145050.512500", "145052.002500", "145053.492500", "145054.982500", "145056.472500", "145057.962500", "145059.452500", "145100.942500", "145102.432500", "145103.922500", "145105.412500", "145106.902500", "145108.392500", "145109.882500", "145111.372500", "145112.862500", "145114.352500", "145115.842500", "145117.332500", "145118.822500", "145120.312500", "145121.802500", "145123.292500", "145124.782500", "145126.272500", "145127.762500", "145129.252500", "145130.742500", "145132.232500", "145133.722500", "145135.212500", "145136.702500", "145138.192500", "145139.682500", "145141.172500", "145142.662500", "145144.152500", "145145.642500", "145147.132500", "145148.622500", "145150.112500", "145151.602500", "145153.092500", "145154.582500", "145156.072500", "145157.562500", "145159.052500", "145200.542500", "145202.032500", "145203.522500", "145205.012500", "145206.502500", "145207.992500", "145209.482500", "145210.972500", "145212.462500", "145213.952500", "145215.442500", "145216.932500", "145218.422500", "145219.912500", "145221.402500", "145222.892500", "145224.382500", "145225.872500", "145227.362500", "145228.852500", "145230.342500", "145231.832500", "145233.322500", "145234.812500", "145236.302500", "145237.792500", "145239.282500", "145240.772500", "145242.262500", "145243.752500", "145245.242500", "145246.732500", "145248.222500", "145249.712500", "145251.202500", "145252.692500", "145254.182500", "145255.672500", "145257.162500", "145258.652500", "145300.142500", "145301.632500", "145303.122500", "145304.612500", "145306.102500", "145307.592500", "145309.082500", "145310.572500", "145312.062500", "145313.552500", "145315.042500", "145316.532500", "145318.022500", "145319.512500", "145321.002500", "145322.492500", "145323.982500", "145325.472500", "145326.962500", "145328.452500", "145329.942500", "145331.432500", "145332.922500", "145334.412500", "145335.902500", "145337.392500", "145338.882500", "145340.372500", "145341.862500", "145343.352500", "145344.842500", "145346.332500", "145347.822500", "145349.312500", "145350.802500", "145352.292500", "145353.782500", "145355.272500", "145356.762500", "145358.252500", "145359.742500", "145401.232500", "145402.722500", "145404.212500", "145405.702500", "145407.192500", "145408.682500", "145410.172500", "145411.662500", "145413.152500", "145414.642500", "145416.132500", "145417.622500", "145419.112500", "145420.602500", "145422.092500", "145423.582500", "145425.072500", "145426.562500", "145428.052500", "145429.542500", "145431.032500", "145432.522500", "145434.012500", "145435.502500", "145436.992500", "145438.482500", "145439.972500", "145441.462500", "145442.952500", "145444.442500", "145445.932500", "145447.422500", "145448.912500", "145450.402500", "145451.892500", "145453.382500", "145454.872500", "145456.362500", "145457.852500", "145459.342500", "145500.832500", "145502.322500", "145503.812500", "145505.302500", "145506.792500", "145508.282500", "145509.772500", "145511.262500", "145512.752500", "145514.242500", "145515.732500", "145517.222500", "145518.712500", "145520.202500", "145521.692500", "145523.182500", "145524.672500", "145526.162500", "145527.652500", "145529.142500", "145530.632500", "145532.122500", "145533.612500", "145535.102500", "145536.592500", "145538.082500", "145539.572500", "145541.062500", "145542.552500", "145544.042500", "145545.532500", "145547.022500", "145548.512500", "145550.002500", "145551.492500", "145552.982500", "145554.472500", "145555.962500", "145557.452500", "145558.942500", "145600.432500", "145601.922500", "145603.412500", "145604.902500", "145606.392500", "145607.882500", "145609.372500", "145610.862500", "145612.352500", "145613.842500", "145615.332500", "145616.822500", "145618.312500", "145619.802500", "145621.292500", "145622.782500", "145624.272500", "145625.762500", "145627.252500", "145628.742500", "145630.232500", "145631.722500", "145633.212500", "145634.702500", "145636.192500", "145637.682500", "145639.172500", "145640.662500", "145642.152500", "145643.642500", "145645.132500", "145646.622500", "145648.112500", "145649.602500", "145651.092500", "145652.582500"],
      "ContentTime": ["144648.120000", "144648.124000", "144648.127000", "144648.130000", "144648.133000", "144648.137000", "144648.154000", "144648.157000", "144648.161000", "144648.164000", "144648.167000", "144648.170000", "144648.173000", "144648.177000", "144648.180000", "144648.183000", "144648.194000", "144648.197000", "144648.200000", "144648.204000", "144648.207000", "144648.210000", "144648.213000", "144648.217000", "144648.220000", "144648.223000", "144648.226000", "144648.230000", "144648.233000", "144648.236000", "144648.240000", "144648.243000", "144648.246000", "144648.249000", "144648.253000", "144648.256000", "144648.259000", "144648.262000", "144648.271000", "144707.655000", "144707.659000", "144707.662000", "144707.665000", "144707.669000", "144707.672000", "144707.675000", "144707.678000", "144707.682000", "144707.685000", "144707.688000", "144707.691000", "144707.694000", "144707.698000", "144707.701000", "144707.704000", "144707.708000", "144707.711000", "144707.714000", "144707.725000", "144707.728000", "144727.656000", "144727.660000", "144727.663000", "144727.666000", "144727.669000", "144727.673000", "144727.676000", "144727.679000", "144727.682000", "144727.686000", "144727.689000", "144727.692000", "144727.695000", "144727.699000", "144727.702000", "144727.705000", "144727.708000", "144727.712000", "144727.738000", "144727.741000", "144747.655000", "144747.659000", "144747.662000", "144747.665000", "144747.669000", "144747.672000", "144747.675000", "144747.679000", "144747.682000", "144747.685000", "144747.689000", "144747.692000", "144747.695000", "144747.698000", "144747.702000", "144747.705000", "144747.708000", "144747.712000", "144747.715000", "144747.718000", "144827.655000", "144827.659000", "144827.662000", "144827.665000", "144827.668000", "144827.672000", "144827.675000", "144827.679000", "144827.682000", "144827.685000", "144827.689000", "144827.692000", "144827.695000", "144827.698000", "144827.712000", "144827.715000", "144827.718000", "144827.722000", "144827.725000", "144827.728000", "144827.731000", "144827.735000", "144827.738000", "144827.741000", "144827.744000", "144827.748000", "144827.751000", "144827.754000", "144907.655000", "144907.659000", "144907.662000", "144907.665000", "144907.669000", "144907.672000", "144907.675000", "144907.679000", "144907.682000", "144907.685000", "144907.688000", "144907.692000", "144907.695000", "144907.698000", "144907.702000", "144907.705000", "144907.708000", "144907.712000", "144907.715000", "144907.718000", "144907.721000", "144907.725000", "144907.728000", "144907.731000", "144907.734000", "144907.738000", "144907.741000", "144947.656000", "144947.660000", "144947.663000", "144947.666000", "144947.670000", "144947.673000", "144947.676000", "144947.680000", "144947.683000", "144947.686000", "144947.689000", "144947.693000", "144947.696000", "144947.699000", "144947.703000", "144947.706000", "144947.709000", "144947.713000", "144947.716000", "144947.719000", "144947.722000", "144947.726000", "144947.729000", "144947.732000", "144947.735000", "144947.739000", "144947.742000", "145027.655000", "145027.659000", "145027.662000", "145027.665000", "145027.669000", "145027.672000", "145027.675000", "145027.678000", "145027.682000", "145027.685000", "145027.688000", "145027.691000", "145027.695000", "145027.698000", "145027.701000", "145027.705000", "145027.708000", "145027.711000", "145027.714000", "145027.718000", "145027.721000", "145027.724000", "145027.727000", "145027.731000", "145027.734000", "145027.737000", "145027.740000", "145107.655000", "145107.659000", "145107.662000", "145107.665000", "145107.669000", "145107.673000", "145107.677000", "145107.681000", "145107.684000", "145107.688000", "145107.691000", "145107.695000", "145107.698000", "145107.702000", "145107.705000", "145107.708000", "145107.712000", "145107.715000", "145107.718000", "145107.721000", "145107.725000", "145107.728000", "145107.731000", "145107.734000", "145107.738000", "145107.741000", "145147.655000", "145147.659000", "145147.662000", "145147.665000", "145147.669000", "145147.672000", "145147.675000", "145147.678000", "145147.682000", "145147.685000", "145147.688000", "145147.692000", "145147.695000", "145147.698000", "145147.701000", "145147.705000", "145147.708000", "145147.711000", "145147.715000", "145147.718000", "145147.721000", "145147.724000", "145147.728000", "145147.731000", "145147.734000", "145147.737000", "145147.741000", "145227.655000", "145227.659000", "145227.662000", "145227.665000", "145227.669000", "145227.672000", "145227.676000", "145227.679000", "145227.682000", "145227.685000", "145227.689000", "145227.692000", "145227.696000", "145227.699000", "145227.702000", "145227.705000", "145227.709000", "145227.712000", "145227.715000", "145227.718000", "145227.722000", "145227.725000", "145227.728000", "145227.731000", "145227.735000", "145227.738000", "145227.741000", "145307.655000", "145307.659000", "145307.662000", "145307.666000", "145307.669000", "145307.672000", "145307.675000", "145307.679000", "145307.682000", "145307.685000", "145307.689000", "145307.692000", "145307.695000", "145307.698000", "145307.702000", "145307.705000", "145307.708000", "145307.711000", "145307.715000", "145307.730000", "145307.733000", "145307.736000", "145307.739000", "145307.743000", "145307.746000", "145307.749000", "145307.752000", "145347.655000", "145347.659000", "145347.662000", "145347.665000", "145347.669000", "145347.672000", "145347.675000", "145347.679000", "145347.682000", "145347.685000", "145347.689000", "145347.692000", "145347.695000", "145347.698000", "145347.702000", "145347.705000", "145347.708000", "145347.712000", "145347.715000", "145347.718000", "145347.722000", "145347.725000", "145347.728000", "145347.731000", "145347.735000", "145347.738000", "145347.741000", "145427.656000", "145427.660000", "145427.663000", "145427.667000", "145427.670000", "145427.673000", "145427.676000", "145427.680000", "145427.683000", "145427.686000", "145427.689000", "145427.693000", "145427.696000", "145427.699000", "145427.703000", "145427.706000", "145427.709000", "145427.712000", "145427.716000", "145427.719000", "145427.722000", "145427.726000", "145427.730000", "145427.734000", "145427.737000", "145427.740000", "145427.744000", "145507.655000", "145507.659000", "145507.662000", "145507.665000", "145507.668000", "145507.672000", "145507.675000", "145507.678000", "145507.682000", "145507.685000", "145507.688000", "145507.692000", "145507.695000", "145507.698000", "145507.701000", "145507.705000", "145507.708000", "145507.711000", "145507.714000", "145507.718000", "145507.721000", "145507.724000", "145507.728000", "145507.731000", "145507.734000", "145507.737000", "145507.741000", "145547.655000", "145547.659000", "145547.662000", "145547.665000", "145547.669000", "145547.672000", "145547.675000", "145547.678000", "145547.682000", "145547.685000", "145547.688000", "145547.691000", "145547.695000", "145547.698000", "145547.701000", "145547.705000", "145547.708000", "145547.712000", "145547.715000", "145547.718000", "145547.722000", "145547.725000", "145547.728000", "145547.731000", "145547.735000", "145547.738000", "145627.655000", "145627.659000", "145627.662000", "145627.665000", "145627.669000", "145627.672000", "145627.675000", "145627.679000", "145627.682000", "145627.685000", "145627.689000", "145627.692000", "145627.695000", "145627.699000", "145627.702000", "145627.705000", "145627.708000", "145627.712000", "145627.715000", "145627.718000", "145627.722000", "145627.725000", "145627.728000", "145627.731000", "145627.735000", "145627.738000", "145627.741000", "145655.453000", "145655.458000", "145655.462000", "145655.466000", "145655.470000", "145655.474000", "145655.477000", "145655.481000", "145655.485000", "145655.489000", "145655.492000", "145655.496000", "145655.499000", "145655.503000", "145655.506000", "145655.510000", "145655.514000", "145655.518000", "145655.522000"],
