{
  "AcquisitionMatrixPE": 104,
  "AcquisitionNumber": 1,
  "AcquisitionTime": "13:52:28.242500",
  "BandwidthPerPixelPhaseEncode": 17.17,
  "BaseResolution": 104,
  "BodyPartExamined": "BRAIN",
  "CoilString": "HC1-7;NC1_2",
  "ConsistencyInfo": "N4_VE11C_LATEST_20160120",
  "ConversionSoftware": "dcm2niix",
  "ConversionSoftwareVersion": "v1.0.20190902",
  "DerivedVendorReportedEchoSpacing": 0.000560011,
  "DeviceSerialNumber": "167006",
  "DwellTime": 2.1e-06,
  "EchoTime": 0.037,
  "EchoTrainLength": 104,
  "EffectiveEchoSpacing": 0.000560011,
  "FlipAngle": 52,
  "HeudiconvVersion": "0.10.0",
  "ImageComments": "Unaliased_MB4_PE3_LB",
  "ImageOrientationPatientDICOM": [0.999658, 0.0119491, 0.0232501, 0.00139576, 0.863747, -0.503923],
  "ImageType": [
    "ORIGINAL",
    "PRIMARY",
    "P",
    "MB",
    "ND",
    "MOSAIC"
],
  "ImagingFrequency": 123.259,
  "InPlanePhaseEncodingDirectionDICOM": "COL",
  "InstitutionAddress": "Chemin_Queen-Mary_4565_Montreal_District_CA_H3W_1W5",
  "InstitutionName": "IUGM",
  "InstitutionalDepartmentName": "Department",
  "MRAcquisitionType": "2D",
  "MagneticFieldStrength": 3,
  "Manufacturer": "Siemens",
  "ManufacturersModelName": "Prisma_fit",
  "Modality": "MR",
  "MultibandAccelerationFactor": 4,
  "PartialFourier": 1,
  "PatientPosition": "HFS",
  "PercentPhaseFOV": 100,
  "PhaseEncodingDirection": "j",
  "PhaseEncodingSteps": 104,
  "PhaseResolution": 1,
  "PixelBandwidth": 2290,
  "ProcedureStepDescription": "games_mario",
  "ProtocolName": "func_task-mario_run-01",
  "PulseSequenceDetails": "%CustomerSeq%_cmrr_mbep2d_bold",
  "ReceiveCoilActiveElements": "HC1-7;NC1,2",
  "ReceiveCoilName": "HeadNeck_64",
  "ReconMatrixPE": 104,
  "RepetitionTime": 1.49,
  "SAR": 0.0604176,
  "ScanOptions": "FS",
  "ScanningSequence": "EP",
  "SequenceName": "epfid2d1_104",
  "SequenceVariant": "SK_SS",
  "SeriesDescription": "func_task-mario_run-01",
  "SeriesNumber": 11,
  "ShimSetting": [618, -7177, -8860, 300, 2, -155, -32, -26],
  "SliceThickness": 2,
  "SliceTiming": [0, 0.785, 0.1, 0.8825, 0.1975, 0.98, 0.295, 1.08, 0.3925, 1.1775, 0.49, 1.275, 0.59, 1.3725, 0.6875, 0, 0.785, 0.1, 0.8825, 0.1975, 0.98, 0.295, 1.08, 0.3925, 1.1775, 0.49, 1.275, 0.59, 1.3725, 0.6875, 0, 0.785, 0.1, 0.8825, 0.1975, 0.98, 0.295, 1.08, 0.3925, 1.1775, 0.49, 1.275, 0.59, 1.3725, 0.6875, 0, 0.785, 0.1, 0.8825, 0.1975, 0.98, 0.295, 1.08, 0.3925, 1.1775, 0.49, 1.275, 0.59, 1.3725, 0.6875],
  "SoftwareVersions": "syngo_MR_E11",
  "SpacingBetweenSlices": 2,
  "StationName": "MRC35049",
  "TaskName": "mario",
  "TotalReadoutTime": 0.0576811,
  "TxRefAmp": 291.612,
  "WipMemBlock": "3d748d33-3b32-4890-9254-d232476e2703||Sequence: R016 ve11c/master r/e634e98; Dec 19 2017 11:00:25 by eja",
  "dcmmeta_affine": [
    [-1.9993165731430054, 0.002791517646983266, 0.05220726504921913, 105.68477630615234],
    [-0.02389814890921116, 1.7274948358535767, -1.0075665712356567, -51.108299255371094],
    [0.04650021344423294, 1.0078461170196533, 1.726871132850647, -97.93193817138672],
    [0.0, 0.0, 0.0, 1.0]
],
  "dcmmeta_reorient_transform": [
    [0.0, -1.0, 0.0, 103.0],
    [1.0, 0.0, 0.0, 0.0],
    [0.0, 0.0, 1.0, 0.0],
    [0.0, 0.0, 0.0, 1.0]
],
  "dcmmeta_shape": [104, 104, 60, 420],
  "dcmmeta_slice_dim": 2,
  "dcmmeta_version": 0.6,
  "global": {
    "const": {
      "AcquisitionMatrix": [104, 0, 0, 104],
      "AngioFlag": "N",
      "BitsAllocated": 16,
      "BitsStored": 16,
      "BodyPartExamined": "BRAIN",
      "Columns": 832,
      "EchoNumbers": 1,
      "EchoTime": 37.0,
      "EchoTrainLength": 104,
      "FlipAngle": 52.0,
      "HighBit": 15,
      "ImageOrientationPatient": [0.99965826770287, 0.01194907445747, 0.02325010608393, 0.00139575885641, 0.86374742760655, -0.5039230428947],
      "ImagePositionPatient": [-834.73963196301, -764.33072567918, 355.80610626595],
      "ImageType": [
        "ORIGINAL",
        "PRIMARY",
        "P",
        "MB",
        "ND",
        "MOSAIC"
],
      "ImagedNucleus": "1H",
      "ImagingFrequency": 123.258909,
      "InPlanePhaseEncodingDirection": "COL",
      "LargestImagePixelValue": 4095,
      "MRAcquisitionType": "2D",
      "MagneticFieldStrength": 3.0,
      "Manufacturer": "SIEMENS",
      "ManufacturerModelName": "Prisma_fit",
      "Modality": "MR",
      "NumberOfAverages": 1.0,
      "NumberOfPhaseEncodingSteps": 104,
      "PercentPhaseFieldOfView": 100.0,
      "PercentSampling": 100.0,
      "PerformedProcedureStepStartTime": "132141.013000",
      "PhotometricInterpretation": "MONOCHROME2",
      "PixelBandwidth": 2290.0,
      "PixelRepresentation": 0,
      "PixelSpacing": [2.0, 2.0],
      "ProtocolName": "func_task-mario_run-01",
      "RepetitionTime": 1490.0,
      "RescaleIntercept": -4096.0,
      "RescaleSlope": 2.0,
      "RescaleType": "US",
      "Rows": 832,
      "SAR": 0.06041759451132,
      "SamplesPerPixel": 1,
      "ScanOptions": "FS",
      "ScanningSequence": "EP",
      "SequenceName": "epfid2d1_104",
      "SequenceVariant": [
        "SK",
        "SS"
],
      "SeriesDescription": "func_task-mario_run-01",
      "SeriesNumber": 11,
      "SeriesTime": "135345.361000",
      "SliceLocation": -56.051657159206,
      "SliceThickness": 2.0,
      "SmallestImagePixelValue": 0,
      "SoftwareVersions": "syngo MR E11",
      "SpacingBetweenSlices": 1.9999999941911,
      "SpecificCharacterSet": "ISO_IR 100",
      "StudyID": "1",
      "StudyTime": "132140.882000",
      "TransmitCoilName": "Body",
      "VariableFlipAngleFlag": "N",
      "WindowCenterWidthExplanation": "Algo1",
      "dBdt": 0.0},
    "slices": {}
  },
  "time": {
    "samples": {
      "AcquisitionNumber": [1, 2, 3, 4, 5, 6, 7, 8, 9, 10, 11, 12, 13, 14, 15, 16, 17, 18, 19, 20, 21, 22, 23, 24, 25, 26, 27, 28, 29, 30, 31, 32, 33, 34, 35, 36, 37, 38, 39, 40, 41, 42, 43, 44, 45, 46, 47, 48, 49, 50, 51, 52, 53, 54, 55, 56, 57, 58, 59, 60, 61, 62, 63, 64, 65, 66, 67, 68, 69, 70, 71, 72, 73, 74, 75, 76, 77, 78, 79, 80, 81, 82, 83, 84, 85, 86, 87, 88, 89, 90, 91, 92, 93, 94, 95, 96, 97, 98, 99, 100, 101, 102, 103, 104, 105, 106, 107, 108, 109, 110, 111, 112, 113, 114, 115, 116, 117, 118, 119, 120, 121, 122, 123, 124, 125, 126, 127, 128, 129, 130, 131, 132, 133, 134, 135, 136, 137, 138, 139, 140, 141, 142, 143, 144, 145, 146, 147, 148, 149, 150, 151, 152, 153, 154, 155, 156, 157, 158, 159, 160, 161, 162, 163, 164, 165, 166, 167, 168, 169, 170, 171, 172, 173, 174, 175, 176, 177, 178, 179, 180, 181, 182, 183, 184, 185, 186, 187, 188, 189, 190, 191, 192, 193, 194, 195, 196, 197, 198, 199, 200, 201, 202, 203, 204, 205, 206, 207, 208, 209, 210, 211, 212, 213, 214, 215, 216, 217, 218, 219, 220, 221, 222, 223, 224, 225, 226, 227, 228, 229, 230, 231, 232, 233, 234, 235, 236, 237, 238, 239, 240, 241, 242, 243, 244, 245, 246, 247, 248, 249, 250, 251, 252, 253, 254, 255, 256, 257, 258, 259, 260, 261, 262, 263, 264, 265, 266, 267, 268, 269, 270, 271, 272, 273, 274, 275, 276, 277, 278, 279, 280, 281, 282, 283, 284, 285, 286, 287, 288, 289, 290, 291, 292, 293, 294, 295, 296, 297, 298, 299, 300, 301, 302, 303, 304, 305, 306, 307, 308, 309, 310, 311, 312, 313, 314, 315, 316, 317, 318, 319, 320, 321, 322, 323, 324, 325, 326, 327, 328, 329, 330, 331, 332, 333, 334, 335, 336, 337, 338, 339, 340, 341, 342, 343, 344, 345, 346, 347, 348, 349, 350, 351, 352, 353, 354, 355, 356, 357, 358, 359, 360, 361, 362, 363, 364, 365, 366, 367, 368, 369, 370, 371, 372, 373, 374, 375, 376, 377, 378, 379, 380, 381, 382, 383, 384, 385, 386, 387, 388, 389, 390, 391, 392, 393, 394, 395, 396, 397, 398, 399, 400, 401, 402, 403, 404, 405, 406, 407, 408, 409, 410, 411, 412, 413, 414, 415, 416, 417, 418, 419, 420],
      "AcquisitionTime": ["135228.242500", "135229.732500", "135231.222500", "135232.712500", "135234.202500", "135235.692500", "135237.182500", "135238.672500", "135240.162500", "135241.652500", "135243.142500", "135244.632500", "135246.122500", "135247.612500", "135249.102500", "135250.592500", "135252.082500", "135253.572500", "135255.062500", "135256.552500", "135258.042500", "135259.532500", "135301.022500", "135302.512500", "135304.002500", "135305.492500", "135306.982500", "135308.472500", "135309.962500", "135311.452500", "135312.942500", "135314.432500", "135315.922500", "135317.412500", "135318.902500", "135320.392500", "135321.882500", "135323.372500", "135324.862500", "135326.352500", "135327.842500", "135329.332500", "135330.822500", "135332.312500", "135333.802500", "135335.292500", "135336.782500", "135338.272500", "135339.762500", "135341.252500", "135342.742500", "135344.232500", "135345.722500", "135347.212500", "135348.702500", "135350.192500", "135351.682500", "135353.172500", "135354.662500", "135356.152500", "135357.642500", "135359.132500", "135400.622500", "135402.112500", "135403.602500", "135405.092500", "135406.582500", "135408.072500", "135409.562500", "135411.052500", "135412.542500", "135414.032500", "135415.522500", "135417.012500", "135418.502500", "135419.992500", "135421.482500", "135422.972500", "135424.462500", "135425.952500", "135427.442500", "135428.932500", "135430.422500", "135431.912500", "135433.402500", "135434.892500", "135436.382500", "135437.872500", "135439.362500", "135440.852500", "135442.342500", "135443.832500", "135445.322500", "135446.812500", "135448.302500", "135449.792500", "135451.282500", "135452.772500", "135454.262500", "135455.752500", "135457.242500", "135458.732500", "135500.222500", "135501.712500", "135503.202500", "135504.692500", "135506.182500", "135507.672500", "135509.162500", "135510.652500", "135512.142500", "135513.632500", "135515.122500", "135516.612500", "135518.102500", "135519.592500", "135521.082500", "135522.572500", "135524.062500", "135525.552500", "135527.042500", "135528.532500", "135530.022500", "135531.512500", "135533.002500", "135534.492500", "135535.982500", "135537.472500", "135538.962500", "135540.452500", "135541.942500", "135543.432500", "135544.922500", "135546.412500", "135547.902500", "135549.392500", "135550.882500", "135552.372500", "135553.862500", "135555.352500", "135556.842500", "135558.332500", "135559.822500", "135601.312500", "135602.802500", "135604.292500", "135605.782500", "135607.272500", "135608.762500", "135610.252500", "135611.742500", "135613.232500", "135614.722500", "135616.212500", "135617.702500", "135619.192500", "135620.682500", "135622.172500", "135623.662500", "135625.152500", "135626.642500", "135628.132500", "135629.622500", "135631.112500", "135632.602500", "135634.092500", "135635.582500", "135637.072500", "135638.562500", "135640.052500", "135641.542500", "135643.032500", "135644.522500", "135646.012500", "135647.502500", "135648.992500", "135650.482500", "135651.972500", "135653.462500", "135654.952500", "135656.442500", "135657.932500", "135659.422500", "135700.912500", "135702.402500", "135703.892500", "135705.382500", "135706.872500", "135708.362500", "135709.852500", "135711.342500", "135712.832500", "135714.322500", "135715.812500", "135717.302500", "135718.792500", "135720.282500", "135721.772500", "135723.262500", "135724.752500", "135726.242500", "135727.732500", "135729.222500", "135730.712500", "135732.202500", "135733.692500", "135735.182500", "135736.672500", "135738.162500", "135739.652500", "135741.142500", "135742.632500", "135744.122500", "135745.612500", "135747.102500", "135748.592500", "135750.082500", "135751.572500", "135753.062500", "135754.552500", "135756.042500", "135757.532500", "135759.022500", "135800.512500", "135802.002500", "135803.492500", "135804.982500", "135806.472500", "135807.962500", "135809.452500", "135810.942500", "135812.432500", "135813.922500", "135815.412500", "135816.902500", "135818.392500", "135819.882500", "135821.372500", "135822.862500", "135824.352500", "135825.842500", "135827.332500", "135828.822500", "135830.312500", "135831.802500", "135833.292500", "135834.782500", "135836.272500", "135837.762500", "135839.252500", "135840.742500", "135842.232500", "135843.722500", "135845.212500", "135846.702500", "135848.192500", "135849.682500", "135851.172500", "135852.662500", "135854.152500", "135855.642500", "135857.132500", "135858.622500", "135900.112500", "135901.602500", "135903.092500", "135904.582500", "135906.072500", "135907.562500", "135909.052500", "135910.542500", "135912.032500", "135913.522500", "135915.012500", "135916.502500", "135917.992500", "135919.482500", "135920.972500", "135922.462500", "135923.952500", "135925.442500", "135926.932500", "135928.422500", "135929.912500", "135931.402500", "135932.892500", "135934.382500", "135935.872500", "135937.362500", "135938.852500", "135940.342500", "135941.832500", "135943.322500", "135944.812500", "135946.302500", "135947.792500", "135949.282500", "135950.772500", "135952.262500", "135953.752500", "135955.242500", "135956.732500", "135958.222500", "135959.712500", "140001.202500", "140002.692500", "140004.182500", "140005.672500", "140007.162500", "140008.652500", "140010.142500", "140011.632500", "140013.122500", "140014.612500", "140016.102500", "140017.592500", "140019.082500", "140020.572500", "140022.062500", "140023.552500", "140025.042500", "140026.532500", "140028.022500", "140029.512500", "140031.002500", "140032.492500", "140033.982500", "140035.472500", "140036.962500", "140038.452500", "140039.942500", "140041.432500", "140042.922500", "140044.412500", "140045.902500", "140047.392500", "140048.882500", "140050.372500", "140051.862500", "140053.352500", "140054.842500", "140056.332500", "140057.822500", "140059.312500", "140100.802500", "140102.292500", "140103.782500", "140105.272500", "140106.762500", "140108.252500", "140109.742500", "140111.232500", "140112.722500", "140114.212500", "140115.702500", "140117.192500", "140118.682500", "140120.172500", "140121.662500", "140123.152500", "140124.642500", "140126.132500", "140127.622500", "140129.112500", "140130.602500", "140132.092500", "140133.582500", "140135.072500", "140136.562500", "140138.052500", "140139.542500", "140141.032500", "140142.522500", "140144.012500", "140145.502500", "140146.992500", "140148.482500", "140149.972500", "140151.462500", "140152.952500", "140154.442500", "140155.932500", "140157.422500", "140158.912500", "140200.402500", "140201.892500", "140203.382500", "140204.872500", "140206.362500", "140207.852500", "140209.342500", "140210.832500", "140212.322500", "140213.812500", "140215.302500", "140216.792500", "140218.282500", "140219.772500", "140221.262500", "140222.752500", "140224.242500", "140225.732500", "140227.222500", "140228.712500", "140230.202500", "140231.692500", "140233.182500", "140234.672500", "140236.162500", "140237.652500", "140239.142500", "140240.632500", "140242.122500", "140243.612500", "140245.102500", "140246.592500", "140248.082500", "140249.572500", "140251.062500", "140252.552500"],
      "ContentTime": ["135345.363000", "135345.365000", "135345.368000", "135345.370000", "135345.373000", "135345.375000", "135345.378000", "135345.380000", "135345.383000", "135345.385000", "135345.387000", "135345.390000", "135345.398000", "135345.400000", "135345.403000", "135345.405000", "135345.408000", "135345.410000", "135345.413000", "135345.415000", "135345.418000", "135345.420000", "135405.280000", "135405.282000", "135405.285000", "135405.287000", "135405.290000", "135405.292000", "135405.295000", "135405.297000", "135405.302000", "135405.305000", "135405.307000", "135405.309000", "135405.312000", "135405.314000", "135405.317000", "135405.319000", "135405.322000", "135405.324000", "135405.327000", "135405.329000", "135425.291000", "135425.294000", "135425.296000", "135425.299000", "135425.301000", "135425.304000", "135425.306000", "135425.308000", "135425.314000", "135425.317000", "135425.319000", "135425.321000", "135425.324000", "135425.327000", "135425.329000", "135425.332000", "135425.334000", "135425.336000", "135425.339000", "135425.341000", "135445.307000", "135445.310000", "135445.312000", "135445.315000", "135445.317000", "135445.320000", "135445.322000", "135445.325000", "135445.327000", "135445.330000", "135445.332000", "135445.335000", "135445.337000", "135445.340000", "135445.345000", "135445.348000", "135445.350000", "135445.352000", "135445.355000", "135445.357000", "135505.289000", "135505.292000", "135505.294000", "135505.297000", "135505.299000", "135505.302000", "135505.304000", "135505.307000", "135505.309000", "135505.312000", "135505.315000", "135505.317000", "135505.320000", "135505.322000", "135505.325000", "135505.328000", "135505.331000", "135505.334000", "135505.336000", "135505.339000", "135545.348000", "135545.351000", "135545.353000", "135545.356000", "135545.365000", "135545.367000", "135545.370000", "135545.372000", "135545.375000", "135545.377000", "135545.380000", "135545.382000", "135545.385000", "135545.388000", "135545.390000", "135545.393000", "135545.395000", "135545.398000", "135545.400000", "135545.403000", "135545.405000", "135545.408000", "135545.410000", "135545.413000", "135545.415000", "135545.418000", "135545.420000", "135545.423000", "135545.425000", "135625.367000", "135625.370000", "135625.372000", "135625.375000", "135625.377000", "135625.380000", "135625.382000", "135625.416000", "135625.419000", "135625.421000", "135625.424000", "135625.426000", "135625.429000", "135625.439000", "135625.442000", "135625.444000", "135625.447000", "135625.449000", "135625.451000", "135625.454000", "135625.456000", "135625.459000", "135625.461000", "135625.464000", "135625.466000", "135625.469000", "135625.471000", "135705.330000", "135705.333000", "135705.335000", "135705.337000", "135705.340000", "135705.343000", "135705.345000", "135705.347000", "135705.350000", "135705.352000", "135705.355000", "135705.357000", "135705.360000", "135705.362000", "135705.365000", "135705.367000", "135705.370000", "135705.372000", "135705.375000", "135705.377000", "135705.379000", "135705.382000", "135705.385000", "135705.387000", "135705.390000", "135705.392000", "135705.395000", "135745.828000", "135745.831000", "135745.834000", "135745.837000", "135745.839000", "135745.842000", "135745.844000", "135745.847000", "135745.849000", "135745.852000", "135745.854000", "135745.857000", "135745.859000", "135745.862000", "135745.864000", "135745.867000", "135745.870000", "135745.872000", "135745.875000", "135745.877000", "135745.880000", "135745.889000", "135745.892000", "135745.895000", "135745.897000", "135745.900000", "135745.902000", "135825.328000", "135825.330000", "135825.333000", "135825.335000", "135825.338000", "135825.340000", "135825.343000", "135825.345000", "135825.348000", "135825.350000", "135825.353000", "135825.355000", "135825.358000", "135825.360000", "135825.362000", "135825.365000", "135825.367000", "135825.370000", "135825.372000", "135825.375000", "135825.377000", "135825.380000", "135825.382000", "135825.385000", "135825.387000", "135825.390000", "135825.392000", "135905.312000", "135905.315000", "135905.318000", "135905.320000", "135905.323000", "135905.325000", "135905.327000", "135905.330000", "135905.332000", "135905.335000", "135905.337000", "135905.340000", "135905.342000", "135905.345000", "135905.347000", "135905.350000", "135905.352000", "135905.355000", "135905.357000", "135905.359000", "135905.362000", "135905.364000", "135905.367000", "135905.369000", "135905.372000", "135905.374000", "135905.377000", "135945.314000", "135945.317000", "135945.320000", "135945.322000", "135945.325000", "135945.327000", "135945.330000", "135945.332000", "135945.335000", "135945.337000", "135945.339000", "135945.342000", "135945.344000", "135945.353000", "135945.355000", "135945.358000", "135945.360000", "135945.363000", "135945.365000", "135945.368000", "135945.370000", "135945.373000", "135945.375000", "135945.378000", "135945.380000", "135945.383000", "140025.333000", "140025.336000", "140025.339000", "140025.341000", "140025.343000", "140025.346000", "140025.348000", "140025.351000", "140025.353000", "140025.356000", "140025.358000", "140025.362000", "140025.369000", "140025.372000", "140025.374000", "140025.377000", "140025.379000", "140025.382000", "140025.384000", "140025.387000", "140025.389000", "140025.392000", "140025.394000", "140025.397000", "140025.399000", "140025.402000", "140025.404000", "140105.336000", "140105.338000", "140105.341000", "140105.350000", "140105.352000", "140105.354000", "140105.357000", "140105.359000", "140105.362000", "140105.364000", "140105.367000", "140105.369000", "140105.372000", "140105.374000", "140105.377000", "140105.382000", "140105.385000", "140105.387000", "140105.390000", "140105.392000", "140105.395000", "140105.397000", "140105.400000", "140105.402000", "140105.405000", "140105.407000", "140105.410000", "140145.316000", "140145.319000", "140145.321000", "140145.324000", "140145.326000", "140145.329000", "140145.331000", "140145.334000", "140145.336000", "140145.339000", "140145.341000", "140145.344000", "140145.346000", "140145.349000", "140145.351000", "140145.353000", "140145.362000", "140145.364000", "140145.367000", "140145.369000", "140145.371000", "140145.374000", "140145.377000", "140145.379000", "140145.382000", "140145.384000", "140145.387000", "140225.324000", "140225.340000", "140225.343000", "140225.345000", "140225.348000", "140225.350000", "140225.353000", "140225.359000", "140225.361000", "140225.364000", "140225.366000", "140225.369000", "140225.371000", "140225.374000", "140225.376000", "140225.379000", "140225.381000", "140225.384000", "140225.386000", "140225.389000", "140225.391000", "140225.394000", "140225.396000", "140225.399000", "140225.401000", "140225.411000", "140225.413000", "140255.990000", "140255.992000", "140255.995000", "140255.998000", "140256.001000", "140256.004000", "140256.006000", "140256.009000", "140256.011000", "140256.014000", "140256.016000", "140256.019000", "140256.021000", "140256.024000", "140256.026000", "140256.034000", "140256.036000", "140256.039000", "140256.041000", "140256.044000"],
      "InstanceCreationTime": ["135345.363000", "135345.365000", "135345.368000", "135345.370000", "135345.373000", "135345.375000", "135345.378000", "135345.380000", "135345.383000", "135345.385000", "135345.387000", "135345.390000", "135345.398000", "135345.400000", "135345.403000", "135345.405000", "135345.408000", "135345.410000", "135345.413000", "135345.415000", "135345.418000", "135345.420000", "135405.280000", "135405.282000", "135405.285000", "135405.287000", "135405.290000", "135405.292000", "135405.295000", "135405.297000", "135405.302000", "135405.305000", "135405.307000", "135405.309000", "135405.312000", "135405.314000", "135405.317000", "135405.319000", "135405.322000", "135405.324000", "135405.327000", "135405.329000", "135425.291000", "135425.294000", "135425.296000", "135425.299000", "135425.301000", "135425.304000", "135425.306000", "135425.308000", "135425.314000", "135425.317000", "135425.319000", "135425.321000", "135425.324000", "135425.327000", "135425.329000", "135425.332000", "135425.334000", "135425.336000", "135425.339000", "135425.341000", "135445.307000", "135445.310000", "135445.312000", "135445.315000", "135445.317000", "135445.320000", "135445.322000", "135445.325000", "135445.327000", "135445.330000", "135445.332000", "135445.335000", "135445.337000", "135445.340000", "135445.345000", "135445.348000", "135445.350000", "135445.352000", "135445.355000", "135445.357000", "135505.289000", "135505.292000", "135505.294000", "135505.297000", "135505.299000", "135505.302000", "135505.304000", "135505.307000", "135505.309000", "135505.312000", "135505.315000", "135505.317000", "135505.320000", "135505.322000", "135505.325000", "135505.328000", "135505.331000", "135505.334000", "135505.336000", "135505.339000", "135545.348000", "135545.351000", "135545.353000", "135545.356000", "135545.365000", "135545.367000", "135545.370000", "135545.372000", "135545.375000", "135545.377000", "135545.380000", "135545.382000", "135545.385000", "135545.388000", "135545.390000", "135545.393000", "135545.395000", "135545.398000", "135545.400000", "135545.403000", "135545.405000", "135545.408000", "135545.410000", "135545.413000", "135545.415000", "135545.418000", "135545.420000", "135545.423000", "135545.425000", "135625.367000", "135625.370000", "135625.372000", "135625.375000", "135625.377000", "135625.380000", "135625.382000", "135625.416000", "135625.419000", "135625.421000", "135625.424000", "135625.426000", "135625.429000", "135625.439000", "135625.442000", "135625.444000", "135625.447000", "135625.449000", "135625.451000", "135625.454000", "135625.456000", "135625.459000", "135625.461000", "135625.464000", "135625.466000", "135625.469000", "135625.471000", "135705.330000", "135705.333000", "135705.335000", "135705.337000", "135705.340000", "135705.343000", "135705.345000", "135705.347000", "135705.350000", "135705.352000", "135705.355000", "135705.357000", "135705.360000", "135705.362000", "135705.365000", "135705.367000", "135705.370000", "135705.372000", "135705.375000", "135705.377000", "135705.379000", "135705.382000", "135705.385000", "135705.387000", "135705.390000", "135705.392000", "135705.395000", "135745.828000", "135745.831000", "135745.834000", "135745.837000", "135745.839000", "135745.842000", "135745.844000", "135745.847000", "135745.849000", "135745.852000", "135745.854000", "135745.857000", "135745.859000", "135745.862000", "135745.864000", "135745.867000", "135745.870000", "135745.872000", "135745.875000", "135745.877000", "135745.880000", "135745.889000", "135745.892000", "135745.895000", "135745.897000", "135745.900000", "135745.902000", "135825.328000", "135825.330000", "135825.333000", "135825.335000", "135825.338000", "135825.340000", "135825.343000", "135825.345000", "135825.348000", "135825.350000", "135825.353000", "135825.355000", "135825.358000", "135825.360000", "135825.362000", "135825.365000", "135825.367000", "135825.370000", "135825.372000", "135825.375000", "135825.377000", "135825.380000", "135825.382000", "135825.385000", "135825.387000", "135825.390000", "135825.392000", "135905.312000", "135905.315000", "135905.318000", "135905.320000", "135905.323000", "135905.325000", "135905.327000", "135905.330000", "135905.332000", "135905.335000", "135905.337000", "135905.340000", "135905.342000", "135905.345000", "135905.347000", "135905.350000", "135905.352000", "135905.355000", "135905.357000", "135905.359000", "135905.362000", "135905.364000", "135905.367000", "135905.369000", "135905.372000", "135905.374000", "135905.377000", "135945.314000", "135945.317000", "135945.320000", "135945.322000", "135945.325000", "135945.327000", "135945.330000", "135945.332000", "135945.335000", "135945.337000", "135945.339000", "135945.342000", "135945.344000", "135945.353000", "135945.355000", "135945.358000", "135945.360000", "135945.363000", "135945.365000", "135945.368000", "135945.370000", "135945.373000", "135945.375000", "135945.378000", "135945.380000", "135945.383000", "140025.333000", "140025.336000", "140025.339000", "140025.341000", "140025.343000", "140025.346000", "140025.348000", "140025.351000", "140025.353000", "140025.356000", "140025.358000", "140025.362000", "140025.369000", "140025.372000", "140025.374000", "140025.377000", "140025.379000", "140025.382000", "140025.384000", "140025.387000", "140025.389000", "140025.392000", "140025.394000", "140025.397000", "140025.399000", "140025.402000", "140025.404000", "140105.336000", "140105.338000", "140105.341000", "140105.350000", "140105.352000", "140105.354000", "140105.357000", "140105.359000", "140105.362000", "140105.364000", "140105.367000", "140105.369000", "140105.372000", "140105.374000", "140105.377000", "140105.382000", "140105.385000", "140105.387000", "140105.390000", "140105.392000", "140105.395000", "140105.397000", "140105.400000", "140105.402000", "140105.405000", "140105.407000", "140105.410000", "140145.316000", "140145.319000", "140145.321000", "140145.324000", "140145.326000", "140145.329000", "140145.331000", "140145.334000", "140145.336000", "140145.339000", "140145.341000", "140145.344000", "140145.346000", "140145.349000", "140145.351000", "140145.353000", "140145.362000", "140145.364000", "140145.367000", "140145.369000", "140145.371000", "140145.374000", "140145.377000", "140145.379000", "140145.382000", "140145.384000", "140145.387000", "140225.324000", "140225.340000", "140225.343000", "140225.345000", "140225.348000", "140225.350000", "140225.353000", "140225.359000", "140225.361000", "140225.364000", "140225.366000", "140225.369000", "140225.371000", "140225.374000", "140225.376000", "140225.379000", "140225.381000", "140225.384000", "140225.386000", "140225.389000", "140225.391000", "140225.394000", "140225.396000", "140225.399000", "140225.401000", "140225.411000", "140225.413000", "140255.990000", "140255.992000", "140255.995000", "140255.998000", "140256.001000", "140256.004000", "140256.006000", "140256.009000", "140256.011000", "140256.014000", "140256.016000", "140256.019000", "140256.021000", "140256.024000", "140256.026000", "140256.034000", "140256.036000", "140256.039000", "140256.041000", "140256.044000"],
