{
  "AcquisitionMatrixPE": 104,
  "AcquisitionNumber": 1,
  "AcquisitionTime": "14:04:26.545000",
  "BandwidthPerPixelPhaseEncode": 17.17,
  "BaseResolution": 104,
  "BodyPartExamined": "BRAIN",
  "CoilString": "HC1-7;NC1_2",
  "ConsistencyInfo": "N4_VE11C_LATEST_20160120",
  "ConversionSoftware": "dcm2niix",
  "ConversionSoftwareVersion": "v1.0.20190902",
  "DerivedVendorReportedEchoSpacing": 0.000560011,
  "DeviceSerialNumber": "167006",
  "DwellTime": 2.1e-06,
  "EchoTime": 0.037,
  "EchoTrainLength": 104,
  "EffectiveEchoSpacing": 0.000560011,
  "FlipAngle": 52,
  "HeudiconvVersion": "0.10.0",
  "ImageComments": "Unaliased_MB4_PE3_LB",
  "ImageOrientationPatientDICOM": [0.999658, 0.0119491, 0.0232501, 0.00139576, 0.863747, -0.503923],
  "ImageType": [
    "ORIGINAL",
    "PRIMARY",
    "M",
    "MB",
    "ND",
    "MOSAIC"
],
  "ImagingFrequency": 123.259,
  "InPlanePhaseEncodingDirectionDICOM": "COL",
  "InstitutionAddress": "Chemin_Queen-Mary_4565_Montreal_District_CA_H3W_1W5",
  "InstitutionName": "IUGM",
  "InstitutionalDepartmentName": "Department",
  "MRAcquisitionType": "2D",
  "MagneticFieldStrength": 3,
  "Manufacturer": "Siemens",
  "ManufacturersModelName": "Prisma_fit",
  "Modality": "MR",
  "MultibandAccelerationFactor": 4,
  "PartialFourier": 1,
  "PatientPosition": "HFS",
  "PercentPhaseFOV": 100,
  "PhaseEncodingDirection": "j",
  "PhaseEncodingSteps": 104,
  "PhaseResolution": 1,
  "PixelBandwidth": 2290,
  "ProcedureStepDescription": "games_mario",
  "ProtocolName": "func_task-mario_run-02",
  "PulseSequenceDetails": "%CustomerSeq%_cmrr_mbep2d_bold",
  "ReceiveCoilActiveElements": "HC1-7;NC1,2",
  "ReceiveCoilName": "HeadNeck_64",
  "ReconMatrixPE": 104,
  "RepetitionTime": 1.49,
  "SAR": 0.0604176,
  "ScanOptions": "FS",
  "ScanningSequence": "EP",
  "SequenceName": "epfid2d1_104",
  "SequenceVariant": "SK_SS",
  "SeriesDescription": "func_task-mario_run-02",
  "SeriesNumber": 13,
  "ShimSetting": [618, -7177, -8860, 300, 2, -155, -32, -26],
  "SliceThickness": 2,
  "SliceTiming": [0, 0.785, 0.0975, 0.8825, 0.1975, 0.98, 0.295, 1.0775, 0.3925, 1.1775, 0.49, 1.275, 0.5875, 1.3725, 0.6875, 0, 0.785, 0.0975, 0.8825, 0.1975, 0.98, 0.295, 1.0775, 0.3925, 1.1775, 0.49, 1.275, 0.5875, 1.3725, 0.6875, 0, 0.785, 0.0975, 0.8825, 0.1975, 0.98, 0.295, 1.0775, 0.3925, 1.1775, 0.49, 1.275, 0.5875, 1.3725, 0.6875, 0, 0.785, 0.0975, 0.8825, 0.1975, 0.98, 0.295, 1.0775, 0.3925, 1.1775, 0.49, 1.275, 0.5875, 1.3725, 0.6875],
  "SoftwareVersions": "syngo_MR_E11",
  "SpacingBetweenSlices": 2,
  "StationName": "MRC35049",
  "TaskName": "mario",
  "TotalReadoutTime": 0.0576811,
  "TxRefAmp": 291.612,
  "WipMemBlock": "da534a99-a5ab-44f2-a7ed-e6d5b2a8e9b4||Sequence: R016 ve11c/master r/e634e98; Dec 19 2017 11:00:25 by eja",
  "dcmmeta_affine": [
    [-1.9993165731430054, 0.002791517646983266, 0.05220726504921913, 105.68477630615234],
    [-0.02389814890921116, 1.7274948358535767, -1.0075665712356567, -51.108299255371094],
    [0.04650021344423294, 1.0078461170196533, 1.726871132850647, -97.93193817138672],
    [0.0, 0.0, 0.0, 1.0]
],
  "dcmmeta_reorient_transform": [
    [0.0, -1.0, 0.0, 103.0],
    [1.0, 0.0, 0.0, 0.0],
    [0.0, 0.0, 1.0, 0.0],
    [0.0, 0.0, 0.0, 1.0]
],
  "dcmmeta_shape": [104, 104, 60, 470],
  "dcmmeta_slice_dim": 2,
  "dcmmeta_version": 0.6,
  "global": {
    "const": {
      "AcquisitionMatrix": [104, 0, 0, 104],
      "AngioFlag": "N",
      "BitsAllocated": 16,
      "BitsStored": 16,
      "BodyPartExamined": "BRAIN",
      "Columns": 832,
      "EchoNumbers": 1,
      "EchoTime": 37.0,
      "EchoTrainLength": 104,
      "FlipAngle": 52.0,
      "HighBit": 15,
      "ImageOrientationPatient": [0.99965826770287, 0.01194907445747, 0.02325010608393, 0.00139575885641, 0.86374742760655, -0.5039230428947],
      "ImagePositionPatient": [-834.73963196301, -764.33072567918, 355.80610626595],
      "ImageType": [
        "ORIGINAL",
        "PRIMARY",
        "M",
        "MB",
        "ND",
        "MOSAIC"
],
      "ImagedNucleus": "1H",
      "ImagingFrequency": 123.25892,
      "InPlanePhaseEncodingDirection": "COL",
      "MRAcquisitionType": "2D",
      "MagneticFieldStrength": 3.0,
      "Manufacturer": "SIEMENS",
      "ManufacturerModelName": "Prisma_fit",
      "Modality": "MR",
      "NumberOfAverages": 1.0,
      "NumberOfPhaseEncodingSteps": 104,
      "PercentPhaseFieldOfView": 100.0,
      "PercentSampling": 100.0,
      "PerformedProcedureStepStartTime": "132141.013000",
      "PhotometricInterpretation": "MONOCHROME2",
      "PixelBandwidth": 2290.0,
      "PixelRepresentation": 0,
      "PixelSpacing": [2.0, 2.0],
      "ProtocolName": "func_task-mario_run-02",
      "RepetitionTime": 1490.0,
      "Rows": 832,
      "SAR": 0.06041759451132,
      "SamplesPerPixel": 1,
      "ScanOptions": "FS",
      "ScanningSequence": "EP",
      "SequenceName": "epfid2d1_104",
      "SequenceVariant": [
        "SK",
        "SS"
],
      "SeriesDescription": "func_task-mario_run-02",
      "SeriesNumber": 13,
      "SeriesTime": "140547.690000",
      "SliceLocation": -56.051657159206,
      "SliceThickness": 2.0,
      "SmallestImagePixelValue": 0,
      "SoftwareVersions": "syngo MR E11",
      "SpacingBetweenSlices": 1.9999999941911,
      "SpecificCharacterSet": "ISO_IR 100",
      "StudyID": "1",
      "StudyTime": "132140.882000",
      "TransmitCoilName": "Body",
      "VariableFlipAngleFlag": "N",
      "WindowCenterWidthExplanation": "Algo1",
      "dBdt": 0.0},
    "slices": {}
  },
  "time": {
    "samples": {
      "AcquisitionNumber": [1, 2, 3, 4, 5, 6, 7, 8, 9, 10, 11, 12, 13, 14, 15, 16, 17, 18, 19, 20, 21, 22, 23, 24, 25, 26, 27, 28, 29, 30, 31, 32, 33, 34, 35, 36, 37, 38, 39, 40, 41, 42, 43, 44, 45, 46, 47, 48, 49, 50, 51, 52, 53, 54, 55, 56, 57, 58, 59, 60, 61, 62, 63, 64, 65, 66, 67, 68, 69, 70, 71, 72, 73, 74, 75, 76, 77, 78, 79, 80, 81, 82, 83, 84, 85, 86, 87, 88, 89, 90, 91, 92, 93, 94, 95, 96, 97, 98, 99, 100, 101, 102, 103, 104, 105, 106, 107, 108, 109, 110, 111, 112, 113, 114, 115, 116, 117, 118, 119, 120, 121, 122, 123, 124, 125, 126, 127, 128, 129, 130, 131, 132, 133, 134, 135, 136, 137, 138, 139, 140, 141, 142, 143, 144, 145, 146, 147, 148, 149, 150, 151, 152, 153, 154, 155, 156, 157, 158, 159, 160, 161, 162, 163, 164, 165, 166, 167, 168, 169, 170, 171, 172, 173, 174, 175, 176, 177, 178, 179, 180, 181, 182, 183, 184, 185, 186, 187, 188, 189, 190, 191, 192, 193, 194, 195, 196, 197, 198, 199, 200, 201, 202, 203, 204, 205, 206, 207, 208, 209, 210, 211, 212, 213, 214, 215, 216, 217, 218, 219, 220, 221, 222, 223, 224, 225, 226, 227, 228, 229, 230, 231, 232, 233, 234, 235, 236, 237, 238, 239, 240, 241, 242, 243, 244, 245, 246, 247, 248, 249, 250, 251, 252, 253, 254, 255, 256, 257, 258, 259, 260, 261, 262, 263, 264, 265, 266, 267, 268, 269, 270, 271, 272, 273, 274, 275, 276, 277, 278, 279, 280, 281, 282, 283, 284, 285, 286, 287, 288, 289, 290, 291, 292, 293, 294, 295, 296, 297, 298, 299, 300, 301, 302, 303, 304, 305, 306, 307, 308, 309, 310, 311, 312, 313, 314, 315, 316, 317, 318, 319, 320, 321, 322, 323, 324, 325, 326, 327, 328, 329, 330, 331, 332, 333, 334, 335, 336, 337, 338, 339, 340, 341, 342, 343, 344, 345, 346, 347, 348, 349, 350, 351, 352, 353, 354, 355, 356, 357, 358, 359, 360, 361, 362, 363, 364, 365, 366, 367, 368, 369, 370, 371, 372, 373, 374, 375, 376, 377, 378, 379, 380, 381, 382, 383, 384, 385, 386, 387, 388, 389, 390, 391, 392, 393, 394, 395, 396, 397, 398, 399, 400, 401, 402, 403, 404, 405, 406, 407, 408, 409, 410, 411, 412, 413, 414, 415, 416, 417, 418, 419, 420, 421, 422, 423, 424, 425, 426, 427, 428, 429, 430, 431, 432, 433, 434, 435, 436, 437, 438, 439, 440, 441, 442, 443, 444, 445, 446, 447, 448, 449, 450, 451, 452, 453, 454, 455, 456, 457, 458, 459, 460, 461, 462, 463, 464, 465, 466, 467, 468, 469, 470],
      "AcquisitionTime": ["140426.545000", "140428.035000", "140429.525000", "140431.015000", "140432.505000", "140433.995000", "140435.485000", "140436.975000", "140438.465000", "140439.955000", "140441.445000", "140442.935000", "140444.425000", "140445.915000", "140447.405000", "140448.895000", "140450.385000", "140451.875000", "140453.365000", "140454.855000", "140456.345000", "140457.835000", "140459.325000", "140500.815000", "140502.305000", "140503.795000", "140505.285000", "140506.775000", "140508.265000", "140509.755000", "140511.245000", "140512.735000", "140514.225000", "140515.715000", "140517.205000", "140518.695000", "140520.185000", "140521.675000", "140523.165000", "140524.655000", "140526.145000", "140527.635000", "140529.125000", "140530.615000", "140532.105000", "140533.595000", "140535.085000", "140536.575000", "140538.065000", "140539.555000", "140541.045000", "140542.535000", "140544.025000", "140545.515000", "140547.005000", "140548.495000", "140549.985000", "140551.475000", "140552.965000", "140554.455000", "140555.945000", "140557.435000", "140558.925000", "140600.415000", "140601.905000", "140603.395000", "140604.885000", "140606.375000", "140607.865000", "140609.355000", "140610.845000", "140612.335000", "140613.825000", "140615.315000", "140616.805000", "140618.295000", "140619.785000", "140621.275000", "140622.765000", "140624.255000", "140625.745000", "140627.235000", "140628.725000", "140630.215000", "140631.705000", "140633.195000", "140634.685000", "140636.175000", "140637.665000", "140639.155000", "140640.645000", "140642.135000", "140643.625000", "140645.115000", "140646.605000", "140648.095000", "140649.585000", "140651.075000", "140652.565000", "140654.055000", "140655.545000", "140657.035000", "140658.525000", "140700.015000", "140701.505000", "140702.995000", "140704.485000", "140705.975000", "140707.465000", "140708.955000", "140710.445000", "140711.935000", "140713.425000", "140714.915000", "140716.405000", "140717.895000", "140719.385000", "140720.875000", "140722.365000", "140723.855000", "140725.345000", "140726.835000", "140728.325000", "140729.815000", "140731.305000", "140732.795000", "140734.285000", "140735.775000", "140737.265000", "140738.755000", "140740.245000", "140741.735000", "140743.225000", "140744.715000", "140746.205000", "140747.695000", "140749.185000", "140750.675000", "140752.165000", "140753.655000", "140755.145000", "140756.635000", "140758.125000", "140759.615000", "140801.105000", "140802.595000", "140804.085000", "140805.575000", "140807.065000", "140808.555000", "140810.045000", "140811.535000", "140813.025000", "140814.515000", "140816.005000", "140817.495000", "140818.985000", "140820.475000", "140821.965000", "140823.455000", "140824.945000", "140826.435000", "140827.925000", "140829.415000", "140830.905000", "140832.395000", "140833.885000", "140835.375000", "140836.865000", "140838.355000", "140839.845000", "140841.335000", "140842.825000", "140844.315000", "140845.805000", "140847.295000", "140848.785000", "140850.275000", "140851.765000", "140853.255000", "140854.745000", "140856.235000", "140857.725000", "140859.215000", "140900.705000", "140902.195000", "140903.685000", "140905.175000", "140906.665000", "140908.155000", "140909.645000", "140911.135000", "140912.625000", "140914.115000", "140915.605000", "140917.095000", "140918.585000", "140920.075000", "140921.565000", "140923.055000", "140924.545000", "140926.035000", "140927.525000", "140929.015000", "140930.505000", "140931.995000", "140933.485000", "140934.975000", "140936.465000", "140937.955000", "140939.445000", "140940.935000", "140942.425000", "140943.915000", "140945.405000", "140946.895000", "140948.385000", "140949.875000", "140951.365000", "140952.855000", "140954.345000", "140955.835000", "140957.325000", "140958.815000", "141000.305000", "141001.795000", "141003.285000", "141004.775000", "141006.265000", "141007.755000", "141009.245000", "141010.735000", "141012.225000", "141013.715000", "141015.205000", "141016.695000", "141018.185000", "141019.675000", "141021.165000", "141022.655000", "141024.145000", "141025.635000", "141027.125000", "141028.615000", "141030.105000", "141031.595000", "141033.085000", "141034.575000", "141036.065000", "141037.555000", "141039.045000", "141040.535000", "141042.025000", "141043.515000", "141045.005000", "141046.495000", "141047.985000", "141049.475000", "141050.965000", "141052.455000", "141053.945000", "141055.435000", "141056.925000", "141058.415000", "141059.905000", "141101.395000", "141102.885000", "141104.375000", "141105.865000", "141107.355000", "141108.845000", "141110.335000", "141111.825000", "141113.315000", "141114.805000", "141116.295000", "141117.785000", "141119.275000", "141120.765000", "141122.255000", "141123.745000", "141125.235000", "141126.725000", "141128.215000", "141129.705000", "141131.195000", "141132.685000", "141134.175000", "141135.665000", "141137.155000", "141138.645000", "141140.135000", "141141.625000", "141143.115000", "141144.605000", "141146.095000", "141147.585000", "141149.075000", "141150.565000", "141152.055000", "141153.545000", "141155.035000", "141156.525000", "141158.015000", "141159.505000", "141200.995000", "141202.485000", "141203.975000", "141205.465000", "141206.955000", "141208.445000", "141209.935000", "141211.425000", "141212.915000", "141214.405000", "141215.895000", "141217.385000", "141218.875000", "141220.365000", "141221.855000", "141223.345000", "141224.835000", "141226.325000", "141227.815000", "141229.305000", "141230.795000", "141232.285000", "141233.775000", "141235.265000", "141236.755000", "141238.245000", "141239.735000", "141241.225000", "141242.715000", "141244.205000", "141245.695000", "141247.185000", "141248.675000", "141250.165000", "141251.655000", "141253.145000", "141254.635000", "141256.125000", "141257.615000", "141259.105000", "141300.595000", "141302.085000", "141303.575000", "141305.065000", "141306.555000", "141308.045000", "141309.535000", "141311.025000", "141312.515000", "141314.005000", "141315.495000", "141316.985000", "141318.475000", "141319.965000", "141321.455000", "141322.945000", "141324.435000", "141325.925000", "141327.415000", "141328.905000", "141330.395000", "141331.885000", "141333.375000", "141334.865000", "141336.355000", "141337.845000", "141339.335000", "141340.825000", "141342.315000", "141343.805000", "141345.295000", "141346.785000", "141348.275000", "141349.765000", "141351.255000", "141352.745000", "141354.235000", "141355.725000", "141357.215000", "141358.705000", "141400.195000", "141401.685000", "141403.175000", "141404.665000", "141406.155000", "141407.645000", "141409.135000", "141410.625000", "141412.115000", "141413.605000", "141415.095000", "141416.585000", "141418.075000", "141419.565000", "141421.055000", "141422.545000", "141424.035000", "141425.525000", "141427.015000", "141428.505000", "141429.995000", "141431.485000", "141432.975000", "141434.465000", "141435.955000", "141437.445000", "141438.935000", "141440.425000", "141441.915000", "141443.405000", "141444.895000", "141446.385000", "141447.875000", "141449.365000", "141450.855000", "141452.345000", "141453.835000", "141455.325000", "141456.815000", "141458.305000", "141459.795000", "141501.285000", "141502.775000", "141504.265000", "141505.755000", "141507.245000", "141508.735000", "141510.225000", "141511.715000", "141513.205000", "141514.695000", "141516.185000", "141517.675000", "141519.165000", "141520.655000", "141522.145000", "141523.635000", "141525.125000", "141526.615000", "141528.105000", "141529.595000", "141531.085000", "141532.575000", "141534.065000", "141535.555000", "141537.045000", "141538.535000", "141540.025000", "141541.515000", "141543.005000", "141544.495000", "141545.985000", "141547.475000", "141548.965000", "141550.455000", "141551.945000", "141553.435000", "141554.925000", "141556.415000", "141557.905000", "141559.395000", "141600.885000", "141602.375000", "141603.865000", "141605.355000"],
      "ContentTime": ["140547.693000", "140547.697000", "140547.701000", "140547.704000", "140547.707000", "140547.710000", "140547.714000", "140547.717000", "140547.720000", "140547.723000", "140547.727000", "140547.730000", "140547.733000", "140547.736000", "140547.740000", "140547.743000", "140547.746000", "140547.749000", "140547.753000", "140547.756000", "140547.768000", "140547.771000", "140547.775000", "140547.778000", "140547.781000", "140547.784000", "140607.655000", "140607.659000", "140607.662000", "140607.665000", "140607.668000", "140607.672000", "140607.675000", "140607.678000", "140607.682000", "140607.685000", "140607.688000", "140607.691000", "140607.694000", "140607.698000", "140607.701000", "140607.718000", "140607.721000", "140607.724000", "140607.727000", "140607.730000", "140627.655000", "140627.659000", "140627.662000", "140627.665000", "140627.668000", "140627.672000", "140627.675000", "140627.678000", "140627.682000", "140627.685000", "140627.688000", "140627.692000", "140627.695000", "140627.698000", "140627.702000", "140627.705000", "140627.708000", "140627.711000", "140627.715000", "140627.718000", "140647.655000", "140647.659000", "140647.662000", "140647.665000", "140647.668000", "140647.672000", "140647.675000", "140647.697000", "140647.706000", "140647.709000", "140647.712000", "140647.716000", "140647.721000", "140647.726000", "140647.730000", "140647.734000", "140647.737000", "140647.741000", "140647.744000", "140647.748000", "140707.656000", "140707.660000", "140707.664000", "140707.668000", "140707.671000", "140707.674000", "140707.678000", "140707.681000", "140707.684000", "140707.688000", "140707.691000", "140707.694000", "140707.697000", "140707.701000", "140707.704000", "140707.707000", "140707.710000", "140707.714000", "140707.717000", "140707.720000", "140747.656000", "140747.659000", "140747.663000", "140747.666000", "140747.669000", "140747.673000", "140747.676000", "140747.679000", "140747.682000", "140747.685000", "140747.689000", "140747.692000", "140747.695000", "140747.698000", "140747.702000", "140747.705000", "140747.708000", "140747.711000", "140747.715000", "140747.718000", "140747.721000", "140747.724000", "140747.728000", "140747.731000", "140747.734000", "140747.737000", "140747.740000", "140747.744000", "140827.655000", "140827.659000", "140827.662000", "140827.665000", "140827.668000", "140827.672000", "140827.675000", "140827.678000", "140827.681000", "140827.685000", "140827.688000", "140827.691000", "140827.695000", "140827.698000", "140827.701000", "140827.705000", "140827.708000", "140827.711000", "140827.714000", "140827.718000", "140827.721000", "140827.724000", "140827.728000", "140827.731000", "140827.734000", "140827.737000", "140827.741000", "140907.655000", "140907.659000", "140907.662000", "140907.665000", "140907.669000", "140907.672000", "140907.675000", "140907.679000", "140907.682000", "140907.685000", "140907.688000", "140907.692000", "140907.695000", "140907.714000", "140907.717000", "140907.720000", "140907.724000", "140907.727000", "140907.730000", "140907.734000", "140907.737000", "140907.740000", "140907.743000", "140907.747000", "140907.750000", "140907.753000", "140907.756000", "140947.655000", "140947.659000", "140947.662000", "140947.665000", "140947.669000", "140947.672000", "140947.675000", "140947.678000", "140947.682000", "140947.685000", "140947.688000", "140947.691000", "140947.695000", "140947.698000", "140947.701000", "140947.705000", "140947.708000", "140947.711000", "140947.714000", "140947.718000", "140947.721000", "140947.724000", "140947.727000", "140947.731000", "140947.734000", "140947.737000", "140947.741000", "141027.657000", "141027.662000", "141027.667000", "141027.671000", "141027.674000", "141027.678000", "141027.682000", "141027.685000", "141027.688000", "141027.691000", "141027.695000", "141027.698000", "141027.701000", "141027.705000", "141027.708000", "141027.711000", "141027.714000", "141027.718000", "141027.721000", "141027.724000", "141027.728000", "141027.731000", "141027.734000", "141027.737000", "141027.741000", "141027.744000", "141107.655000", "141107.659000", "141107.662000", "141107.665000", "141107.669000", "141107.672000", "141107.675000", "141107.679000", "141107.682000", "141107.685000", "141107.688000", "141107.692000", "141107.703000", "141107.707000", "141107.710000", "141107.713000", "141107.717000", "141107.720000", "141107.723000", "141107.726000", "141107.730000", "141107.733000", "141107.736000", "141107.740000", "141107.743000", "141107.746000", "141107.750000", "141147.655000", "141147.659000", "141147.662000", "141147.665000", "141147.669000", "141147.672000", "141147.675000", "141147.690000", "141147.693000", "141147.696000", "141147.699000", "141147.703000", "141147.706000", "141147.709000", "141147.712000", "141147.716000", "141147.719000", "141147.722000", "141147.726000", "141147.729000", "141147.732000", "141147.735000", "141147.739000", "141147.742000", "141147.745000", "141147.748000", "141147.752000", "141227.655000", "141227.659000", "141227.662000", "141227.665000", "141227.669000", "141227.672000", "141227.675000", "141227.679000", "141227.682000", "141227.685000", "141227.688000", "141227.692000", "141227.695000", "141227.698000", "141227.702000", "141227.705000", "141227.708000", "141227.711000", "141227.715000", "141227.718000", "141227.721000", "141227.724000", "141227.728000", "141227.731000", "141227.734000", "141227.737000", "141227.741000", "141307.655000", "141307.659000", "141307.662000", "141307.665000", "141307.669000", "141307.672000", "141307.675000", "141307.679000", "141307.682000", "141307.685000", "141307.688000", "141307.692000", "141307.695000", "141307.698000", "141307.701000", "141307.705000", "141307.708000", "141307.711000", "141307.714000", "141307.718000", "141307.721000", "141307.724000", "141307.727000", "141307.731000", "141307.734000", "141307.737000", "141307.740000", "141347.655000", "141347.659000", "141347.662000", "141347.665000", "141347.669000", "141347.672000", "141347.675000", "141347.679000", "141347.682000", "141347.685000", "141347.689000", "141347.692000", "141347.711000", "141347.715000", "141347.718000", "141347.721000", "141347.724000", "141347.728000", "141347.731000", "141347.734000", "141347.737000", "141347.741000", "141347.744000", "141347.747000", "141347.750000", "141347.754000", "141347.757000", "141427.656000", "141427.660000", "141427.663000", "141427.667000", "141427.670000", "141427.673000", "141427.676000", "141427.680000", "141427.683000", "141427.686000", "141427.690000", "141427.693000", "141427.696000", "141427.699000", "141427.703000", "141427.706000", "141427.709000", "141427.712000", "141427.716000", "141427.719000", "141427.722000", "141427.726000", "141427.729000", "141427.732000", "141427.735000", "141427.739000", "141427.742000", "141507.655000", "141507.659000", "141507.662000", "141507.665000", "141507.669000", "141507.672000", "141507.675000", "141507.678000", "141507.682000", "141507.685000", "141507.688000", "141507.692000", "141507.695000", "141507.698000", "141507.702000", "141507.705000", "141507.708000", "141507.711000", "141507.714000", "141507.718000", "141507.721000", "141507.724000", "141507.728000", "141507.731000", "141507.734000", "141507.737000", "141547.655000", "141547.659000", "141547.662000", "141547.665000", "141547.669000", "141547.672000", "141547.675000", "141547.678000", "141547.682000", "141547.685000", "141547.688000", "141547.691000", "141547.695000", "141547.698000", "141547.701000", "141547.705000", "141547.708000", "141547.711000", "141547.714000", "141547.718000", "141547.721000", "141547.724000", "141547.727000", "141547.730000", "141547.734000", "141547.737000", "141547.740000", "141608.681000", "141608.685000", "141608.688000", "141608.691000", "141608.695000", "141608.698000", "141608.701000", "141608.705000", "141608.708000", "141608.711000", "141608.714000", "141608.718000", "141608.721000", "141608.724000"],
