{
  "AcquisitionMatrixPE": 104,
  "AcquisitionNumber": 1,
  "AcquisitionTime": "14:04:26.545000",
  "BandwidthPerPixelPhaseEncode": 17.17,
  "BaseResolution": 104,
  "BodyPartExamined": "BRAIN",
  "CoilString": "HC1-7;NC1_2",
  "ConsistencyInfo": "N4_VE11C_LATEST_20160120",
  "ConversionSoftware": "dcm2niix",
  "ConversionSoftwareVersion": "v1.0.20190902",
  "DerivedVendorReportedEchoSpacing": 0.000560011,
  "DeviceSerialNumber": "167006",
  "DwellTime": 2.1e-06,
  "EchoTime": 0.037,
  "EchoTrainLength": 104,
  "EffectiveEchoSpacing": 0.000560011,
  "FlipAngle": 52,
  "HeudiconvVersion": "0.10.0",
  "ImageComments": "Unaliased_MB4_PE3_LB",
  "ImageOrientationPatientDICOM": [0.999658, 0.0119491, 0.0232501, 0.00139576, 0.863747, -0.503923],
  "ImageType": [
    "ORIGINAL",
    "PRIMARY",
    "P",
    "MB",
    "ND",
    "MOSAIC"
],
  "ImagingFrequency": 123.259,
  "InPlanePhaseEncodingDirectionDICOM": "COL",
  "InstitutionAddress": "Chemin_Queen-Mary_4565_Montreal_District_CA_H3W_1W5",
  "InstitutionName": "IUGM",
  "InstitutionalDepartmentName": "Department",
  "MRAcquisitionType": "2D",
  "MagneticFieldStrength": 3,
  "Manufacturer": "Siemens",
  "ManufacturersModelName": "Prisma_fit",
  "Modality": "MR",
  "MultibandAccelerationFactor": 4,
  "PartialFourier": 1,
  "PatientPosition": "HFS",
  "PercentPhaseFOV": 100,
  "PhaseEncodingDirection": "j",
  "PhaseEncodingSteps": 104,
  "PhaseResolution": 1,
  "PixelBandwidth": 2290,
  "ProcedureStepDescription": "games_mario",
  "ProtocolName": "func_task-mario_run-02",
  "PulseSequenceDetails": "%CustomerSeq%_cmrr_mbep2d_bold",
  "ReceiveCoilActiveElements": "HC1-7;NC1,2",
  "ReceiveCoilName": "HeadNeck_64",
  "ReconMatrixPE": 104,
  "RepetitionTime": 1.49,
  "SAR": 0.0604176,
  "ScanOptions": "FS",
  "ScanningSequence": "EP",
  "SequenceName": "epfid2d1_104",
  "SequenceVariant": "SK_SS",
  "SeriesDescription": "func_task-mario_run-02",
  "SeriesNumber": 14,
  "ShimSetting": [618, -7177, -8860, 300, 2, -155, -32, -26],
  "SliceThickness": 2,
  "SliceTiming": [0, 0.785, 0.0975, 0.8825, 0.1975, 0.98, 0.295, 1.0775, 0.3925, 1.1775, 0.49, 1.275, 0.5875, 1.3725, 0.6875, 0, 0.785, 0.0975, 0.8825, 0.1975, 0.98, 0.295, 1.0775, 0.3925, 1.1775, 0.49, 1.275, 0.5875, 1.3725, 0.6875, 0, 0.785, 0.0975, 0.8825, 0.1975, 0.98, 0.295, 1.0775, 0.3925, 1.1775, 0.49, 1.275, 0.5875, 1.3725, 0.6875, 0, 0.785, 0.0975, 0.8825, 0.1975, 0.98, 0.295, 1.0775, 0.3925, 1.1775, 0.49, 1.275, 0.5875, 1.3725, 0.6875],
  "SoftwareVersions": "syngo_MR_E11",
  "SpacingBetweenSlices": 2,
  "StationName": "MRC35049",
  "TaskName": "mario",
  "TotalReadoutTime": 0.0576811,
  "TxRefAmp": 291.612,
  "WipMemBlock": "da534a99-a5ab-44f2-a7ed-e6d5b2a8e9b4||Sequence: R016 ve11c/master r/e634e98; Dec 19 2017 11:00:25 by eja",
  "dcmmeta_affine": [
    [-1.9993165731430054, 0.002791517646983266, 0.05220726504921913, 105.68477630615234],
    [-0.02389814890921116, 1.7274948358535767, -1.0075665712356567, -51.108299255371094],
    [0.04650021344423294, 1.0078461170196533, 1.726871132850647, -97.93193817138672],
    [0.0, 0.0, 0.0, 1.0]
],
  "dcmmeta_reorient_transform": [
    [0.0, -1.0, 0.0, 103.0],
    [1.0, 0.0, 0.0, 0.0],
    [0.0, 0.0, 1.0, 0.0],
    [0.0, 0.0, 0.0, 1.0]
],
  "dcmmeta_shape": [104, 104, 60, 470],
  "dcmmeta_slice_dim": 2,
  "dcmmeta_version": 0.6,
  "global": {
    "const": {
      "AcquisitionMatrix": [104, 0, 0, 104],
      "AngioFlag": "N",
      "BitsAllocated": 16,
      "BitsStored": 16,
      "BodyPartExamined": "BRAIN",
      "Columns": 832,
      "EchoNumbers": 1,
      "EchoTime": 37.0,
      "EchoTrainLength": 104,
      "FlipAngle": 52.0,
      "HighBit": 15,
      "ImageOrientationPatient": [0.99965826770287, 0.01194907445747, 0.02325010608393, 0.00139575885641, 0.86374742760655, -0.5039230428947],
      "ImagePositionPatient": [-834.73963196301, -764.33072567918, 355.80610626595],
      "ImageType": [
        "ORIGINAL",
        "PRIMARY",
        "P",
        "MB",
        "ND",
        "MOSAIC"
],
      "ImagedNucleus": "1H",
      "ImagingFrequency": 123.25892,
      "InPlanePhaseEncodingDirection": "COL",
      "LargestImagePixelValue": 4095,
      "MRAcquisitionType": "2D",
      "MagneticFieldStrength": 3.0,
      "Manufacturer": "SIEMENS",
      "ManufacturerModelName": "Prisma_fit",
      "Modality": "MR",
      "NumberOfAverages": 1.0,
      "NumberOfPhaseEncodingSteps": 104,
      "PercentPhaseFieldOfView": 100.0,
      "PercentSampling": 100.0,
      "PerformedProcedureStepStartTime": "132141.013000",
      "PhotometricInterpretation": "MONOCHROME2",
      "PixelBandwidth": 2290.0,
      "PixelRepresentation": 0,
      "PixelSpacing": [2.0, 2.0],
      "ProtocolName": "func_task-mario_run-02",
      "RepetitionTime": 1490.0,
      "RescaleIntercept": -4096.0,
      "RescaleSlope": 2.0,
      "RescaleType": "US",
      "Rows": 832,
      "SAR": 0.06041759451132,
      "SamplesPerPixel": 1,
      "ScanOptions": "FS",
      "ScanningSequence": "EP",
      "SequenceName": "epfid2d1_104",
      "SequenceVariant": [
        "SK",
        "SS"
],
      "SeriesDescription": "func_task-mario_run-02",
      "SeriesNumber": 14,
      "SeriesTime": "140547.831000",
      "SliceLocation": -56.051657159206,
      "SliceThickness": 2.0,
      "SmallestImagePixelValue": 0,
      "SoftwareVersions": "syngo MR E11",
      "SpacingBetweenSlices": 1.9999999941911,
      "SpecificCharacterSet": "ISO_IR 100",
      "StudyID": "1",
      "StudyTime": "132140.882000",
      "TransmitCoilName": "Body",
      "VariableFlipAngleFlag": "N",
      "WindowCenterWidthExplanation": "Algo1",
      "dBdt": 0.0},
    "slices": {}
  },
  "time": {
    "samples": {
      "AcquisitionNumber": [1, 2, 3, 4, 5, 6, 7, 8, 9, 10, 11, 12, 13, 14, 15, 16, 17, 18, 19, 20, 21, 22, 23, 24, 25, 26, 27, 28, 29, 30, 31, 32, 33, 34, 35, 36, 37, 38, 39, 40, 41, 42, 43, 44, 45, 46, 47, 48, 49, 50, 51, 52, 53, 54, 55, 56, 57, 58, 59, 60, 61, 62, 63, 64, 65, 66, 67, 68, 69, 70, 71, 72, 73, 74, 75, 76, 77, 78, 79, 80, 81, 82, 83, 84, 85, 86, 87, 88, 89, 90, 91, 92, 93, 94, 95, 96, 97, 98, 99, 100, 101, 102, 103, 104, 105, 106, 107, 108, 109, 110, 111, 112, 113, 114, 115, 116, 117, 118, 119, 120, 121, 122, 123, 124, 125, 126, 127, 128, 129, 130, 131, 132, 133, 134, 135, 136, 137, 138, 139, 140, 141, 142, 143, 144, 145, 146, 147, 148, 149, 150, 151, 152, 153, 154, 155, 156, 157, 158, 159, 160, 161, 162, 163, 164, 165, 166, 167, 168, 169, 170, 171, 172, 173, 174, 175, 176, 177, 178, 179, 180, 181, 182, 183, 184, 185, 186, 187, 188, 189, 190, 191, 192, 193, 194, 195, 196, 197, 198, 199, 200, 201, 202, 203, 204, 205, 206, 207, 208, 209, 210, 211, 212, 213, 214, 215, 216, 217, 218, 219, 220, 221, 222, 223, 224, 225, 226, 227, 228, 229, 230, 231, 232, 233, 234, 235, 236, 237, 238, 239, 240, 241, 242, 243, 244, 245, 246, 247, 248, 249, 250, 251, 252, 253, 254, 255, 256, 257, 258, 259, 260, 261, 262, 263, 264, 265, 266, 267, 268, 269, 270, 271, 272, 273, 274, 275, 276, 277, 278, 279, 280, 281, 282, 283, 284, 285, 286, 287, 288, 289, 290, 291, 292, 293, 294, 295, 296, 297, 298, 299, 300, 301, 302, 303, 304, 305, 306, 307, 308, 309, 310, 311, 312, 313, 314, 315, 316, 317, 318, 319, 320, 321, 322, 323, 324, 325, 326, 327, 328, 329, 330, 331, 332, 333, 334, 335, 336, 337, 338, 339, 340, 341, 342, 343, 344, 345, 346, 347, 348, 349, 350, 351, 352, 353, 354, 355, 356, 357, 358, 359, 360, 361, 362, 363, 364, 365, 366, 367, 368, 369, 370, 371, 372, 373, 374, 375, 376, 377, 378, 379, 380, 381, 382, 383, 384, 385, 386, 387, 388, 389, 390, 391, 392, 393, 394, 395, 396, 397, 398, 399, 400, 401, 402, 403, 404, 405, 406, 407, 408, 409, 410, 411, 412, 413, 414, 415, 416, 417, 418, 419, 420, 421, 422, 423, 424, 425, 426, 427, 428, 429, 430, 431, 432, 433, 434, 435, 436, 437, 438, 439, 440, 441, 442, 443, 444, 445, 446, 447, 448, 449, 450, 451, 452, 453, 454, 455, 456, 457, 458, 459, 460, 461, 462, 463, 464, 465, 466, 467, 468, 469, 470],
      "AcquisitionTime": ["140426.545000", "140428.035000", "140429.525000", "140431.015000", "140432.505000", "140433.995000", "140435.485000", "140436.975000", "140438.465000", "140439.955000", "140441.445000", "140442.935000", "140444.425000", "140445.915000", "140447.405000", "140448.895000", "140450.385000", "140451.875000", "140453.365000", "140454.855000", "140456.345000", "140457.835000", "140459.325000", "140500.815000", "140502.305000", "140503.795000", "140505.285000", "140506.775000", "140508.265000", "140509.755000", "140511.245000", "140512.735000", "140514.225000", "140515.715000", "140517.205000", "140518.695000", "140520.185000", "140521.675000", "140523.165000", "140524.655000", "140526.145000", "140527.635000", "140529.125000", "140530.615000", "140532.105000", "140533.595000", "140535.085000", "140536.575000", "140538.065000", "140539.555000", "140541.045000", "140542.535000", "140544.025000", "140545.515000", "140547.005000", "140548.495000", "140549.985000", "140551.475000", "140552.965000", "140554.455000", "140555.945000", "140557.435000", "140558.925000", "140600.415000", "140601.905000", "140603.395000", "140604.885000", "140606.375000", "140607.865000", "140609.355000", "140610.845000", "140612.335000", "140613.825000", "140615.315000", "140616.805000", "140618.295000", "140619.785000", "140621.275000", "140622.765000", "140624.255000", "140625.745000", "140627.235000", "140628.725000", "140630.215000", "140631.705000", "140633.195000", "140634.685000", "140636.175000", "140637.665000", "140639.155000", "140640.645000", "140642.135000", "140643.625000", "140645.115000", "140646.605000", "140648.095000", "140649.585000", "140651.075000", "140652.565000", "140654.055000", "140655.545000", "140657.035000", "140658.525000", "140700.015000", "140701.505000", "140702.995000", "140704.485000", "140705.975000", "140707.465000", "140708.955000", "140710.445000", "140711.935000", "140713.425000", "140714.915000", "140716.405000", "140717.895000", "140719.385000", "140720.875000", "140722.365000", "140723.855000", "140725.345000", "140726.835000", "140728.325000", "140729.815000", "140731.305000", "140732.795000", "140734.285000", "140735.775000", "140737.265000", "140738.755000", "140740.245000", "140741.735000", "140743.225000", "140744.715000", "140746.205000", "140747.695000", "140749.185000", "140750.675000", "140752.165000", "140753.655000", "140755.145000", "140756.635000", "140758.125000", "140759.615000", "140801.105000", "140802.595000", "140804.085000", "140805.575000", "140807.065000", "140808.555000", "140810.045000", "140811.535000", "140813.025000", "140814.515000", "140816.005000", "140817.495000", "140818.985000", "140820.475000", "140821.965000", "140823.455000", "140824.945000", "140826.435000", "140827.925000", "140829.415000", "140830.905000", "140832.395000", "140833.885000", "140835.375000", "140836.865000", "140838.355000", "140839.845000", "140841.335000", "140842.825000", "140844.315000", "140845.805000", "140847.295000", "140848.785000", "140850.275000", "140851.765000", "140853.255000", "140854.745000", "140856.235000", "140857.725000", "140859.215000", "140900.705000", "140902.195000", "140903.685000", "140905.175000", "140906.665000", "140908.155000", "140909.645000", "140911.135000", "140912.625000", "140914.115000", "140915.605000", "140917.095000", "140918.585000", "140920.075000", "140921.565000", "140923.055000", "140924.545000", "140926.035000", "140927.525000", "140929.015000", "140930.505000", "140931.995000", "140933.485000", "140934.975000", "140936.465000", "140937.955000", "140939.445000", "140940.935000", "140942.425000", "140943.915000", "140945.405000", "140946.895000", "140948.385000", "140949.875000", "140951.365000", "140952.855000", "140954.345000", "140955.835000", "140957.325000", "140958.815000", "141000.305000", "141001.795000", "141003.285000", "141004.775000", "141006.265000", "141007.755000", "141009.245000", "141010.735000", "141012.225000", "141013.715000", "141015.205000", "141016.695000", "141018.185000", "141019.675000", "141021.165000", "141022.655000", "141024.145000", "141025.635000", "141027.125000", "141028.615000", "141030.105000", "141031.595000", "141033.085000", "141034.575000", "141036.065000", "141037.555000", "141039.045000", "141040.535000", "141042.025000", "141043.515000", "141045.005000", "141046.495000", "141047.985000", "141049.475000", "141050.965000", "141052.455000", "141053.945000", "141055.435000", "141056.925000", "141058.415000", "141059.905000", "141101.395000", "141102.885000", "141104.375000", "141105.865000", "141107.355000", "141108.845000", "141110.335000", "141111.825000", "141113.315000", "141114.805000", "141116.295000", "141117.785000", "141119.275000", "141120.765000", "141122.255000", "141123.745000", "141125.235000", "141126.725000", "141128.215000", "141129.705000", "141131.195000", "141132.685000", "141134.175000", "141135.665000", "141137.155000", "141138.645000", "141140.135000", "141141.625000", "141143.115000", "141144.605000", "141146.095000", "141147.585000", "141149.075000", "141150.565000", "141152.055000", "141153.545000", "141155.035000", "141156.525000", "141158.015000", "141159.505000", "141200.995000", "141202.485000", "141203.975000", "141205.465000", "141206.955000", "141208.445000", "141209.935000", "141211.425000", "141212.915000", "141214.405000", "141215.895000", "141217.385000", "141218.875000", "141220.365000", "141221.855000", "141223.345000", "141224.835000", "141226.325000", "141227.815000", "141229.305000", "141230.795000", "141232.285000", "141233.775000", "141235.265000", "141236.755000", "141238.245000", "141239.735000", "141241.225000", "141242.715000", "141244.205000", "141245.695000", "141247.185000", "141248.675000", "141250.165000", "141251.655000", "141253.145000", "141254.635000", "141256.125000", "141257.615000", "141259.105000", "141300.595000", "141302.085000", "141303.575000", "141305.065000", "141306.555000", "141308.045000", "141309.535000", "141311.025000", "141312.515000", "141314.005000", "141315.495000", "141316.985000", "141318.475000", "141319.965000", "141321.455000", "141322.945000", "141324.435000", "141325.925000", "141327.415000", "141328.905000", "141330.395000", "141331.885000", "141333.375000", "141334.865000", "141336.355000", "141337.845000", "141339.335000", "141340.825000", "141342.315000", "141343.805000", "141345.295000", "141346.785000", "141348.275000", "141349.765000", "141351.255000", "141352.745000", "141354.235000", "141355.725000", "141357.215000", "141358.705000", "141400.195000", "141401.685000", "141403.175000", "141404.665000", "141406.155000", "141407.645000", "141409.135000", "141410.625000", "141412.115000", "141413.605000", "141415.095000", "141416.585000", "141418.075000", "141419.565000", "141421.055000", "141422.545000", "141424.035000", "141425.525000", "141427.015000", "141428.505000", "141429.995000", "141431.485000", "141432.975000", "141434.465000", "141435.955000", "141437.445000", "141438.935000", "141440.425000", "141441.915000", "141443.405000", "141444.895000", "141446.385000", "141447.875000", "141449.365000", "141450.855000", "141452.345000", "141453.835000", "141455.325000", "141456.815000", "141458.305000", "141459.795000", "141501.285000", "141502.775000", "141504.265000", "141505.755000", "141507.245000", "141508.735000", "141510.225000", "141511.715000", "141513.205000", "141514.695000", "141516.185000", "141517.675000", "141519.165000", "141520.655000", "141522.145000", "141523.635000", "141525.125000", "141526.615000", "141528.105000", "141529.595000", "141531.085000", "141532.575000", "141534.065000", "141535.555000", "141537.045000", "141538.535000", "141540.025000", "141541.515000", "141543.005000", "141544.495000", "141545.985000", "141547.475000", "141548.965000", "141550.455000", "141551.945000", "141553.435000", "141554.925000", "141556.415000", "141557.905000", "141559.395000", "141600.885000", "141602.375000", "141603.865000", "141605.355000"],
      "ContentTime": ["140547.833000", "140547.844000", "140547.847000", "140547.849000", "140547.851000", "140547.854000", "140547.856000", "140547.859000", "140547.867000", "140547.870000", "140547.872000", "140547.875000", "140547.877000", "140547.879000", "140547.882000", "140547.884000", "140547.887000", "140547.889000", "140547.892000", "140547.894000", "140547.897000", "140547.899000", "140547.902000", "140547.904000", "140547.906000", "140547.909000", "140607.790000", "140607.793000", "140607.795000", "140607.798000", "140607.800000", "140607.802000", "140607.805000", "140607.807000", "140607.810000", "140607.812000", "140607.815000", "140607.817000", "140607.819000", "140607.822000", "140607.824000", "140607.827000", "140607.830000", "140607.833000", "140607.835000", "140607.838000", "140627.767000", "140627.769000", "140627.779000", "140627.781000", "140627.784000", "140627.786000", "140627.788000", "140627.791000", "140627.793000", "140627.796000", "140627.798000", "140627.801000", "140627.803000", "140627.806000", "140627.808000", "140627.811000", "140627.813000", "140627.816000", "140627.818000", "140627.821000", "140647.799000", "140647.802000", "140647.804000", "140647.807000", "140647.809000", "140647.812000", "140647.814000", "140647.817000", "140647.819000", "140647.822000", "140647.824000", "140647.827000", "140647.829000", "140647.831000", "140647.834000", "140647.836000", "140647.839000", "140647.841000", "140647.844000", "140647.853000", "140707.764000", "140707.767000", "140707.769000", "140707.772000", "140707.783000", "140707.786000", "140707.788000", "140707.791000", "140707.793000", "140707.796000", "140707.798000", "140707.800000", "140707.803000", "140707.805000", "140707.808000", "140707.810000", "140707.813000", "140707.815000", "140707.818000", "140707.820000", "140747.801000", "140747.803000", "140747.806000", "140747.808000", "140747.811000", "140747.813000", "140747.816000", "140747.818000", "140747.821000", "140747.823000", "140747.826000", "140747.828000", "140747.831000", "140747.833000", "140747.836000", "140747.838000", "140747.841000", "140747.843000", "140747.846000", "140747.848000", "140747.851000", "140747.853000", "140747.856000", "140747.865000", "140747.867000", "140747.870000", "140747.872000", "140747.874000", "140827.797000", "140827.800000", "140827.802000", "140827.805000", "140827.807000", "140827.810000", "140827.812000", "140827.815000", "140827.817000", "140827.820000", "140827.822000", "140827.825000", "140827.827000", "140827.830000", "140827.832000", "140827.835000", "140827.837000", "140827.840000", "140827.842000", "140827.845000", "140827.847000", "140827.849000", "140827.852000", "140827.854000", "140827.857000", "140827.859000", "140827.862000", "140907.810000", "140907.813000", "140907.815000", "140907.818000", "140907.820000", "140907.823000", "140907.825000", "140907.828000", "140907.830000", "140907.833000", "140907.835000", "140907.838000", "140907.840000", "140907.842000", "140907.845000", "140907.847000", "140907.850000", "140907.852000", "140907.855000", "140907.857000", "140907.860000", "140907.862000", "140907.865000", "140907.867000", "140907.870000", "140907.872000", "140907.875000", "140948.217000", "140948.220000", "140948.222000", "140948.225000", "140948.228000", "140948.230000", "140948.233000", "140948.235000", "140948.238000", "140948.240000", "140948.243000", "140948.245000", "140948.248000", "140948.250000", "140948.253000", "140948.255000", "140948.257000", "140948.260000", "140948.262000", "140948.265000", "140948.267000", "140948.270000", "140948.272000", "140948.275000", "140948.277000", "140948.279000", "140948.282000", "141027.798000", "141027.801000", "141027.803000", "141027.806000", "141027.808000", "141027.810000", "141027.813000", "141027.815000", "141027.818000", "141027.820000", "141027.823000", "141027.825000", "141027.828000", "141027.830000", "141027.833000", "141027.835000", "141027.838000", "141027.840000", "141027.843000", "141027.845000", "141027.848000", "141027.850000", "141027.853000", "141027.855000", "141027.857000", "141027.860000", "141107.806000", "141107.808000", "141107.811000", "141107.813000", "141107.816000", "141107.818000", "141107.821000", "141107.823000", "141107.826000", "141107.828000", "141107.835000", "141107.838000", "141107.840000", "141107.842000", "141107.845000", "141107.847000", "141107.850000", "141107.852000", "141107.855000", "141107.857000", "141107.860000", "141107.862000", "141107.865000", "141107.867000", "141107.871000", "141107.875000", "141107.878000", "141147.801000", "141147.803000", "141147.806000", "141147.808000", "141147.811000", "141147.813000", "141147.816000", "141147.818000", "141147.821000", "141147.823000", "141147.826000", "141147.828000", "141147.831000", "141147.833000", "141147.836000", "141147.838000", "141147.840000", "141147.843000", "141147.846000", "141147.848000", "141147.851000", "141147.853000", "141147.855000", "141147.858000", "141147.860000", "141147.863000", "141147.865000", "141227.791000", "141227.794000", "141227.797000", "141227.799000", "141227.802000", "141227.804000", "141227.807000", "141227.809000", "141227.812000", "141227.814000", "141227.817000", "141227.819000", "141227.821000", "141227.824000", "141227.826000", "141227.829000", "141227.831000", "141227.834000", "141227.836000", "141227.839000", "141227.841000", "141227.844000", "141227.846000", "141227.848000", "141227.851000", "141227.853000", "141227.856000", "141307.806000", "141307.809000", "141307.818000", "141307.821000", "141307.823000", "141307.825000", "141307.828000", "141307.830000", "141307.833000", "141307.835000", "141307.838000", "141307.840000", "141307.843000", "141307.845000", "141307.848000", "141307.850000", "141307.853000", "141307.855000", "141307.857000", "141307.860000", "141307.862000", "141307.865000", "141307.867000", "141307.870000", "141307.872000", "141307.875000", "141307.877000", "141347.803000", "141347.805000", "141347.808000", "141347.810000", "141347.813000", "141347.815000", "141347.818000", "141347.820000", "141347.823000", "141347.825000", "141347.828000", "141347.830000", "141347.832000", "141347.835000", "141347.837000", "141347.840000", "141347.842000", "141347.845000", "141347.847000", "141347.850000", "141347.852000", "141347.855000", "141347.857000", "141347.860000", "141347.862000", "141347.865000", "141347.867000", "141427.799000", "141427.802000", "141427.804000", "141427.807000", "141427.809000", "141427.812000", "141427.814000", "141427.816000", "141427.819000", "141427.821000", "141427.824000", "141427.826000", "141427.829000", "141427.831000", "141427.834000", "141427.836000", "141427.839000", "141427.841000", "141427.844000", "141427.846000", "141427.849000", "141427.851000", "141427.854000", "141427.856000", "141427.859000", "141427.861000", "141427.863000", "141507.792000", "141507.794000", "141507.797000", "141507.799000", "141507.802000", "141507.804000", "141507.807000", "141507.809000", "141507.812000", "141507.814000", "141507.817000", "141507.819000", "141507.822000", "141507.824000", "141507.827000", "141507.829000", "141507.832000", "141507.834000", "141507.836000", "141507.839000", "141507.841000", "141507.844000", "141507.846000", "141507.849000", "141507.851000", "141507.854000", "141547.805000", "141547.808000", "141547.810000", "141547.820000", "141547.822000", "141547.825000", "141547.827000", "141547.830000", "141547.832000", "141547.835000", "141547.837000", "141547.840000", "141547.842000", "141547.844000", "141547.847000", "141547.849000", "141547.852000", "141547.854000", "141547.857000", "141547.859000", "141547.862000", "141547.865000", "141547.868000", "141547.870000", "141547.873000", "141547.875000", "141547.878000", "141608.768000", "141608.830000", "141608.832000", "141608.835000", "141608.837000", "141608.839000", "141608.842000", "141608.844000", "141608.847000", "141608.849000", "141608.852000", "141608.854000", "141608.857000", "141608.859000"],
