{
  "AcquisitionMatrixPE": 104,
  "AcquisitionNumber": 1,
  "AcquisitionTime": "18:22:18.895000",
  "BandwidthPerPixelPhaseEncode": 17.17,
  "BaseResolution": 104,
  "BodyPartExamined": "BRAIN",
  "CoilString": "HC1-7;NC1_2",
  "ConsistencyInfo": "N4_VE11C_LATEST_20160120",
  "ConversionSoftware": "dcm2niix",
  "ConversionSoftwareVersion": "v1.0.20190902",
  "DerivedVendorReportedEchoSpacing": 0.000560011,
  "DeviceSerialNumber": "167006",
  "DwellTime": 2.1e-06,
  "EchoTime": 0.037,
  "EchoTrainLength": 104,
  "EffectiveEchoSpacing": 0.000560011,
  "FlipAngle": 52,
  "HeudiconvVersion": "0.10.0",
  "ImageComments": "Unaliased_MB4_PE3_LB",
  "ImageOrientationPatientDICOM": [0.999369, 0.0164166, 0.0315039, -0.00872137, 0.973057, -0.230398],
  "ImageType": [
    "ORIGINAL",
    "PRIMARY",
    "M",
    "MB",
    "ND",
    "MOSAIC"
],
  "ImagingFrequency": 123.259,
  "InPlanePhaseEncodingDirectionDICOM": "COL",
  "InstitutionAddress": "Chemin_Queen-Mary_4565_Montreal_District_CA_H3W_1W5",
  "InstitutionName": "IUGM",
  "InstitutionalDepartmentName": "Department",
  "MRAcquisitionType": "2D",
  "MagneticFieldStrength": 3,
  "Manufacturer": "Siemens",
  "ManufacturersModelName": "Prisma_fit",
  "Modality": "MR",
  "MultibandAccelerationFactor": 4,
  "PartialFourier": 1,
  "PatientPosition": "HFS",
  "PercentPhaseFOV": 100,
  "PhaseEncodingDirection": "j",
  "PhaseEncodingSteps": 104,
  "PhaseResolution": 1,
  "PixelBandwidth": 2290,
  "ProcedureStepDescription": "games_mario",
  "ProtocolName": "func_task-mario_run-02",
  "PulseSequenceDetails": "%CustomerSeq%_cmrr_mbep2d_bold",
  "ReceiveCoilActiveElements": "HC1-7;NC1,2",
  "ReceiveCoilName": "HeadNeck_64",
  "ReconMatrixPE": 104,
  "RepetitionTime": 1.49,
  "SAR": 0.0494851,
  "ScanOptions": "FS",
  "ScanningSequence": "EP",
  "SequenceName": "epfid2d1_104",
  "SequenceVariant": "SK_SS",
  "SeriesDescription": "func_task-mario_run-02",
  "SeriesNumber": 18,
  "ShimSetting": [632, -7221, -8772, 713, 36, -23, 102, -3],
  "SliceThickness": 2,
  "SliceTiming": [0, 0.785, 0.0975, 0.8825, 0.1975, 0.98, 0.295, 1.0775, 0.3925, 1.1775, 0.49, 1.275, 0.5875, 1.3725, 0.6875, 0, 0.785, 0.0975, 0.8825, 0.1975, 0.98, 0.295, 1.0775, 0.3925, 1.1775, 0.49, 1.275, 0.5875, 1.3725, 0.6875, 0, 0.785, 0.0975, 0.8825, 0.1975, 0.98, 0.295, 1.0775, 0.3925, 1.1775, 0.49, 1.275, 0.5875, 1.3725, 0.6875, 0, 0.785, 0.0975, 0.8825, 0.1975, 0.98, 0.295, 1.0775, 0.3925, 1.1775, 0.49, 1.275, 0.5875, 1.3725, 0.6875],
  "SoftwareVersions": "syngo_MR_E11",
  "SpacingBetweenSlices": 2,
  "StationName": "MRC35049",
  "TaskName": "mario",
  "TotalReadoutTime": 0.0576811,
  "TxRefAmp": 254.772,
  "WipMemBlock": "70a95f0b-d3c9-40c9-b25c-daf715043177||Sequence: R016 ve11c/master r/e634e98; Dec 19 2017 11:00:25 by eja",
  "dcmmeta_affine": [
    [-1.9987375736236572, -0.017442740499973297, 0.06887488812208176, 108.38424682617188],
    [-0.032833196222782135, 1.9461148977279663, -0.45995527505874634, -73.73829650878906],
    [0.06300777941942215, 0.46079567074775696, 1.9451727867126465, -57.50387191772461],
    [0.0, 0.0, 0.0, 1.0]
],
  "dcmmeta_reorient_transform": [
    [0.0, -1.0, 0.0, 103.0],
    [1.0, 0.0, 0.0, 0.0],
    [0.0, 0.0, 1.0, 0.0],
    [0.0, 0.0, 0.0, 1.0]
],
  "dcmmeta_shape": [104, 104, 60, 429],
  "dcmmeta_slice_dim": 2,
  "dcmmeta_version": 0.6,
  "global": {
    "const": {
      "AcquisitionMatrix": [104, 0, 0, 104],
      "AngioFlag": "N",
      "BitsAllocated": 16,
      "BitsStored": 16,
      "BodyPartExamined": "BRAIN",
      "Columns": 832,
      "EchoNumbers": 1,
      "EchoTime": 37.0,
      "EchoTrainLength": 104,
      "FlipAngle": 52.0,
      "HighBit": 15,
      "ImageOrientationPatient": [0.99936880085091, 0.01641659876377, 0.03150389136041, -0.0087213701571, 0.97305743737808, -0.2303978325979],
      "ImagePositionPatient": [-827.77897413151, -847.04863624446, 134.75287045295],
      "ImageType": [
        "ORIGINAL",
        "PRIMARY",
        "M",
        "MB",
        "ND",
        "MOSAIC"
],
      "ImagedNucleus": "1H",
      "ImagingFrequency": 123.258907,
      "InPlanePhaseEncodingDirection": "COL",
      "MRAcquisitionType": "2D",
      "MagneticFieldStrength": 3.0,
      "Manufacturer": "SIEMENS",
      "ManufacturerModelName": "Prisma_fit",
      "Modality": "MR",
      "NumberOfAverages": 1.0,
      "NumberOfPhaseEncodingSteps": 104,
      "PercentPhaseFieldOfView": 100.0,
      "PercentSampling": 100.0,
      "PerformedProcedureStepStartTime": "173358.225000",
      "PhotometricInterpretation": "MONOCHROME2",
      "PixelBandwidth": 2290.0,
      "PixelRepresentation": 0,
      "PixelSpacing": [2.0, 2.0],
      "ProtocolName": "func_task-mario_run-02",
      "RepetitionTime": 1490.0,
      "Rows": 832,
      "SAR": 0.04948508028221,
      "SamplesPerPixel": 1,
      "ScanOptions": "FS",
      "ScanningSequence": "EP",
      "SequenceName": "epfid2d1_104",
      "SequenceVariant": [
        "SK",
        "SS"
],
      "SeriesDescription": "func_task-mario_run-02",
      "SeriesNumber": 18,
      "SeriesTime": "182346.245000",
      "SliceLocation": -35.236849260487,
      "SliceThickness": 2.0,
      "SmallestImagePixelValue": 0,
      "SoftwareVersions": "syngo MR E11",
      "SpacingBetweenSlices": 1.9999999668954,
      "SpecificCharacterSet": "ISO_IR 100",
      "StudyID": "1",
      "StudyTime": "173358.083000",
      "TransmitCoilName": "Body",
      "VariableFlipAngleFlag": "N",
      "WindowCenterWidthExplanation": "Algo1",
      "dBdt": 0.0},
    "slices": {}
  },
  "time": {
    "samples": {
      "AcquisitionNumber": [1, 2, 3, 4, 5, 6, 7, 8, 9, 10, 11, 12, 13, 14, 15, 16, 17, 18, 19, 20, 21, 22, 23, 24, 25, 26, 27, 28, 29, 30, 31, 32, 33, 34, 35, 36, 37, 38, 39, 40, 41, 42, 43, 44, 45, 46, 47, 48, 49, 50, 51, 52, 53, 54, 55, 56, 57, 58, 59, 60, 61, 62, 63, 64, 65, 66, 67, 68, 69, 70, 71, 72, 73, 74, 75, 76, 77, 78, 79, 80, 81, 82, 83, 84, 85, 86, 87, 88, 89, 90, 91, 92, 93, 94, 95, 96, 97, 98, 99, 100, 101, 102, 103, 104, 105, 106, 107, 108, 109, 110, 111, 112, 113, 114, 115, 116, 117, 118, 119, 120, 121, 122, 123, 124, 125, 126, 127, 128, 129, 130, 131, 132, 133, 134, 135, 136, 137, 138, 139, 140, 141, 142, 143, 144, 145, 146, 147, 148, 149, 150, 151, 152, 153, 154, 155, 156, 157, 158, 159, 160, 161, 162, 163, 164, 165, 166, 167, 168, 169, 170, 171, 172, 173, 174, 175, 176, 177, 178, 179, 180, 181, 182, 183, 184, 185, 186, 187, 188, 189, 190, 191, 192, 193, 194, 195, 196, 197, 198, 199, 200, 201, 202, 203, 204, 205, 206, 207, 208, 209, 210, 211, 212, 213, 214, 215, 216, 217, 218, 219, 220, 221, 222, 223, 224, 225, 226, 227, 228, 229, 230, 231, 232, 233, 234, 235, 236, 237, 238, 239, 240, 241, 242, 243, 244, 245, 246, 247, 248, 249, 250, 251, 252, 253, 254, 255, 256, 257, 258, 259, 260, 261, 262, 263, 264, 265, 266, 267, 268, 269, 270, 271, 272, 273, 274, 275, 276, 277, 278, 279, 280, 281, 282, 283, 284, 285, 286, 287, 288, 289, 290, 291, 292, 293, 294, 295, 296, 297, 298, 299, 300, 301, 302, 303, 304, 305, 306, 307, 308, 309, 310, 311, 312, 313, 314, 315, 316, 317, 318, 319, 320, 321, 322, 323, 324, 325, 326, 327, 328, 329, 330, 331, 332, 333, 334, 335, 336, 337, 338, 339, 340, 341, 342, 343, 344, 345, 346, 347, 348, 349, 350, 351, 352, 353, 354, 355, 356, 357, 358, 359, 360, 361, 362, 363, 364, 365, 366, 367, 368, 369, 370, 371, 372, 373, 374, 375, 376, 377, 378, 379, 380, 381, 382, 383, 384, 385, 386, 387, 388, 389, 390, 391, 392, 393, 394, 395, 396, 397, 398, 399, 400, 401, 402, 403, 404, 405, 406, 407, 408, 409, 410, 411, 412, 413, 414, 415, 416, 417, 418, 419, 420, 421, 422, 423, 424, 425, 426, 427, 428, 429],
      "AcquisitionTime": ["182218.895000", "182220.385000", "182221.875000", "182223.365000", "182224.855000", "182226.345000", "182227.835000", "182229.325000", "182230.815000", "182232.305000", "182233.795000", "182235.285000", "182236.775000", "182238.265000", "182239.755000", "182241.245000", "182242.735000", "182244.225000", "182245.715000", "182247.205000", "182248.695000", "182250.185000", "182251.675000", "182253.165000", "182254.655000", "182256.145000", "182257.635000", "182259.125000", "182300.615000", "182302.105000", "182303.595000", "182305.085000", "182306.575000", "182308.065000", "182309.555000", "182311.045000", "182312.535000", "182314.025000", "182315.515000", "182317.005000", "182318.495000", "182319.985000", "182321.475000", "182322.965000", "182324.455000", "182325.945000", "182327.435000", "182328.925000", "182330.415000", "182331.905000", "182333.395000", "182334.885000", "182336.375000", "182337.865000", "182339.355000", "182340.845000", "182342.335000", "182343.825000", "182345.315000", "182346.805000", "182348.295000", "182349.785000", "182351.275000", "182352.765000", "182354.255000", "182355.745000", "182357.235000", "182358.725000", "182400.215000", "182401.705000", "182403.195000", "182404.685000", "182406.175000", "182407.665000", "182409.155000", "182410.645000", "182412.135000", "182413.625000", "182415.115000", "182416.605000", "182418.095000", "182419.585000", "182421.075000", "182422.565000", "182424.055000", "182425.545000", "182427.035000", "182428.525000", "182430.015000", "182431.505000", "182432.995000", "182434.485000", "182435.975000", "182437.465000", "182438.955000", "182440.445000", "182441.935000", "182443.425000", "182444.915000", "182446.405000", "182447.895000", "182449.385000", "182450.875000", "182452.365000", "182453.855000", "182455.345000", "182456.835000", "182458.325000", "182459.815000", "182501.305000", "182502.795000", "182504.285000", "182505.775000", "182507.265000", "182508.755000", "182510.245000", "182511.735000", "182513.225000", "182514.715000", "182516.205000", "182517.695000", "182519.185000", "182520.675000", "182522.165000", "182523.655000", "182525.145000", "182526.635000", "182528.125000", "182529.615000", "182531.105000", "182532.595000", "182534.085000", "182535.575000", "182537.065000", "182538.555000", "182540.045000", "182541.535000", "182543.025000", "182544.515000", "182546.005000", "182547.495000", "182548.985000", "182550.475000", "182551.965000", "182553.455000", "182554.945000", "182556.435000", "182557.925000", "182559.415000", "182600.905000", "182602.395000", "182603.885000", "182605.375000", "182606.865000", "182608.355000", "182609.845000", "182611.335000", "182612.825000", "182614.315000", "182615.805000", "182617.295000", "182618.785000", "182620.275000", "182621.765000", "182623.255000", "182624.745000", "182626.235000", "182627.725000", "182629.215000", "182630.705000", "182632.195000", "182633.685000", "182635.175000", "182636.665000", "182638.155000", "182639.645000", "182641.135000", "182642.625000", "182644.115000", "182645.605000", "182647.095000", "182648.585000", "182650.075000", "182651.565000", "182653.055000", "182654.545000", "182656.035000", "182657.525000", "182659.015000", "182700.505000", "182701.995000", "182703.485000", "182704.975000", "182706.465000", "182707.955000", "182709.445000", "182710.935000", "182712.425000", "182713.915000", "182715.405000", "182716.895000", "182718.385000", "182719.875000", "182721.365000", "182722.855000", "182724.345000", "182725.835000", "182727.325000", "182728.815000", "182730.305000", "182731.795000", "182733.285000", "182734.775000", "182736.265000", "182737.755000", "182739.245000", "182740.735000", "182742.225000", "182743.715000", "182745.205000", "182746.695000", "182748.185000", "182749.675000", "182751.165000", "182752.655000", "182754.145000", "182755.635000", "182757.125000", "182758.615000", "182800.105000", "182801.595000", "182803.085000", "182804.575000", "182806.065000", "182807.555000", "182809.045000", "182810.535000", "182812.025000", "182813.515000", "182815.005000", "182816.495000", "182817.985000", "182819.475000", "182820.965000", "182822.455000", "182823.945000", "182825.435000", "182826.925000", "182828.415000", "182829.905000", "182831.395000", "182832.885000", "182834.375000", "182835.865000", "182837.355000", "182838.845000", "182840.335000", "182841.825000", "182843.315000", "182844.805000", "182846.295000", "182847.785000", "182849.275000", "182850.765000", "182852.255000", "182853.745000", "182855.235000", "182856.725000", "182858.215000", "182859.705000", "182901.195000", "182902.685000", "182904.175000", "182905.665000", "182907.155000", "182908.645000", "182910.135000", "182911.625000", "182913.115000", "182914.605000", "182916.095000", "182917.585000", "182919.075000", "182920.565000", "182922.055000", "182923.545000", "182925.035000", "182926.525000", "182928.015000", "182929.505000", "182930.995000", "182932.485000", "182933.975000", "182935.465000", "182936.955000", "182938.445000", "182939.935000", "182941.425000", "182942.915000", "182944.405000", "182945.895000", "182947.385000", "182948.875000", "182950.365000", "182951.855000", "182953.345000", "182954.835000", "182956.325000", "182957.815000", "182959.305000", "183000.795000", "183002.285000", "183003.775000", "183005.265000", "183006.755000", "183008.245000", "183009.735000", "183011.225000", "183012.715000", "183014.205000", "183015.695000", "183017.185000", "183018.675000", "183020.165000", "183021.655000", "183023.145000", "183024.635000", "183026.125000", "183027.615000", "183029.105000", "183030.595000", "183032.085000", "183033.575000", "183035.065000", "183036.555000", "183038.045000", "183039.535000", "183041.025000", "183042.515000", "183044.005000", "183045.495000", "183046.985000", "183048.475000", "183049.965000", "183051.455000", "183052.945000", "183054.435000", "183055.925000", "183057.415000", "183058.905000", "183100.395000", "183101.885000", "183103.375000", "183104.865000", "183106.355000", "183107.845000", "183109.335000", "183110.825000", "183112.315000", "183113.805000", "183115.295000", "183116.785000", "183118.275000", "183119.765000", "183121.255000", "183122.745000", "183124.235000", "183125.725000", "183127.215000", "183128.705000", "183130.195000", "183131.685000", "183133.175000", "183134.665000", "183136.155000", "183137.645000", "183139.135000", "183140.625000", "183142.115000", "183143.605000", "183145.095000", "183146.585000", "183148.075000", "183149.565000", "183151.055000", "183152.545000", "183154.035000", "183155.525000", "183157.015000", "183158.505000", "183159.995000", "183201.485000", "183202.975000", "183204.465000", "183205.955000", "183207.445000", "183208.935000", "183210.425000", "183211.915000", "183213.405000", "183214.895000", "183216.385000", "183217.875000", "183219.365000", "183220.855000", "183222.345000", "183223.835000", "183225.325000", "183226.815000", "183228.305000", "183229.795000", "183231.285000", "183232.775000", "183234.265000", "183235.755000", "183237.245000", "183238.735000", "183240.225000", "183241.715000", "183243.205000", "183244.695000", "183246.185000", "183247.675000", "183249.165000", "183250.655000", "183252.145000", "183253.635000", "183255.125000", "183256.615000"],
      "ContentTime": ["182346.248000", "182346.252000", "182346.255000", "182346.258000", "182346.262000", "182346.265000", "182346.277000", "182346.281000", "182346.284000", "182346.287000", "182346.291000", "182346.294000", "182346.297000", "182346.300000", "182346.304000", "182346.307000", "182346.310000", "182346.314000", "182346.317000", "182346.320000", "182346.323000", "182346.327000", "182346.330000", "182346.333000", "182346.336000", "182346.340000", "182346.343000", "182346.346000", "182346.349000", "182346.363000", "182346.366000", "182346.369000", "182406.213000", "182406.217000", "182406.220000", "182406.224000", "182406.227000", "182406.231000", "182406.234000", "182406.238000", "182406.241000", "182406.245000", "182406.249000", "182406.252000", "182406.255000", "182406.259000", "182406.270000", "182406.273000", "182406.276000", "182406.280000", "182406.293000", "182406.296000", "182426.213000", "182426.217000", "182426.220000", "182426.223000", "182426.226000", "182426.230000", "182426.233000", "182426.236000", "182426.239000", "182426.242000", "182426.246000", "182426.249000", "182426.252000", "182426.255000", "182426.259000", "182426.262000", "182426.265000", "182426.268000", "182426.272000", "182426.275000", "182426.278000", "182446.213000", "182446.217000", "182446.220000", "182446.224000", "182446.229000", "182446.232000", "182446.236000", "182446.239000", "182446.242000", "182446.246000", "182446.249000", "182446.252000", "182446.256000", "182446.259000", "182446.262000", "182446.265000", "182446.269000", "182446.272000", "182446.275000", "182446.278000", "182526.213000", "182526.217000", "182526.220000", "182526.223000", "182526.226000", "182526.230000", "182526.233000", "182526.236000", "182526.240000", "182526.243000", "182526.246000", "182526.249000", "182526.253000", "182526.256000", "182526.259000", "182526.262000", "182526.266000", "182526.269000", "182526.272000", "182526.276000", "182526.279000", "182526.282000", "182526.285000", "182526.289000", "182526.292000", "182526.295000", "182526.298000", "182526.302000", "182526.305000", "182526.308000", "182526.311000", "182526.315000", "182606.233000", "182606.236000", "182606.239000", "182606.243000", "182606.246000", "182606.249000", "182606.252000", "182606.256000", "182606.259000", "182606.262000", "182606.266000", "182606.269000", "182606.272000", "182606.275000", "182606.279000", "182606.282000", "182606.285000", "182606.288000", "182606.292000", "182606.295000", "182606.298000", "182606.301000", "182606.305000", "182606.308000", "182606.311000", "182606.315000", "182606.318000", "182646.213000", "182646.217000", "182646.220000", "182646.223000", "182646.227000", "182646.230000", "182646.233000", "182646.237000", "182646.240000", "182646.243000", "182646.247000", "182646.250000", "182646.253000", "182646.256000", "182646.260000", "182646.263000", "182646.266000", "182646.270000", "182646.273000", "182646.276000", "182646.280000", "182646.283000", "182646.286000", "182646.289000", "182646.293000", "182646.296000", "182646.299000", "182726.213000", "182726.217000", "182726.220000", "182726.224000", "182726.227000", "182726.232000", "182726.236000", "182726.239000", "182726.242000", "182726.246000", "182726.249000", "182726.252000", "182726.255000", "182726.258000", "182726.262000", "182726.265000", "182726.268000", "182726.272000", "182726.275000", "182726.278000", "182726.281000", "182726.285000", "182726.288000", "182726.291000", "182726.294000", "182726.298000", "182806.213000", "182806.217000", "182806.220000", "182806.223000", "182806.227000", "182806.230000", "182806.233000", "182806.237000", "182806.240000", "182806.243000", "182806.247000", "182806.250000", "182806.253000", "182806.256000", "182806.268000", "182806.271000", "182806.274000", "182806.278000", "182806.281000", "182806.284000", "182806.287000", "182806.291000", "182806.294000", "182806.312000", "182806.329000", "182806.332000", "182806.335000", "182846.213000", "182846.217000", "182846.220000", "182846.224000", "182846.227000", "182846.230000", "182846.233000", "182846.237000", "182846.240000", "182846.243000", "182846.247000", "182846.250000", "182846.253000", "182846.256000", "182846.260000", "182846.263000", "182846.266000", "182846.270000", "182846.273000", "182846.276000", "182846.279000", "182846.283000", "182846.286000", "182846.289000", "182846.293000", "182846.296000", "182846.299000", "182926.213000", "182926.217000", "182926.220000", "182926.223000", "182926.227000", "182926.230000", "182926.233000", "182926.237000", "182926.240000", "182926.243000", "182926.247000", "182926.250000", "182926.253000", "182926.256000", "182926.260000", "182926.263000", "182926.266000", "182926.270000", "182926.273000", "182926.276000", "182926.279000", "182926.283000", "182926.286000", "182926.294000", "182926.297000", "182926.300000", "182926.304000", "182946.213000", "182946.217000", "182946.220000", "182946.224000", "182946.227000", "182946.230000", "182946.233000", "182946.237000", "182946.240000", "182946.243000", "182946.247000", "182946.250000", "182946.253000", "183026.213000", "183026.217000", "183026.220000", "183026.224000", "183026.227000", "183026.230000", "183026.233000", "183026.237000", "183026.240000", "183026.243000", "183026.247000", "183026.250000", "183026.253000", "183026.256000", "183026.260000", "183026.263000", "183026.266000", "183026.270000", "183026.273000", "183026.276000", "183026.279000", "183026.283000", "183026.286000", "183026.295000", "183026.299000", "183026.302000", "183026.305000", "183106.213000", "183106.217000", "183106.220000", "183106.224000", "183106.227000", "183106.230000", "183106.234000", "183106.237000", "183106.240000", "183106.244000", "183106.247000", "183106.250000", "183106.253000", "183106.257000", "183106.260000", "183106.263000", "183106.267000", "183106.270000", "183106.273000", "183106.277000", "183106.280000", "183106.283000", "183106.287000", "183106.290000", "183106.293000", "183106.296000", "183106.300000", "183146.213000", "183146.217000", "183146.220000", "183146.223000", "183146.227000", "183146.230000", "183146.233000", "183146.236000", "183146.240000", "183146.243000", "183146.246000", "183146.250000", "183146.253000", "183146.256000", "183146.259000", "183146.263000", "183146.266000", "183146.269000", "183146.273000", "183146.276000", "183146.279000", "183146.282000", "183146.286000", "183146.289000", "183146.292000", "183146.296000", "183146.300000", "183226.213000", "183226.217000", "183226.220000", "183226.223000", "183226.227000", "183226.230000", "183226.233000", "183226.237000", "183226.240000", "183226.243000", "183226.246000", "183226.250000", "183226.253000", "183226.256000", "183226.260000", "183226.263000", "183226.266000", "183226.270000", "183226.273000", "183226.276000", "183226.280000", "183226.283000", "183226.286000", "183226.289000", "183226.293000", "183226.296000", "183226.299000", "183258.808000", "183258.812000", "183258.816000", "183258.819000", "183258.822000", "183258.826000", "183258.829000", "183258.832000", "183258.836000", "183258.839000", "183258.842000", "183258.845000", "183258.849000", "183258.852000", "183258.856000", "183258.859000", "183258.863000", "183258.866000", "183258.869000", "183258.873000", "183258.876000", "183258.879000"],
      "InstanceCreationTime": ["182346.248000", "182346.252000", "182346.255000", "182346.258000", "182346.262000", "182346.265000", "182346.277000", "182346.281000", "182346.284000", "182346.287000", "182346.291000", "182346.294000", "182346.297000", "182346.300000", "182346.304000", "182346.307000", "182346.310000", "182346.314000", "182346.317000", "182346.320000", "182346.323000", "182346.327000", "182346.330000", "182346.333000", "182346.336000", "182346.340000", "182346.343000", "182346.346000", "182346.349000", "182346.363000", "182346.366000", "182346.369000", "182406.213000", "182406.217000", "182406.220000", "182406.224000", "182406.227000", "182406.231000", "182406.234000", "182406.238000", "182406.241000", "182406.245000", "182406.249000", "182406.252000", "182406.255000", "182406.259000", "182406.270000", "182406.273000", "182406.276000", "182406.280000", "182406.293000", "182406.296000", "182426.213000", "182426.217000", "182426.220000", "182426.223000", "182426.226000", "182426.230000", "182426.233000", "182426.236000", "182426.239000", "182426.242000", "182426.246000", "182426.249000", "182426.252000", "182426.255000", "182426.259000", "182426.262000", "182426.265000", "182426.268000", "182426.272000", "182426.275000", "182426.278000", "182446.213000", "182446.217000", "182446.220000", "182446.224000", "182446.229000", "182446.232000", "182446.236000", "182446.239000", "182446.242000", "182446.246000", "182446.249000", "182446.252000", "182446.256000", "182446.259000", "182446.262000", "182446.265000", "182446.269000", "182446.272000", "182446.275000", "182446.278000", "182526.213000", "182526.217000", "182526.220000", "182526.223000", "182526.226000", "182526.230000", "182526.233000", "182526.236000", "182526.240000", "182526.243000", "182526.246000", "182526.249000", "182526.253000", "182526.256000", "182526.259000", "182526.262000", "182526.266000", "182526.269000", "182526.272000", "182526.276000", "182526.279000", "182526.282000", "182526.285000", "182526.289000", "182526.292000", "182526.295000", "182526.298000", "182526.302000", "182526.305000", "182526.308000", "182526.311000", "182526.315000", "182606.233000", "182606.236000", "182606.239000", "182606.243000", "182606.246000", "182606.249000", "182606.252000", "182606.256000", "182606.259000", "182606.262000", "182606.266000", "182606.269000", "182606.272000", "182606.275000", "182606.279000", "182606.282000", "182606.285000", "182606.288000", "182606.292000", "182606.295000", "182606.298000", "182606.301000", "182606.305000", "182606.308000", "182606.311000", "182606.315000", "182606.318000", "182646.213000", "182646.217000", "182646.220000", "182646.223000", "182646.227000", "182646.230000", "182646.233000", "182646.237000", "182646.240000", "182646.243000", "182646.247000", "182646.250000", "182646.253000", "182646.256000", "182646.260000", "182646.263000", "182646.266000", "182646.270000", "182646.273000", "182646.276000", "182646.280000", "182646.283000", "182646.286000", "182646.289000", "182646.293000", "182646.296000", "182646.299000", "182726.213000", "182726.217000", "182726.220000", "182726.224000", "182726.227000", "182726.232000", "182726.236000", "182726.239000", "182726.242000", "182726.246000", "182726.249000", "182726.252000", "182726.255000", "182726.258000", "182726.262000", "182726.265000", "182726.268000", "182726.272000", "182726.275000", "182726.278000", "182726.281000", "182726.285000", "182726.288000", "182726.291000", "182726.294000", "182726.298000", "182806.213000", "182806.217000", "182806.220000", "182806.223000", "182806.227000", "182806.230000", "182806.233000", "182806.237000", "182806.240000", "182806.243000", "182806.247000", "182806.250000", "182806.253000", "182806.256000", "182806.268000", "182806.271000", "182806.274000", "182806.278000", "182806.281000", "182806.284000", "182806.287000", "182806.291000", "182806.294000", "182806.312000", "182806.329000", "182806.332000", "182806.335000", "182846.213000", "182846.217000", "182846.220000", "182846.224000", "182846.227000", "182846.230000", "182846.233000", "182846.237000", "182846.240000", "182846.243000", "182846.247000", "182846.250000", "182846.253000", "182846.256000", "182846.260000", "182846.263000", "182846.266000", "182846.270000", "182846.273000", "182846.276000", "182846.279000", "182846.283000", "182846.286000", "182846.289000", "182846.293000", "182846.296000", "182846.299000", "182926.213000", "182926.217000", "182926.220000", "182926.223000", "182926.227000", "182926.230000", "182926.233000", "182926.237000", "182926.240000", "182926.243000", "182926.247000", "182926.250000", "182926.253000", "182926.256000", "182926.260000", "182926.263000", "182926.266000", "182926.270000", "182926.273000", "182926.276000", "182926.279000", "182926.283000", "182926.286000", "182926.294000", "182926.297000", "182926.300000", "182926.304000", "182946.213000", "182946.217000", "182946.220000", "182946.224000", "182946.227000", "182946.230000", "182946.233000", "182946.237000", "182946.240000", "182946.243000", "182946.247000", "182946.250000", "182946.253000", "183026.213000", "183026.217000", "183026.220000", "183026.224000", "183026.227000", "183026.230000", "183026.233000", "183026.237000", "183026.240000", "183026.243000", "183026.247000", "183026.250000", "183026.253000", "183026.256000", "183026.260000", "183026.263000", "183026.266000", "183026.270000", "183026.273000", "183026.276000", "183026.279000", "183026.283000", "183026.286000", "183026.295000", "183026.299000", "183026.302000", "183026.305000", "183106.213000", "183106.217000", "183106.220000", "183106.224000", "183106.227000", "183106.230000", "183106.234000", "183106.237000", "183106.240000", "183106.244000", "183106.247000", "183106.250000", "183106.253000", "183106.257000", "183106.260000", "183106.263000", "183106.267000", "183106.270000", "183106.273000", "183106.277000", "183106.280000", "183106.283000", "183106.287000", "183106.290000", "183106.293000", "183106.296000", "183106.300000", "183146.213000", "183146.217000", "183146.220000", "183146.223000", "183146.227000", "183146.230000", "183146.233000", "183146.236000", "183146.240000", "183146.243000", "183146.246000", "183146.250000", "183146.253000", "183146.256000", "183146.259000", "183146.263000", "183146.266000", "183146.269000", "183146.273000", "183146.276000", "183146.279000", "183146.282000", "183146.286000", "183146.289000", "183146.292000", "183146.296000", "183146.300000", "183226.213000", "183226.217000", "183226.220000", "183226.223000", "183226.227000", "183226.230000", "183226.233000", "183226.237000", "183226.240000", "183226.243000", "183226.246000", "183226.250000", "183226.253000", "183226.256000", "183226.260000", "183226.263000", "183226.266000", "183226.270000", "183226.273000", "183226.276000", "183226.280000", "183226.283000", "183226.286000", "183226.289000", "183226.293000", "183226.296000", "183226.299000", "183258.808000", "183258.812000", "183258.816000", "183258.819000", "183258.822000", "183258.826000", "183258.829000", "183258.832000", "183258.836000", "183258.839000", "183258.842000", "183258.845000", "183258.849000", "183258.852000", "183258.856000", "183258.859000", "183258.863000", "183258.866000", "183258.869000", "183258.873000", "183258.876000", "183258.879000"],
