{
  "AcquisitionMatrixPE": 104,
  "AcquisitionNumber": 1,
  "AcquisitionTime": "18:34:28.135000",
  "BandwidthPerPixelPhaseEncode": 17.17,
  "BaseResolution": 104,
  "BodyPartExamined": "BRAIN",
  "CoilString": "HC1-7;NC1_2",
  "ConsistencyInfo": "N4_VE11C_LATEST_20160120",
  "ConversionSoftware": "dcm2niix",
  "ConversionSoftwareVersion": "v1.0.20190902",
  "DerivedVendorReportedEchoSpacing": 0.000560011,
  "DeviceSerialNumber": "167006",
  "DwellTime": 2.1e-06,
  "EchoTime": 0.037,
  "EchoTrainLength": 104,
  "EffectiveEchoSpacing": 0.000560011,
  "FlipAngle": 52,
  "HeudiconvVersion": "0.10.0",
  "ImageComments": "Unaliased_MB4_PE3_LB",
  "ImageOrientationPatientDICOM": [0.999369, 0.0164166, 0.0315039, -0.00872137, 0.973057, -0.230398],
  "ImageType": [
    "ORIGINAL",
    "PRIMARY",
    "P",
    "MB",
    "ND",
    "MOSAIC"
],
  "ImagingFrequency": 123.259,
  "InPlanePhaseEncodingDirectionDICOM": "COL",
  "InstitutionAddress": "Chemin_Queen-Mary_4565_Montreal_District_CA_H3W_1W5",
  "InstitutionName": "IUGM",
  "InstitutionalDepartmentName": "Department",
  "MRAcquisitionType": "2D",
  "MagneticFieldStrength": 3,
  "Manufacturer": "Siemens",
  "ManufacturersModelName": "Prisma_fit",
  "Modality": "MR",
  "MultibandAccelerationFactor": 4,
  "PartialFourier": 1,
  "PatientPosition": "HFS",
  "PercentPhaseFOV": 100,
  "PhaseEncodingDirection": "j",
  "PhaseEncodingSteps": 104,
  "PhaseResolution": 1,
  "PixelBandwidth": 2290,
  "ProcedureStepDescription": "games_mario",
  "ProtocolName": "func_task-mario_run-03",
  "PulseSequenceDetails": "%CustomerSeq%_cmrr_mbep2d_bold",
  "ReceiveCoilActiveElements": "HC1-7;NC1,2",
  "ReceiveCoilName": "HeadNeck_64",
  "ReconMatrixPE": 104,
  "RepetitionTime": 1.49,
  "SAR": 0.0494851,
  "ScanOptions": "FS",
  "ScanningSequence": "EP",
  "SequenceName": "epfid2d1_104",
  "SequenceVariant": "SK_SS",
  "SeriesDescription": "func_task-mario_run-03",
  "SeriesNumber": 22,
  "ShimSetting": [632, -7221, -8772, 713, 36, -23, 102, -3],
  "SliceThickness": 2,
  "SliceTiming": [0, 0.7825, 0.0975, 0.8825, 0.195, 0.98, 0.2925, 1.0775, 0.3925, 1.175, 0.49, 1.2725, 0.5875, 1.3725, 0.685, 0, 0.7825, 0.0975, 0.8825, 0.195, 0.98, 0.2925, 1.0775, 0.3925, 1.175, 0.49, 1.2725, 0.5875, 1.3725, 0.685, 0, 0.7825, 0.0975, 0.8825, 0.195, 0.98, 0.2925, 1.0775, 0.3925, 1.175, 0.49, 1.2725, 0.5875, 1.3725, 0.685, 0, 0.7825, 0.0975, 0.8825, 0.195, 0.98, 0.2925, 1.0775, 0.3925, 1.175, 0.49, 1.2725, 0.5875, 1.3725, 0.685],
  "SoftwareVersions": "syngo_MR_E11",
  "SpacingBetweenSlices": 2,
  "StationName": "MRC35049",
  "TaskName": "mario",
  "TotalReadoutTime": 0.0576811,
  "TxRefAmp": 254.772,
  "WipMemBlock": "4ed20903-4809-4f47-a86a-39d601fd69ce||Sequence: R016 ve11c/master r/e634e98; Dec 19 2017 11:00:25 by eja",
  "dcmmeta_affine": [
    [-1.9987375736236572, -0.017442740499973297, 0.06887488812208176, 108.38424682617188],
    [-0.032833196222782135, 1.9461148977279663, -0.45995527505874634, -73.73829650878906],
    [0.06300777941942215, 0.46079567074775696, 1.9451727867126465, -57.50387191772461],
    [0.0, 0.0, 0.0, 1.0]
],
  "dcmmeta_reorient_transform": [
    [0.0, -1.0, 0.0, 103.0],
    [1.0, 0.0, 0.0, 0.0],
    [0.0, 0.0, 1.0, 0.0],
    [0.0, 0.0, 0.0, 1.0]
],
  "dcmmeta_shape": [104, 104, 60, 494],
  "dcmmeta_slice_dim": 2,
  "dcmmeta_version": 0.6,
  "global": {
    "const": {
      "AcquisitionMatrix": [104, 0, 0, 104],
      "AngioFlag": "N",
      "BitsAllocated": 16,
      "BitsStored": 16,
      "BodyPartExamined": "BRAIN",
      "Columns": 832,
      "EchoNumbers": 1,
      "EchoTime": 37.0,
      "EchoTrainLength": 104,
      "FlipAngle": 52.0,
      "HighBit": 15,
      "ImageOrientationPatient": [0.99936880085091, 0.01641659876377, 0.03150389136041, -0.0087213701571, 0.97305743737808, -0.2303978325979],
      "ImagePositionPatient": [-827.77897413151, -847.04863624446, 134.75287045295],
      "ImageType": [
        "ORIGINAL",
        "PRIMARY",
        "P",
        "MB",
        "ND",
        "MOSAIC"
],
      "ImagedNucleus": "1H",
      "ImagingFrequency": 123.258918,
      "InPlanePhaseEncodingDirection": "COL",
      "LargestImagePixelValue": 4095,
      "MRAcquisitionType": "2D",
      "MagneticFieldStrength": 3.0,
      "Manufacturer": "SIEMENS",
      "ManufacturerModelName": "Prisma_fit",
      "Modality": "MR",
      "NumberOfAverages": 1.0,
      "NumberOfPhaseEncodingSteps": 104,
      "PercentPhaseFieldOfView": 100.0,
      "PercentSampling": 100.0,
      "PerformedProcedureStepStartTime": "173358.225000",
      "PhotometricInterpretation": "MONOCHROME2",
      "PixelBandwidth": 2290.0,
      "PixelRepresentation": 0,
      "PixelSpacing": [2.0, 2.0],
      "ProtocolName": "func_task-mario_run-03",
      "RepetitionTime": 1490.0,
      "RescaleIntercept": -4096.0,
      "RescaleSlope": 2.0,
      "RescaleType": "US",
      "Rows": 832,
      "SAR": 0.04948508028221,
      "SamplesPerPixel": 1,
      "ScanOptions": "FS",
      "ScanningSequence": "EP",
      "SequenceName": "epfid2d1_104",
      "SequenceVariant": [
        "SK",
        "SS"
],
      "SeriesDescription": "func_task-mario_run-03",
      "SeriesNumber": 22,
      "SeriesTime": "183550.379000",
      "SliceLocation": -35.236849260487,
      "SliceThickness": 2.0,
      "SmallestImagePixelValue": 0,
      "SoftwareVersions": "syngo MR E11",
      "SpacingBetweenSlices": 1.9999999668954,
      "SpecificCharacterSet": "ISO_IR 100",
      "StudyID": "1",
      "StudyTime": "173358.083000",
      "TransmitCoilName": "Body",
      "VariableFlipAngleFlag": "N",
      "WindowCenterWidthExplanation": "Algo1",
      "dBdt": 0.0},
    "slices": {}
  },
  "time": {
    "samples": {
      "AcquisitionNumber": [1, 2, 3, 4, 5, 6, 7, 8, 9, 10, 11, 12, 13, 14, 15, 16, 17, 18, 19, 20, 21, 22, 23, 24, 25, 26, 27, 28, 29, 30, 31, 32, 33, 34, 35, 36, 37, 38, 39, 40, 41, 42, 43, 44, 45, 46, 47, 48, 49, 50, 51, 52, 53, 54, 55, 56, 57, 58, 59, 60, 61, 62, 63, 64, 65, 66, 67, 68, 69, 70, 71, 72, 73, 74, 75, 76, 77, 78, 79, 80, 81, 82, 83, 84, 85, 86, 87, 88, 89, 90, 91, 92, 93, 94, 95, 96, 97, 98, 99, 100, 101, 102, 103, 104, 105, 106, 107, 108, 109, 110, 111, 112, 113, 114, 115, 116, 117, 118, 119, 120, 121, 122, 123, 124, 125, 126, 127, 128, 129, 130, 131, 132, 133, 134, 135, 136, 137, 138, 139, 140, 141, 142, 143, 144, 145, 146, 147, 148, 149, 150, 151, 152, 153, 154, 155, 156, 157, 158, 159, 160, 161, 162, 163, 164, 165, 166, 167, 168, 169, 170, 171, 172, 173, 174, 175, 176, 177, 178, 179, 180, 181, 182, 183, 184, 185, 186, 187, 188, 189, 190, 191, 192, 193, 194, 195, 196, 197, 198, 199, 200, 201, 202, 203, 204, 205, 206, 207, 208, 209, 210, 211, 212, 213, 214, 215, 216, 217, 218, 219, 220, 221, 222, 223, 224, 225, 226, 227, 228, 229, 230, 231, 232, 233, 234, 235, 236, 237, 238, 239, 240, 241, 242, 243, 244, 245, 246, 247, 248, 249, 250, 251, 252, 253, 254, 255, 256, 257, 258, 259, 260, 261, 262, 263, 264, 265, 266, 267, 268, 269, 270, 271, 272, 273, 274, 275, 276, 277, 278, 279, 280, 281, 282, 283, 284, 285, 286, 287, 288, 289, 290, 291, 292, 293, 294, 295, 296, 297, 298, 299, 300, 301, 302, 303, 304, 305, 306, 307, 308, 309, 310, 311, 312, 313, 314, 315, 316, 317, 318, 319, 320, 321, 322, 323, 324, 325, 326, 327, 328, 329, 330, 331, 332, 333, 334, 335, 336, 337, 338, 339, 340, 341, 342, 343, 344, 345, 346, 347, 348, 349, 350, 351, 352, 353, 354, 355, 356, 357, 358, 359, 360, 361, 362, 363, 364, 365, 366, 367, 368, 369, 370, 371, 372, 373, 374, 375, 376, 377, 378, 379, 380, 381, 382, 383, 384, 385, 386, 387, 388, 389, 390, 391, 392, 393, 394, 395, 396, 397, 398, 399, 400, 401, 402, 403, 404, 405, 406, 407, 408, 409, 410, 411, 412, 413, 414, 415, 416, 417, 418, 419, 420, 421, 422, 423, 424, 425, 426, 427, 428, 429, 430, 431, 432, 433, 434, 435, 436, 437, 438, 439, 440, 441, 442, 443, 444, 445, 446, 447, 448, 449, 450, 451, 452, 453, 454, 455, 456, 457, 458, 459, 460, 461, 462, 463, 464, 465, 466, 467, 468, 469, 470, 471, 472, 473, 474, 475, 476, 477, 478, 479, 480, 481, 482, 483, 484, 485, 486, 487, 488, 489, 490, 491, 492, 493, 494],
      "AcquisitionTime": ["183428.135000", "183429.625000", "183431.115000", "183432.605000", "183434.095000", "183435.585000", "183437.075000", "183438.565000", "183440.055000", "183441.545000", "183443.035000", "183444.525000", "183446.015000", "183447.505000", "183448.995000", "183450.485000", "183451.975000", "183453.465000", "183454.955000", "183456.445000", "183457.935000", "183459.425000", "183500.915000", "183502.405000", "183503.895000", "183505.385000", "183506.875000", "183508.365000", "183509.855000", "183511.345000", "183512.835000", "183514.325000", "183515.815000", "183517.305000", "183518.795000", "183520.285000", "183521.775000", "183523.265000", "183524.755000", "183526.245000", "183527.735000", "183529.225000", "183530.715000", "183532.205000", "183533.695000", "183535.185000", "183536.675000", "183538.165000", "183539.655000", "183541.145000", "183542.635000", "183544.125000", "183545.615000", "183547.105000", "183548.595000", "183550.085000", "183551.575000", "183553.065000", "183554.555000", "183556.045000", "183557.535000", "183559.025000", "183600.515000", "183602.005000", "183603.495000", "183604.985000", "183606.475000", "183607.965000", "183609.455000", "183610.945000", "183612.435000", "183613.925000", "183615.415000", "183616.905000", "183618.395000", "183619.885000", "183621.375000", "183622.865000", "183624.355000", "183625.845000", "183627.335000", "183628.825000", "183630.315000", "183631.805000", "183633.295000", "183634.785000", "183636.275000", "183637.765000", "183639.255000", "183640.745000", "183642.235000", "183643.725000", "183645.215000", "183646.705000", "183648.195000", "183649.685000", "183651.175000", "183652.665000", "183654.155000", "183655.645000", "183657.135000", "183658.625000", "183700.115000", "183701.605000", "183703.095000", "183704.585000", "183706.075000", "183707.565000", "183709.055000", "183710.545000", "183712.035000", "183713.525000", "183715.015000", "183716.505000", "183717.995000", "183719.485000", "183720.975000", "183722.465000", "183723.955000", "183725.445000", "183726.935000", "183728.425000", "183729.915000", "183731.405000", "183732.895000", "183734.385000", "183735.875000", "183737.365000", "183738.855000", "183740.345000", "183741.835000", "183743.325000", "183744.815000", "183746.305000", "183747.795000", "183749.285000", "183750.775000", "183752.265000", "183753.755000", "183755.245000", "183756.735000", "183758.225000", "183759.715000", "183801.205000", "183802.695000", "183804.185000", "183805.675000", "183807.165000", "183808.655000", "183810.145000", "183811.635000", "183813.125000", "183814.615000", "183816.105000", "183817.595000", "183819.085000", "183820.575000", "183822.065000", "183823.555000", "183825.045000", "183826.535000", "183828.025000", "183829.515000", "183831.005000", "183832.495000", "183833.985000", "183835.475000", "183836.965000", "183838.455000", "183839.945000", "183841.435000", "183842.925000", "183844.415000", "183845.905000", "183847.395000", "183848.885000", "183850.375000", "183851.865000", "183853.355000", "183854.845000", "183856.335000", "183857.825000", "183859.315000", "183900.805000", "183902.295000", "183903.785000", "183905.275000", "183906.765000", "183908.255000", "183909.745000", "183911.235000", "183912.725000", "183914.215000", "183915.705000", "183917.195000", "183918.685000", "183920.175000", "183921.665000", "183923.155000", "183924.645000", "183926.135000", "183927.625000", "183929.115000", "183930.605000", "183932.095000", "183933.585000", "183935.075000", "183936.565000", "183938.055000", "183939.545000", "183941.035000", "183942.525000", "183944.015000", "183945.505000", "183946.995000", "183948.485000", "183949.975000", "183951.465000", "183952.955000", "183954.445000", "183955.935000", "183957.425000", "183958.915000", "184000.405000", "184001.895000", "184003.385000", "184004.875000", "184006.365000", "184007.855000", "184009.345000", "184010.835000", "184012.325000", "184013.815000", "184015.305000", "184016.795000", "184018.285000", "184019.775000", "184021.265000", "184022.755000", "184024.245000", "184025.735000", "184027.225000", "184028.715000", "184030.205000", "184031.695000", "184033.185000", "184034.675000", "184036.165000", "184037.655000", "184039.145000", "184040.635000", "184042.125000", "184043.615000", "184045.105000", "184046.595000", "184048.085000", "184049.575000", "184051.065000", "184052.555000", "184054.045000", "184055.535000", "184057.025000", "184058.515000", "184100.005000", "184101.495000", "184102.985000", "184104.475000", "184105.965000", "184107.455000", "184108.945000", "184110.435000", "184111.925000", "184113.415000", "184114.905000", "184116.395000", "184117.885000", "184119.375000", "184120.865000", "184122.355000", "184123.845000", "184125.335000", "184126.825000", "184128.315000", "184129.805000", "184131.295000", "184132.785000", "184134.275000", "184135.765000", "184137.255000", "184138.745000", "184140.235000", "184141.725000", "184143.215000", "184144.705000", "184146.195000", "184147.685000", "184149.175000", "184150.665000", "184152.155000", "184153.645000", "184155.135000", "184156.625000", "184158.115000", "184159.605000", "184201.095000", "184202.585000", "184204.075000", "184205.565000", "184207.055000", "184208.545000", "184210.035000", "184211.525000", "184213.015000", "184214.505000", "184215.995000", "184217.485000", "184218.975000", "184220.465000", "184221.955000", "184223.445000", "184224.935000", "184226.425000", "184227.915000", "184229.405000", "184230.895000", "184232.385000", "184233.875000", "184235.365000", "184236.855000", "184238.345000", "184239.835000", "184241.325000", "184242.815000", "184244.305000", "184245.795000", "184247.285000", "184248.775000", "184250.265000", "184251.755000", "184253.245000", "184254.735000", "184256.225000", "184257.715000", "184259.205000", "184300.695000", "184302.185000", "184303.675000", "184305.165000", "184306.655000", "184308.145000", "184309.635000", "184311.125000", "184312.615000", "184314.105000", "184315.595000", "184317.085000", "184318.575000", "184320.065000", "184321.555000", "184323.045000", "184324.535000", "184326.025000", "184327.515000", "184329.005000", "184330.495000", "184331.985000", "184333.475000", "184334.965000", "184336.455000", "184337.945000", "184339.435000", "184340.925000", "184342.415000", "184343.905000", "184345.395000", "184346.885000", "184348.375000", "184349.865000", "184351.355000", "184352.845000", "184354.335000", "184355.825000", "184357.315000", "184358.805000", "184400.295000", "184401.785000", "184403.275000", "184404.765000", "184406.255000", "184407.745000", "184409.235000", "184410.725000", "184412.215000", "184413.705000", "184415.195000", "184416.685000", "184418.175000", "184419.665000", "184421.155000", "184422.645000", "184424.135000", "184425.625000", "184427.115000", "184428.605000", "184430.095000", "184431.585000", "184433.075000", "184434.565000", "184436.055000", "184437.545000", "184439.035000", "184440.525000", "184442.015000", "184443.505000", "184444.995000", "184446.485000", "184447.975000", "184449.465000", "184450.955000", "184452.445000", "184453.935000", "184455.425000", "184456.915000", "184458.405000", "184459.895000", "184501.385000", "184502.875000", "184504.365000", "184505.855000", "184507.345000", "184508.835000", "184510.325000", "184511.815000", "184513.305000", "184514.795000", "184516.285000", "184517.775000", "184519.265000", "184520.755000", "184522.245000", "184523.735000", "184525.225000", "184526.715000", "184528.205000", "184529.695000", "184531.185000", "184532.675000", "184534.165000", "184535.655000", "184537.145000", "184538.635000", "184540.125000", "184541.615000", "184543.105000", "184544.595000", "184546.085000", "184547.575000", "184549.065000", "184550.555000", "184552.045000", "184553.535000", "184555.025000", "184556.515000", "184558.005000", "184559.495000", "184600.985000", "184602.475000", "184603.965000", "184605.455000", "184606.945000", "184608.435000", "184609.925000", "184611.415000", "184612.905000", "184614.395000", "184615.885000", "184617.375000", "184618.865000", "184620.355000", "184621.845000", "184623.335000", "184624.825000", "184626.315000", "184627.805000", "184629.295000", "184630.785000", "184632.275000", "184633.765000", "184635.255000", "184636.745000", "184638.235000", "184639.725000", "184641.215000", "184642.705000"],
      "ContentTime": ["183550.381000", "183550.383000", "183550.386000", "183550.388000", "183550.391000", "183550.393000", "183550.395000", "183550.398000", "183550.400000", "183550.403000", "183550.405000", "183550.408000", "183550.410000", "183550.413000", "183550.415000", "183550.417000", "183550.420000", "183550.422000", "183550.425000", "183550.427000", "183550.430000", "183550.432000", "183550.435000", "183550.437000", "183550.439000", "183550.442000", "183610.293000", "183610.295000", "183610.298000", "183610.300000", "183610.303000", "183610.305000", "183610.307000", "183610.310000", "183610.312000", "183610.315000", "183610.317000", "183610.320000", "183610.322000", "183610.325000", "183610.327000", "183610.330000", "183610.332000", "183610.335000", "183610.337000", "183610.339000", "183610.342000", "183630.702000", "183630.705000", "183630.707000", "183630.710000", "183630.712000", "183630.715000", "183630.717000", "183630.720000", "183630.734000", "183630.737000", "183630.747000", "183630.750000", "183630.753000", "183630.755000", "183630.758000", "183630.760000", "183630.763000", "183630.765000", "183630.768000", "183630.770000", "183650.285000", "183650.287000", "183650.290000", "183650.292000", "183650.307000", "183650.310000", "183650.312000", "183650.315000", "183650.317000", "183650.320000", "183650.322000", "183650.325000", "183650.327000", "183650.330000", "183650.332000", "183650.335000", "183650.337000", "183650.340000", "183650.342000", "183650.345000", "183710.284000", "183710.287000", "183710.290000", "183710.292000", "183710.295000", "183710.297000", "183710.300000", "183710.302000", "183710.305000", "183710.307000", "183710.310000", "183710.312000", "183710.315000", "183710.317000", "183710.320000", "183710.322000", "183710.325000", "183710.327000", "183710.329000", "183710.332000", "183750.355000", "183750.358000", "183750.360000", "183750.363000", "183750.365000", "183750.368000", "183750.371000", "183750.373000", "183750.376000", "183750.378000", "183750.381000", "183750.383000", "183750.386000", "183750.388000", "183750.391000", "183750.393000", "183750.396000", "183750.398000", "183750.401000", "183750.408000", "183750.411000", "183750.413000", "183750.416000", "183750.418000", "183750.421000", "183750.423000", "183750.426000", "183750.428000", "183830.334000", "183830.337000", "183830.339000", "183830.342000", "183830.344000", "183830.347000", "183830.349000", "183830.352000", "183830.354000", "183830.357000", "183830.359000", "183830.362000", "183830.365000", "183830.367000", "183830.370000", "183830.372000", "183830.375000", "183830.377000", "183830.380000", "183830.382000", "183830.385000", "183830.387000", "183830.390000", "183830.392000", "183830.395000", "183830.397000", "183830.400000", "183910.320000", "183910.323000", "183910.325000", "183910.328000", "183910.330000", "183910.333000", "183910.335000", "183910.338000", "183910.341000", "183910.343000", "183910.345000", "183910.348000", "183910.351000", "183910.353000", "183910.356000", "183910.358000", "183910.361000", "183910.363000", "183910.366000", "183910.368000", "183910.371000", "183910.373000", "183910.376000", "183910.378000", "183910.381000", "183910.383000", "183950.321000", "183950.327000", "183950.330000", "183950.332000", "183950.335000", "183950.337000", "183950.340000", "183950.342000", "183950.345000", "183950.347000", "183950.350000", "183950.353000", "183950.355000", "183950.358000", "183950.360000", "183950.363000", "183950.365000", "183950.368000", "183950.370000", "183950.372000", "183950.375000", "183950.377000", "183950.380000", "183950.382000", "183950.385000", "183950.387000", "183950.390000", "184030.312000", "184030.314000", "184030.317000", "184030.319000", "184030.322000", "184030.324000", "184030.327000", "184030.329000", "184030.332000", "184030.334000", "184030.337000", "184030.339000", "184030.342000", "184030.344000", "184030.347000", "184030.349000", "184030.352000", "184030.354000", "184030.357000", "184030.359000", "184030.362000", "184030.364000", "184030.366000", "184030.369000", "184030.371000", "184030.374000", "184030.376000", "184110.308000", "184110.311000", "184110.323000", "184110.325000", "184110.328000", "184110.330000", "184110.333000", "184110.335000", "184110.338000", "184110.340000", "184110.343000", "184110.345000", "184110.348000", "184110.350000", "184110.352000", "184110.355000", "184110.357000", "184110.360000", "184110.362000", "184110.365000", "184110.367000", "184110.370000", "184110.372000", "184110.375000", "184110.382000", "184110.384000", "184110.387000", "184150.311000", "184150.314000", "184150.316000", "184150.319000", "184150.321000", "184150.324000", "184150.327000", "184150.329000", "184150.331000", "184150.334000", "184150.336000", "184150.339000", "184150.341000", "184150.344000", "184150.346000", "184150.349000", "184150.351000", "184150.354000", "184150.357000", "184150.359000", "184150.361000", "184150.364000", "184150.366000", "184150.369000", "184150.371000", "184150.374000", "184150.376000", "184230.313000", "184230.316000", "184230.318000", "184230.321000", "184230.323000", "184230.326000", "184230.328000", "184230.331000", "184230.333000", "184230.336000", "184230.338000", "184230.341000", "184230.343000", "184230.346000", "184230.348000", "184230.350000", "184230.353000", "184230.355000", "184230.358000", "184230.360000", "184230.363000", "184230.366000", "184230.368000", "184230.371000", "184230.373000", "184230.376000", "184230.378000", "184310.321000", "184310.324000", "184310.326000", "184310.329000", "184310.331000", "184310.334000", "184310.336000", "184310.339000", "184310.341000", "184310.344000", "184310.346000", "184310.349000", "184310.351000", "184310.354000", "184310.357000", "184310.359000", "184310.362000", "184310.364000", "184310.367000", "184310.369000", "184310.372000", "184310.374000", "184310.377000", "184310.379000", "184310.382000", "184310.384000", "184350.327000", "184350.330000", "184350.333000", "184350.335000", "184350.338000", "184350.340000", "184350.343000", "184350.346000", "184350.348000", "184350.351000", "184350.353000", "184350.356000", "184350.358000", "184350.361000", "184350.363000", "184350.366000", "184350.368000", "184350.371000", "184350.373000", "184350.376000", "184350.378000", "184350.381000", "184350.383000", "184350.386000", "184350.388000", "184350.391000", "184350.393000", "184430.319000", "184430.322000", "184430.325000", "184430.327000", "184430.330000", "184430.332000", "184430.335000", "184430.337000", "184430.339000", "184430.342000", "184430.344000", "184430.347000", "184430.349000", "184430.352000", "184430.354000", "184430.357000", "184430.359000", "184430.362000", "184430.364000", "184430.367000", "184430.369000", "184430.372000", "184430.374000", "184430.377000", "184430.379000", "184430.382000", "184430.384000", "184510.322000", "184510.325000", "184510.328000", "184510.330000", "184510.333000", "184510.335000", "184510.338000", "184510.340000", "184510.343000", "184510.345000", "184510.348000", "184510.350000", "184510.353000", "184510.355000", "184510.358000", "184510.360000", "184510.363000", "184510.365000", "184510.368000", "184510.370000", "184510.373000", "184510.375000", "184510.377000", "184510.380000", "184510.382000", "184510.385000", "184510.387000", "184550.325000", "184550.327000", "184550.330000", "184550.332000", "184550.335000", "184550.337000", "184550.340000", "184550.342000", "184550.345000", "184550.347000", "184550.350000", "184550.352000", "184550.355000", "184550.357000", "184550.360000", "184550.363000", "184550.365000", "184550.368000", "184550.370000", "184550.373000", "184550.375000", "184550.378000", "184550.380000", "184550.383000", "184550.385000", "184550.388000", "184550.390000", "184630.317000", "184630.319000", "184630.322000", "184630.324000", "184630.327000", "184630.330000", "184630.332000", "184630.335000", "184630.337000", "184630.340000", "184630.342000", "184630.345000", "184630.347000", "184630.350000", "184630.352000", "184630.355000", "184630.357000", "184630.360000", "184630.362000", "184630.365000", "184630.367000", "184630.370000", "184630.372000", "184630.375000", "184630.377000", "184630.380000", "184630.382000", "184645.455000", "184645.458000", "184645.460000", "184645.463000", "184645.465000", "184645.468000", "184645.470000", "184645.473000", "184645.476000", "184645.478000"],
