{
  "AcquisitionMatrixPE": 104,
  "AcquisitionNumber": 1,
  "AcquisitionTime": "18:34:28.135000",
  "BandwidthPerPixelPhaseEncode": 17.17,
  "BaseResolution": 104,
  "BodyPartExamined": "BRAIN",
  "CoilString": "HC1-7;NC1_2",
  "ConsistencyInfo": "N4_VE11C_LATEST_20160120",
  "ConversionSoftware": "dcm2niix",
  "ConversionSoftwareVersion": "v1.0.20190902",
  "DerivedVendorReportedEchoSpacing": 0.000560011,
  "DeviceSerialNumber": "167006",
  "DwellTime": 2.1e-06,
  "EchoTime": 0.037,
  "EchoTrainLength": 104,
  "EffectiveEchoSpacing": 0.000560011,
  "FlipAngle": 52,
  "HeudiconvVersion": "0.10.0",
  "ImageComments": "Unaliased_MB4_PE3_LB",
  "ImageOrientationPatientDICOM": [0.999369, 0.0164166, 0.0315039, -0.00872137, 0.973057, -0.230398],
  "ImageType": [
    "ORIGINAL",
    "PRIMARY",
    "M",
    "MB",
    "ND",
    "MOSAIC"
],
  "ImagingFrequency": 123.259,
  "InPlanePhaseEncodingDirectionDICOM": "COL",
  "InstitutionAddress": "Chemin_Queen-Mary_4565_Montreal_District_CA_H3W_1W5",
  "InstitutionName": "IUGM",
  "InstitutionalDepartmentName": "Department",
  "MRAcquisitionType": "2D",
  "MagneticFieldStrength": 3,
  "Manufacturer": "Siemens",
  "ManufacturersModelName": "Prisma_fit",
  "Modality": "MR",
  "MultibandAccelerationFactor": 4,
  "PartialFourier": 1,
  "PatientPosition": "HFS",
  "PercentPhaseFOV": 100,
  "PhaseEncodingDirection": "j",
  "PhaseEncodingSteps": 104,
  "PhaseResolution": 1,
  "PixelBandwidth": 2290,
  "ProcedureStepDescription": "games_mario",
  "ProtocolName": "func_task-mario_run-03",
  "PulseSequenceDetails": "%CustomerSeq%_cmrr_mbep2d_bold",
  "ReceiveCoilActiveElements": "HC1-7;NC1,2",
  "ReceiveCoilName": "HeadNeck_64",
  "ReconMatrixPE": 104,
  "RepetitionTime": 1.49,
  "SAR": 0.0494851,
  "ScanOptions": "FS",
  "ScanningSequence": "EP",
  "SequenceName": "epfid2d1_104",
  "SequenceVariant": "SK_SS",
  "SeriesDescription": "func_task-mario_run-03",
  "SeriesNumber": 21,
  "ShimSetting": [632, -7221, -8772, 713, 36, -23, 102, -3],
  "SliceThickness": 2,
  "SliceTiming": [0, 0.7825, 0.0975, 0.8825, 0.195, 0.98, 0.2925, 1.0775, 0.3925, 1.175, 0.49, 1.2725, 0.5875, 1.3725, 0.685, 0, 0.7825, 0.0975, 0.8825, 0.195, 0.98, 0.2925, 1.0775, 0.3925, 1.175, 0.49, 1.2725, 0.5875, 1.3725, 0.685, 0, 0.7825, 0.0975, 0.8825, 0.195, 0.98, 0.2925, 1.0775, 0.3925, 1.175, 0.49, 1.2725, 0.5875, 1.3725, 0.685, 0, 0.7825, 0.0975, 0.8825, 0.195, 0.98, 0.2925, 1.0775, 0.3925, 1.175, 0.49, 1.2725, 0.5875, 1.3725, 0.685],
  "SoftwareVersions": "syngo_MR_E11",
  "SpacingBetweenSlices": 2,
  "StationName": "MRC35049",
  "TaskName": "mario",
  "TotalReadoutTime": 0.0576811,
  "TxRefAmp": 254.772,
  "WipMemBlock": "4ed20903-4809-4f47-a86a-39d601fd69ce||Sequence: R016 ve11c/master r/e634e98; Dec 19 2017 11:00:25 by eja",
  "dcmmeta_affine": [
    [-1.9987375736236572, -0.017442740499973297, 0.06887488812208176, 108.38424682617188],
    [-0.032833196222782135, 1.9461148977279663, -0.45995527505874634, -73.73829650878906],
    [0.06300777941942215, 0.46079567074775696, 1.9451727867126465, -57.50387191772461],
    [0.0, 0.0, 0.0, 1.0]
],
  "dcmmeta_reorient_transform": [
    [0.0, -1.0, 0.0, 103.0],
    [1.0, 0.0, 0.0, 0.0],
    [0.0, 0.0, 1.0, 0.0],
    [0.0, 0.0, 0.0, 1.0]
],
  "dcmmeta_shape": [104, 104, 60, 494],
  "dcmmeta_slice_dim": 2,
  "dcmmeta_version": 0.6,
  "global": {
    "const": {
      "AcquisitionMatrix": [104, 0, 0, 104],
      "AngioFlag": "N",
      "BitsAllocated": 16,
      "BitsStored": 16,
      "BodyPartExamined": "BRAIN",
      "Columns": 832,
      "EchoNumbers": 1,
      "EchoTime": 37.0,
      "EchoTrainLength": 104,
      "FlipAngle": 52.0,
      "HighBit": 15,
      "ImageOrientationPatient": [0.99936880085091, 0.01641659876377, 0.03150389136041, -0.0087213701571, 0.97305743737808, -0.2303978325979],
      "ImagePositionPatient": [-827.77897413151, -847.04863624446, 134.75287045295],
      "ImageType": [
        "ORIGINAL",
        "PRIMARY",
        "M",
        "MB",
        "ND",
        "MOSAIC"
],
      "ImagedNucleus": "1H",
      "ImagingFrequency": 123.258918,
      "InPlanePhaseEncodingDirection": "COL",
      "MRAcquisitionType": "2D",
      "MagneticFieldStrength": 3.0,
      "Manufacturer": "SIEMENS",
      "ManufacturerModelName": "Prisma_fit",
      "Modality": "MR",
      "NumberOfAverages": 1.0,
      "NumberOfPhaseEncodingSteps": 104,
      "PercentPhaseFieldOfView": 100.0,
      "PercentSampling": 100.0,
      "PerformedProcedureStepStartTime": "173358.225000",
      "PhotometricInterpretation": "MONOCHROME2",
      "PixelBandwidth": 2290.0,
      "PixelRepresentation": 0,
      "PixelSpacing": [2.0, 2.0],
      "ProtocolName": "func_task-mario_run-03",
      "RepetitionTime": 1490.0,
      "Rows": 832,
      "SAR": 0.04948508028221,
      "SamplesPerPixel": 1,
      "ScanOptions": "FS",
      "ScanningSequence": "EP",
      "SequenceName": "epfid2d1_104",
      "SequenceVariant": [
        "SK",
        "SS"
],
      "SeriesDescription": "func_task-mario_run-03",
      "SeriesNumber": 21,
      "SeriesTime": "183550.210000",
      "SliceLocation": -35.236849260487,
      "SliceThickness": 2.0,
      "SmallestImagePixelValue": 0,
      "SoftwareVersions": "syngo MR E11",
      "SpacingBetweenSlices": 1.9999999668954,
      "SpecificCharacterSet": "ISO_IR 100",
      "StudyID": "1",
      "StudyTime": "173358.083000",
      "TransmitCoilName": "Body",
      "VariableFlipAngleFlag": "N",
      "WindowCenterWidthExplanation": "Algo1",
      "dBdt": 0.0},
    "slices": {}
  },
  "time": {
    "samples": {
      "AcquisitionNumber": [1, 2, 3, 4, 5, 6, 7, 8, 9, 10, 11, 12, 13, 14, 15, 16, 17, 18, 19, 20, 21, 22, 23, 24, 25, 26, 27, 28, 29, 30, 31, 32, 33, 34, 35, 36, 37, 38, 39, 40, 41, 42, 43, 44, 45, 46, 47, 48, 49, 50, 51, 52, 53, 54, 55, 56, 57, 58, 59, 60, 61, 62, 63, 64, 65, 66, 67, 68, 69, 70, 71, 72, 73, 74, 75, 76, 77, 78, 79, 80, 81, 82, 83, 84, 85, 86, 87, 88, 89, 90, 91, 92, 93, 94, 95, 96, 97, 98, 99, 100, 101, 102, 103, 104, 105, 106, 107, 108, 109, 110, 111, 112, 113, 114, 115, 116, 117, 118, 119, 120, 121, 122, 123, 124, 125, 126, 127, 128, 129, 130, 131, 132, 133, 134, 135, 136, 137, 138, 139, 140, 141, 142, 143, 144, 145, 146, 147, 148, 149, 150, 151, 152, 153, 154, 155, 156, 157, 158, 159, 160, 161, 162, 163, 164, 165, 166, 167, 168, 169, 170, 171, 172, 173, 174, 175, 176, 177, 178, 179, 180, 181, 182, 183, 184, 185, 186, 187, 188, 189, 190, 191, 192, 193, 194, 195, 196, 197, 198, 199, 200, 201, 202, 203, 204, 205, 206, 207, 208, 209, 210, 211, 212, 213, 214, 215, 216, 217, 218, 219, 220, 221, 222, 223, 224, 225, 226, 227, 228, 229, 230, 231, 232, 233, 234, 235, 236, 237, 238, 239, 240, 241, 242, 243, 244, 245, 246, 247, 248, 249, 250, 251, 252, 253, 254, 255, 256, 257, 258, 259, 260, 261, 262, 263, 264, 265, 266, 267, 268, 269, 270, 271, 272, 273, 274, 275, 276, 277, 278, 279, 280, 281, 282, 283, 284, 285, 286, 287, 288, 289, 290, 291, 292, 293, 294, 295, 296, 297, 298, 299, 300, 301, 302, 303, 304, 305, 306, 307, 308, 309, 310, 311, 312, 313, 314, 315, 316, 317, 318, 319, 320, 321, 322, 323, 324, 325, 326, 327, 328, 329, 330, 331, 332, 333, 334, 335, 336, 337, 338, 339, 340, 341, 342, 343, 344, 345, 346, 347, 348, 349, 350, 351, 352, 353, 354, 355, 356, 357, 358, 359, 360, 361, 362, 363, 364, 365, 366, 367, 368, 369, 370, 371, 372, 373, 374, 375, 376, 377, 378, 379, 380, 381, 382, 383, 384, 385, 386, 387, 388, 389, 390, 391, 392, 393, 394, 395, 396, 397, 398, 399, 400, 401, 402, 403, 404, 405, 406, 407, 408, 409, 410, 411, 412, 413, 414, 415, 416, 417, 418, 419, 420, 421, 422, 423, 424, 425, 426, 427, 428, 429, 430, 431, 432, 433, 434, 435, 436, 437, 438, 439, 440, 441, 442, 443, 444, 445, 446, 447, 448, 449, 450, 451, 452, 453, 454, 455, 456, 457, 458, 459, 460, 461, 462, 463, 464, 465, 466, 467, 468, 469, 470, 471, 472, 473, 474, 475, 476, 477, 478, 479, 480, 481, 482, 483, 484, 485, 486, 487, 488, 489, 490, 491, 492, 493, 494],
      "AcquisitionTime": ["183428.135000", "183429.625000", "183431.115000", "183432.605000", "183434.095000", "183435.585000", "183437.075000", "183438.565000", "183440.055000", "183441.545000", "183443.035000", "183444.525000", "183446.015000", "183447.505000", "183448.995000", "183450.485000", "183451.975000", "183453.465000", "183454.955000", "183456.445000", "183457.935000", "183459.425000", "183500.915000", "183502.405000", "183503.895000", "183505.385000", "183506.875000", "183508.365000", "183509.855000", "183511.345000", "183512.835000", "183514.325000", "183515.815000", "183517.305000", "183518.795000", "183520.285000", "183521.775000", "183523.265000", "183524.755000", "183526.245000", "183527.735000", "183529.225000", "183530.715000", "183532.205000", "183533.695000", "183535.185000", "183536.675000", "183538.165000", "183539.655000", "183541.145000", "183542.635000", "183544.125000", "183545.615000", "183547.105000", "183548.595000", "183550.085000", "183551.575000", "183553.065000", "183554.555000", "183556.045000", "183557.535000", "183559.025000", "183600.515000", "183602.005000", "183603.495000", "183604.985000", "183606.475000", "183607.965000", "183609.455000", "183610.945000", "183612.435000", "183613.925000", "183615.415000", "183616.905000", "183618.395000", "183619.885000", "183621.375000", "183622.865000", "183624.355000", "183625.845000", "183627.335000", "183628.825000", "183630.315000", "183631.805000", "183633.295000", "183634.785000", "183636.275000", "183637.765000", "183639.255000", "183640.745000", "183642.235000", "183643.725000", "183645.215000", "183646.705000", "183648.195000", "183649.685000", "183651.175000", "183652.665000", "183654.155000", "183655.645000", "183657.135000", "183658.625000", "183700.115000", "183701.605000", "183703.095000", "183704.585000", "183706.075000", "183707.565000", "183709.055000", "183710.545000", "183712.035000", "183713.525000", "183715.015000", "183716.505000", "183717.995000", "183719.485000", "183720.975000", "183722.465000", "183723.955000", "183725.445000", "183726.935000", "183728.425000", "183729.915000", "183731.405000", "183732.895000", "183734.385000", "183735.875000", "183737.365000", "183738.855000", "183740.345000", "183741.835000", "183743.325000", "183744.815000", "183746.305000", "183747.795000", "183749.285000", "183750.775000", "183752.265000", "183753.755000", "183755.245000", "183756.735000", "183758.225000", "183759.715000", "183801.205000", "183802.695000", "183804.185000", "183805.675000", "183807.165000", "183808.655000", "183810.145000", "183811.635000", "183813.125000", "183814.615000", "183816.105000", "183817.595000", "183819.085000", "183820.575000", "183822.065000", "183823.555000", "183825.045000", "183826.535000", "183828.025000", "183829.515000", "183831.005000", "183832.495000", "183833.985000", "183835.475000", "183836.965000", "183838.455000", "183839.945000", "183841.435000", "183842.925000", "183844.415000", "183845.905000", "183847.395000", "183848.885000", "183850.375000", "183851.865000", "183853.355000", "183854.845000", "183856.335000", "183857.825000", "183859.315000", "183900.805000", "183902.295000", "183903.785000", "183905.275000", "183906.765000", "183908.255000", "183909.745000", "183911.235000", "183912.725000", "183914.215000", "183915.705000", "183917.195000", "183918.685000", "183920.175000", "183921.665000", "183923.155000", "183924.645000", "183926.135000", "183927.625000", "183929.115000", "183930.605000", "183932.095000", "183933.585000", "183935.075000", "183936.565000", "183938.055000", "183939.545000", "183941.035000", "183942.525000", "183944.015000", "183945.505000", "183946.995000", "183948.485000", "183949.975000", "183951.465000", "183952.955000", "183954.445000", "183955.935000", "183957.425000", "183958.915000", "184000.405000", "184001.895000", "184003.385000", "184004.875000", "184006.365000", "184007.855000", "184009.345000", "184010.835000", "184012.325000", "184013.815000", "184015.305000", "184016.795000", "184018.285000", "184019.775000", "184021.265000", "184022.755000", "184024.245000", "184025.735000", "184027.225000", "184028.715000", "184030.205000", "184031.695000", "184033.185000", "184034.675000", "184036.165000", "184037.655000", "184039.145000", "184040.635000", "184042.125000", "184043.615000", "184045.105000", "184046.595000", "184048.085000", "184049.575000", "184051.065000", "184052.555000", "184054.045000", "184055.535000", "184057.025000", "184058.515000", "184100.005000", "184101.495000", "184102.985000", "184104.475000", "184105.965000", "184107.455000", "184108.945000", "184110.435000", "184111.925000", "184113.415000", "184114.905000", "184116.395000", "184117.885000", "184119.375000", "184120.865000", "184122.355000", "184123.845000", "184125.335000", "184126.825000", "184128.315000", "184129.805000", "184131.295000", "184132.785000", "184134.275000", "184135.765000", "184137.255000", "184138.745000", "184140.235000", "184141.725000", "184143.215000", "184144.705000", "184146.195000", "184147.685000", "184149.175000", "184150.665000", "184152.155000", "184153.645000", "184155.135000", "184156.625000", "184158.115000", "184159.605000", "184201.095000", "184202.585000", "184204.075000", "184205.565000", "184207.055000", "184208.545000", "184210.035000", "184211.525000", "184213.015000", "184214.505000", "184215.995000", "184217.485000", "184218.975000", "184220.465000", "184221.955000", "184223.445000", "184224.935000", "184226.425000", "184227.915000", "184229.405000", "184230.895000", "184232.385000", "184233.875000", "184235.365000", "184236.855000", "184238.345000", "184239.835000", "184241.325000", "184242.815000", "184244.305000", "184245.795000", "184247.285000", "184248.775000", "184250.265000", "184251.755000", "184253.245000", "184254.735000", "184256.225000", "184257.715000", "184259.205000", "184300.695000", "184302.185000", "184303.675000", "184305.165000", "184306.655000", "184308.145000", "184309.635000", "184311.125000", "184312.615000", "184314.105000", "184315.595000", "184317.085000", "184318.575000", "184320.065000", "184321.555000", "184323.045000", "184324.535000", "184326.025000", "184327.515000", "184329.005000", "184330.495000", "184331.985000", "184333.475000", "184334.965000", "184336.455000", "184337.945000", "184339.435000", "184340.925000", "184342.415000", "184343.905000", "184345.395000", "184346.885000", "184348.375000", "184349.865000", "184351.355000", "184352.845000", "184354.335000", "184355.825000", "184357.315000", "184358.805000", "184400.295000", "184401.785000", "184403.275000", "184404.765000", "184406.255000", "184407.745000", "184409.235000", "184410.725000", "184412.215000", "184413.705000", "184415.195000", "184416.685000", "184418.175000", "184419.665000", "184421.155000", "184422.645000", "184424.135000", "184425.625000", "184427.115000", "184428.605000", "184430.095000", "184431.585000", "184433.075000", "184434.565000", "184436.055000", "184437.545000", "184439.035000", "184440.525000", "184442.015000", "184443.505000", "184444.995000", "184446.485000", "184447.975000", "184449.465000", "184450.955000", "184452.445000", "184453.935000", "184455.425000", "184456.915000", "184458.405000", "184459.895000", "184501.385000", "184502.875000", "184504.365000", "184505.855000", "184507.345000", "184508.835000", "184510.325000", "184511.815000", "184513.305000", "184514.795000", "184516.285000", "184517.775000", "184519.265000", "184520.755000", "184522.245000", "184523.735000", "184525.225000", "184526.715000", "184528.205000", "184529.695000", "184531.185000", "184532.675000", "184534.165000", "184535.655000", "184537.145000", "184538.635000", "184540.125000", "184541.615000", "184543.105000", "184544.595000", "184546.085000", "184547.575000", "184549.065000", "184550.555000", "184552.045000", "184553.535000", "184555.025000", "184556.515000", "184558.005000", "184559.495000", "184600.985000", "184602.475000", "184603.965000", "184605.455000", "184606.945000", "184608.435000", "184609.925000", "184611.415000", "184612.905000", "184614.395000", "184615.885000", "184617.375000", "184618.865000", "184620.355000", "184621.845000", "184623.335000", "184624.825000", "184626.315000", "184627.805000", "184629.295000", "184630.785000", "184632.275000", "184633.765000", "184635.255000", "184636.745000", "184638.235000", "184639.725000", "184641.215000", "184642.705000"],
      "ContentTime": ["183550.213000", "183550.217000", "183550.220000", "183550.223000", "183550.227000", "183550.230000", "183550.241000", "183550.244000", "183550.248000", "183550.257000", "183550.260000", "183550.264000", "183550.268000", "183550.271000", "183550.275000", "183550.297000", "183550.300000", "183550.303000", "183550.306000", "183550.310000", "183550.313000", "183550.316000", "183550.319000", "183550.323000", "183550.326000", "183550.329000", "183610.177000", "183610.187000", "183610.190000", "183610.193000", "183610.196000", "183610.200000", "183610.203000", "183610.207000", "183610.210000", "183610.213000", "183610.220000", "183610.224000", "183610.227000", "183610.230000", "183610.234000", "183610.237000", "183610.240000", "183610.243000", "183610.247000", "183610.250000", "183610.253000", "183630.177000", "183630.181000", "183630.184000", "183630.187000", "183630.190000", "183630.194000", "183630.197000", "183630.200000", "183630.203000", "183630.207000", "183630.210000", "183630.213000", "183630.216000", "183630.220000", "183630.223000", "183630.226000", "183630.229000", "183630.233000", "183630.236000", "183630.239000", "183650.176000", "183650.180000", "183650.183000", "183650.186000", "183650.190000", "183650.193000", "183650.196000", "183650.200000", "183650.203000", "183650.206000", "183650.210000", "183650.213000", "183650.216000", "183650.220000", "183650.223000", "183650.226000", "183650.230000", "183650.233000", "183650.236000", "183650.239000", "183710.177000", "183710.181000", "183710.184000", "183710.187000", "183710.191000", "183710.194000", "183710.197000", "183710.201000", "183710.204000", "183710.207000", "183710.211000", "183710.214000", "183710.217000", "183710.221000", "183710.224000", "183710.227000", "183710.230000", "183710.234000", "183710.237000", "183710.240000", "183750.177000", "183750.207000", "183750.210000", "183750.214000", "183750.217000", "183750.220000", "183750.224000", "183750.227000", "183750.230000", "183750.233000", "183750.237000", "183750.240000", "183750.243000", "183750.247000", "183750.250000", "183750.253000", "183750.257000", "183750.260000", "183750.263000", "183750.266000", "183750.270000", "183750.273000", "183750.277000", "183750.280000", "183750.283000", "183750.286000", "183750.290000", "183750.293000", "183830.177000", "183830.181000", "183830.184000", "183830.187000", "183830.191000", "183830.194000", "183830.197000", "183830.201000", "183830.204000", "183830.207000", "183830.211000", "183830.214000", "183830.218000", "183830.221000", "183830.224000", "183830.228000", "183830.231000", "183830.234000", "183830.237000", "183830.241000", "183830.244000", "183830.248000", "183830.251000", "183830.254000", "183830.257000", "183830.261000", "183830.264000", "183910.177000", "183910.181000", "183910.184000", "183910.188000", "183910.203000", "183910.206000", "183910.210000", "183910.213000", "183910.216000", "183910.219000", "183910.223000", "183910.226000", "183910.229000", "183910.233000", "183910.236000", "183910.239000", "183910.243000", "183910.246000", "183910.249000", "183910.253000", "183910.256000", "183910.259000", "183910.263000", "183910.266000", "183910.269000", "183910.273000", "183950.177000", "183950.181000", "183950.184000", "183950.188000", "183950.191000", "183950.194000", "183950.198000", "183950.201000", "183950.204000", "183950.208000", "183950.211000", "183950.214000", "183950.217000", "183950.221000", "183950.224000", "183950.227000", "183950.231000", "183950.234000", "183950.237000", "183950.241000", "183950.244000", "183950.248000", "183950.251000", "183950.254000", "183950.257000", "183950.261000", "183950.264000", "184030.177000", "184030.181000", "184030.184000", "184030.187000", "184030.191000", "184030.194000", "184030.198000", "184030.201000", "184030.205000", "184030.208000", "184030.211000", "184030.215000", "184030.218000", "184030.221000", "184030.225000", "184030.228000", "184030.231000", "184030.235000", "184030.238000", "184030.241000", "184030.245000", "184030.248000", "184030.251000", "184030.254000", "184030.258000", "184030.261000", "184030.264000", "184110.177000", "184110.181000", "184110.184000", "184110.187000", "184110.191000", "184110.194000", "184110.197000", "184110.201000", "184110.204000", "184110.207000", "184110.210000", "184110.214000", "184110.217000", "184110.220000", "184110.224000", "184110.227000", "184110.230000", "184110.233000", "184110.237000", "184110.240000", "184110.243000", "184110.247000", "184110.250000", "184110.253000", "184110.256000", "184110.260000", "184110.263000", "184150.177000", "184150.181000", "184150.184000", "184150.188000", "184150.191000", "184150.194000", "184150.198000", "184150.201000", "184150.204000", "184150.208000", "184150.211000", "184150.214000", "184150.218000", "184150.221000", "184150.224000", "184150.228000", "184150.231000", "184150.234000", "184150.238000", "184150.241000", "184150.244000", "184150.248000", "184150.251000", "184150.254000", "184150.258000", "184150.261000", "184150.264000", "184230.177000", "184230.181000", "184230.184000", "184230.187000", "184230.191000", "184230.194000", "184230.197000", "184230.201000", "184230.204000", "184230.207000", "184230.211000", "184230.214000", "184230.218000", "184230.221000", "184230.224000", "184230.227000", "184230.231000", "184230.234000", "184230.237000", "184230.241000", "184230.244000", "184230.247000", "184230.250000", "184230.254000", "184230.257000", "184230.260000", "184230.263000", "184310.177000", "184310.181000", "184310.184000", "184310.188000", "184310.193000", "184310.197000", "184310.200000", "184310.204000", "184310.208000", "184310.212000", "184310.215000", "184310.219000", "184310.222000", "184310.225000", "184310.229000", "184310.232000", "184310.235000", "184310.239000", "184310.242000", "184310.245000", "184310.249000", "184310.252000", "184310.255000", "184310.259000", "184310.262000", "184310.265000", "184350.176000", "184350.180000", "184350.183000", "184350.187000", "184350.201000", "184350.204000", "184350.207000", "184350.211000", "184350.214000", "184350.225000", "184350.229000", "184350.232000", "184350.235000", "184350.239000", "184350.242000", "184350.245000", "184350.248000", "184350.252000", "184350.255000", "184350.259000", "184350.262000", "184350.265000", "184350.269000", "184350.272000", "184350.275000", "184350.279000", "184350.283000", "184430.177000", "184430.181000", "184430.184000", "184430.188000", "184430.191000", "184430.194000", "184430.197000", "184430.201000", "184430.204000", "184430.207000", "184430.211000", "184430.214000", "184430.218000", "184430.221000", "184430.224000", "184430.228000", "184430.231000", "184430.234000", "184430.237000", "184430.241000", "184430.244000", "184430.247000", "184430.251000", "184430.254000", "184430.257000", "184430.261000", "184430.264000", "184510.177000", "184510.181000", "184510.184000", "184510.188000", "184510.191000", "184510.194000", "184510.198000", "184510.201000", "184510.204000", "184510.208000", "184510.211000", "184510.215000", "184510.218000", "184510.221000", "184510.225000", "184510.228000", "184510.231000", "184510.234000", "184510.238000", "184510.241000", "184510.244000", "184510.248000", "184510.251000", "184510.254000", "184510.258000", "184510.261000", "184510.264000", "184550.177000", "184550.181000", "184550.184000", "184550.188000", "184550.191000", "184550.194000", "184550.198000", "184550.201000", "184550.204000", "184550.207000", "184550.211000", "184550.214000", "184550.217000", "184550.221000", "184550.224000", "184550.227000", "184550.230000", "184550.234000", "184550.248000", "184550.252000", "184550.255000", "184550.259000", "184550.262000", "184550.265000", "184550.268000", "184550.272000", "184550.275000", "184630.177000", "184630.181000", "184630.184000", "184630.188000", "184630.191000", "184630.194000", "184630.197000", "184630.201000", "184630.204000", "184630.207000", "184630.211000", "184630.214000", "184630.218000", "184630.221000", "184630.224000", "184630.228000", "184630.231000", "184630.234000", "184630.238000", "184630.241000", "184630.244000", "184630.248000", "184630.251000", "184630.254000", "184630.258000", "184630.261000", "184630.264000", "184645.380000", "184645.384000", "184645.388000", "184645.392000", "184645.395000", "184645.399000", "184645.402000", "184645.406000", "184645.409000", "184645.412000"],
