{
  "AcquisitionMatrixPE": 104,
  "AcquisitionNumber": 1,
  "AcquisitionTime": "18:25:13.420000",
  "BandwidthPerPixelPhaseEncode": 17.17,
  "BaseResolution": 104,
  "BodyPartExamined": "BRAIN",
  "CoilCombinationMethod": "Sum of Squares",
  "ConsistencyInfo": "N4_VE11C_LATEST_20160120",
  "ConversionSoftware": "dcm2niix",
  "ConversionSoftwareVersion": "v1.0.20211006",
  "DerivedVendorReportedEchoSpacing": 0.000560011,
  "DeviceSerialNumber": "167006",
  "DwellTime": 2.1e-06,
  "EchoTime": 0.037,
  "EchoTrainLength": 104,
  "EffectiveEchoSpacing": 0.000560011,
  "FlipAngle": 52,
  "HeudiconvVersion": "0.5.3.post569+g418601f",
  "ImageComments": "Unaliased MB4/PE3/LB",
  "ImageOrientationPatientDICOM": [0.99974, 0.0150932, 0.017099, -0.0109931, 0.975762, -0.218556],
  "ImageOrientationText": "Tra>Cor(-12.6)>Sag(1.1)",
  "ImageType": [
    "ORIGINAL",
    "PRIMARY",
    "M",
    "MB",
    "ND",
    "MOSAIC"
],
  "ImagingFrequency": 123.259,
  "InPlanePhaseEncodingDirectionDICOM": "COL",
  "InstitutionAddress": "Chemin Queen-Mary 4565,Montreal,District,CA,H3W 1W5",
  "InstitutionName": "IUGM",
  "InstitutionalDepartmentName": "Department",
  "MRAcquisitionType": "2D",
  "MagneticFieldStrength": 3,
  "Manufacturer": "Siemens",
  "ManufacturersModelName": "Prisma_fit",
  "MatrixCoilMode": "SENSE",
  "Modality": "MR",
  "MultibandAccelerationFactor": 4,
  "PartialFourier": 1,
  "PatientPosition": "HFS",
  "PercentPhaseFOV": 100,
  "PercentSampling": 100,
  "PhaseEncodingDirection": "j",
  "PhaseEncodingSteps": 104,
  "PhaseResolution": 1,
  "PixelBandwidth": 2290,
  "ProcedureStepDescription": "games^mario",
  "ProtocolName": "func_task-mario_run-02",
  "PulseSequenceDetails": "%CustomerSeq%\\cmrr_mbep2d_bold",
  "ReceiveCoilActiveElements": "HC1-7;NC1,2",
  "ReceiveCoilName": "HeadNeck_64",
  "ReconMatrixPE": 104,
  "RepetitionTime": 1.49,
  "SAR": 0.0296776,
  "ScanOptions": "FS",
  "ScanningSequence": "EP",
  "SequenceName": "epfid2d1_104",
  "SequenceVariant": "SK\\SS",
  "SeriesDescription": "func_task-mario_run-02",
  "SeriesNumber": 13,
  "ShimSetting": [631, -7249, -8769, 727, 25, -127, 149, 13],
  "SliceThickness": 2,
  "SliceTiming": [0, 0.7825, 0.0975, 0.8825, 0.195, 0.98, 0.2925, 1.0775, 0.3925, 1.175, 0.49, 1.2725, 0.5875, 1.3725, 0.685, 0, 0.7825, 0.0975, 0.8825, 0.195, 0.98, 0.2925, 1.0775, 0.3925, 1.175, 0.49, 1.2725, 0.5875, 1.3725, 0.685, 0, 0.7825, 0.0975, 0.8825, 0.195, 0.98, 0.2925, 1.0775, 0.3925, 1.175, 0.49, 1.2725, 0.5875, 1.3725, 0.685, 0, 0.7825, 0.0975, 0.8825, 0.195, 0.98, 0.2925, 1.0775, 0.3925, 1.175, 0.49, 1.2725, 0.5875, 1.3725, 0.685],
  "SoftwareVersions": "syngo MR E11",
  "SpacingBetweenSlices": 2,
  "StationName": "MRC35049",
  "TaskName": "mario",
  "TotalReadoutTime": 0.0576811,
  "TxRefAmp": 207.13,
  "WipMemBlock": "7fa99bb7-4b50-4859-a9f1-51920d30bc66||Sequence: R016 ve11c/master r/e634e98; Dec 19 2017 11:00:25 by eja",
  "dcmmeta_affine": [
    [-1.9994797706604004, -0.02198629267513752, 0.03996662795543671, 109.00312805175781],
    [-0.030186427757143974, 1.9515247344970703, -0.4366232454776764, -74.8436279296875],
    [0.03419806808233261, 0.4371128976345062, 1.9513490200042725, -51.688446044921875],
    [0.0, 0.0, 0.0, 1.0]
],
  "dcmmeta_reorient_transform": [
    [0.0, -1.0, 0.0, 103.0],
    [1.0, 0.0, 0.0, 0.0],
    [0.0, 0.0, 1.0, 0.0],
    [0.0, 0.0, 0.0, 1.0]
],
  "dcmmeta_shape": [104, 104, 60, 437],
  "dcmmeta_slice_dim": 2,
  "dcmmeta_version": 0.6,
  "global": {
    "const": {
      "AcquisitionMatrix": [104, 0, 0, 104],
      "AngioFlag": "N",
      "BitsAllocated": 16,
      "BitsStored": 16,
      "BodyPartExamined": "BRAIN",
      "Columns": 832,
      "EchoNumbers": 1,
      "EchoTime": 37.0,
      "EchoTrainLength": 104,
      "FlipAngle": 52.0,
      "HighBit": 15,
      "ImageOrientationPatient": [0.99973987511852, 0.0150932141592, 0.01709903460276, -0.0109931459327, 0.97576238366048, -0.2185564489456],
      "ImagePositionPatient": [-826.5461579627, -847.50629830394, 139.99517905431],
      "ImageType": [
        "ORIGINAL",
        "PRIMARY",
        "M",
        "MB",
        "ND",
        "MOSAIC"
],
      "ImagedNucleus": "1H",
      "ImagingFrequency": 123.258841,
      "InPlanePhaseEncodingDirection": "COL",
      "MRAcquisitionType": "2D",
      "MagneticFieldStrength": 3.0,
      "Manufacturer": "SIEMENS",
      "ManufacturerModelName": "Prisma_fit",
      "Modality": "MR",
      "NumberOfAverages": 1.0,
      "NumberOfPhaseEncodingSteps": 104,
      "PercentPhaseFieldOfView": 100.0,
      "PercentSampling": 100.0,
      "PerformedProcedureStepStartTime": "172850.660000",
      "PhotometricInterpretation": "MONOCHROME2",
      "PixelBandwidth": 2290.0,
      "PixelRepresentation": 0,
      "PixelSpacing": [2.0, 2.0],
      "ProtocolName": "func_task-mario_run-02",
      "RepetitionTime": 1490.0,
      "Rows": 832,
      "SAR": 0.0296775577936,
      "SamplesPerPixel": 1,
      "ScanOptions": "FS",
      "ScanningSequence": "EP",
      "SequenceName": "epfid2d1_104",
      "SequenceVariant": [
        "SK",
        "SS"
],
      "SeriesDescription": "func_task-mario_run-02",
      "SeriesNumber": 13,
      "SeriesTime": "182630.112000",
      "SliceLocation": -31.913621256372,
      "SliceThickness": 2.0,
      "SmallestImagePixelValue": 0,
      "SoftwareVersions": "syngo MR E11",
      "SpacingBetweenSlices": 1.9999999946541,
      "SpecificCharacterSet": "ISO_IR 100",
      "StudyID": "1",
      "StudyTime": "172850.601000",
      "TransmitCoilName": "Body",
      "VariableFlipAngleFlag": "N",
      "WindowCenterWidthExplanation": "Algo1",
      "dBdt": 0.0},
    "slices": {}
  },
  "time": {
    "samples": {
      "AcquisitionNumber": [1, 2, 3, 4, 5, 6, 7, 8, 9, 10, 11, 12, 13, 14, 15, 16, 17, 18, 19, 20, 21, 22, 23, 24, 25, 26, 27, 28, 29, 30, 31, 32, 33, 34, 35, 36, 37, 38, 39, 40, 41, 42, 43, 44, 45, 46, 47, 48, 49, 50, 51, 52, 53, 54, 55, 56, 57, 58, 59, 60, 61, 62, 63, 64, 65, 66, 67, 68, 69, 70, 71, 72, 73, 74, 75, 76, 77, 78, 79, 80, 81, 82, 83, 84, 85, 86, 87, 88, 89, 90, 91, 92, 93, 94, 95, 96, 97, 98, 99, 100, 101, 102, 103, 104, 105, 106, 107, 108, 109, 110, 111, 112, 113, 114, 115, 116, 117, 118, 119, 120, 121, 122, 123, 124, 125, 126, 127, 128, 129, 130, 131, 132, 133, 134, 135, 136, 137, 138, 139, 140, 141, 142, 143, 144, 145, 146, 147, 148, 149, 150, 151, 152, 153, 154, 155, 156, 157, 158, 159, 160, 161, 162, 163, 164, 165, 166, 167, 168, 169, 170, 171, 172, 173, 174, 175, 176, 177, 178, 179, 180, 181, 182, 183, 184, 185, 186, 187, 188, 189, 190, 191, 192, 193, 194, 195, 196, 197, 198, 199, 200, 201, 202, 203, 204, 205, 206, 207, 208, 209, 210, 211, 212, 213, 214, 215, 216, 217, 218, 219, 220, 221, 222, 223, 224, 225, 226, 227, 228, 229, 230, 231, 232, 233, 234, 235, 236, 237, 238, 239, 240, 241, 242, 243, 244, 245, 246, 247, 248, 249, 250, 251, 252, 253, 254, 255, 256, 257, 258, 259, 260, 261, 262, 263, 264, 265, 266, 267, 268, 269, 270, 271, 272, 273, 274, 275, 276, 277, 278, 279, 280, 281, 282, 283, 284, 285, 286, 287, 288, 289, 290, 291, 292, 293, 294, 295, 296, 297, 298, 299, 300, 301, 302, 303, 304, 305, 306, 307, 308, 309, 310, 311, 312, 313, 314, 315, 316, 317, 318, 319, 320, 321, 322, 323, 324, 325, 326, 327, 328, 329, 330, 331, 332, 333, 334, 335, 336, 337, 338, 339, 340, 341, 342, 343, 344, 345, 346, 347, 348, 349, 350, 351, 352, 353, 354, 355, 356, 357, 358, 359, 360, 361, 362, 363, 364, 365, 366, 367, 368, 369, 370, 371, 372, 373, 374, 375, 376, 377, 378, 379, 380, 381, 382, 383, 384, 385, 386, 387, 388, 389, 390, 391, 392, 393, 394, 395, 396, 397, 398, 399, 400, 401, 402, 403, 404, 405, 406, 407, 408, 409, 410, 411, 412, 413, 414, 415, 416, 417, 418, 419, 420, 421, 422, 423, 424, 425, 426, 427, 428, 429, 430, 431, 432, 433, 434, 435, 436, 437],
      "AcquisitionTime": ["182513.420000", "182514.910000", "182516.400000", "182517.890000", "182519.380000", "182520.870000", "182522.360000", "182523.850000", "182525.340000", "182526.830000", "182528.320000", "182529.810000", "182531.300000", "182532.790000", "182534.280000", "182535.770000", "182537.260000", "182538.750000", "182540.240000", "182541.730000", "182543.220000", "182544.710000", "182546.200000", "182547.690000", "182549.180000", "182550.670000", "182552.160000", "182553.650000", "182555.140000", "182556.630000", "182558.120000", "182559.610000", "182601.100000", "182602.590000", "182604.080000", "182605.570000", "182607.060000", "182608.550000", "182610.040000", "182611.530000", "182613.020000", "182614.510000", "182616.000000", "182617.490000", "182618.980000", "182620.470000", "182621.960000", "182623.450000", "182624.940000", "182626.430000", "182627.920000", "182629.410000", "182630.900000", "182632.390000", "182633.880000", "182635.370000", "182636.860000", "182638.350000", "182639.840000", "182641.330000", "182642.820000", "182644.310000", "182645.800000", "182647.290000", "182648.780000", "182650.270000", "182651.760000", "182653.250000", "182654.740000", "182656.230000", "182657.720000", "182659.210000", "182700.700000", "182702.190000", "182703.680000", "182705.170000", "182706.660000", "182708.150000", "182709.640000", "182711.130000", "182712.620000", "182714.110000", "182715.600000", "182717.090000", "182718.580000", "182720.070000", "182721.560000", "182723.050000", "182724.540000", "182726.030000", "182727.520000", "182729.010000", "182730.500000", "182731.990000", "182733.480000", "182734.970000", "182736.460000", "182737.950000", "182739.440000", "182740.930000", "182742.420000", "182743.910000", "182745.400000", "182746.890000", "182748.380000", "182749.870000", "182751.360000", "182752.850000", "182754.340000", "182755.830000", "182757.320000", "182758.810000", "182800.300000", "182801.790000", "182803.280000", "182804.770000", "182806.260000", "182807.750000", "182809.240000", "182810.730000", "182812.220000", "182813.710000", "182815.200000", "182816.690000", "182818.180000", "182819.670000", "182821.160000", "182822.650000", "182824.140000", "182825.630000", "182827.120000", "182828.610000", "182830.100000", "182831.590000", "182833.080000", "182834.570000", "182836.060000", "182837.550000", "182839.040000", "182840.530000", "182842.020000", "182843.510000", "182845.000000", "182846.490000", "182847.980000", "182849.470000", "182850.960000", "182852.450000", "182853.940000", "182855.430000", "182856.920000", "182858.410000", "182859.900000", "182901.390000", "182902.880000", "182904.370000", "182905.860000", "182907.350000", "182908.840000", "182910.330000", "182911.820000", "182913.310000", "182914.800000", "182916.290000", "182917.780000", "182919.270000", "182920.760000", "182922.250000", "182923.740000", "182925.230000", "182926.720000", "182928.210000", "182929.700000", "182931.190000", "182932.680000", "182934.170000", "182935.660000", "182937.150000", "182938.640000", "182940.130000", "182941.620000", "182943.110000", "182944.600000", "182946.090000", "182947.580000", "182949.070000", "182950.560000", "182952.050000", "182953.540000", "182955.030000", "182956.520000", "182958.010000", "182959.500000", "183000.990000", "183002.480000", "183003.970000", "183005.460000", "183006.950000", "183008.440000", "183009.930000", "183011.420000", "183012.910000", "183014.400000", "183015.890000", "183017.380000", "183018.870000", "183020.360000", "183021.850000", "183023.340000", "183024.830000", "183026.320000", "183027.810000", "183029.300000", "183030.790000", "183032.280000", "183033.770000", "183035.260000", "183036.750000", "183038.240000", "183039.730000", "183041.220000", "183042.710000", "183044.200000", "183045.690000", "183047.180000", "183048.670000", "183050.160000", "183051.650000", "183053.140000", "183054.630000", "183056.120000", "183057.610000", "183059.100000", "183100.590000", "183102.080000", "183103.570000", "183105.060000", "183106.550000", "183108.040000", "183109.530000", "183111.020000", "183112.510000", "183114.000000", "183115.490000", "183116.980000", "183118.470000", "183119.960000", "183121.450000", "183122.940000", "183124.430000", "183125.920000", "183127.410000", "183128.900000", "183130.390000", "183131.880000", "183133.370000", "183134.860000", "183136.350000", "183137.840000", "183139.330000", "183140.820000", "183142.310000", "183143.800000", "183145.290000", "183146.780000", "183148.270000", "183149.760000", "183151.250000", "183152.740000", "183154.230000", "183155.720000", "183157.210000", "183158.700000", "183200.190000", "183201.680000", "183203.170000", "183204.660000", "183206.150000", "183207.640000", "183209.130000", "183210.620000", "183212.110000", "183213.600000", "183215.090000", "183216.580000", "183218.070000", "183219.560000", "183221.050000", "183222.540000", "183224.030000", "183225.520000", "183227.010000", "183228.500000", "183229.990000", "183231.480000", "183232.970000", "183234.460000", "183235.950000", "183237.440000", "183238.930000", "183240.420000", "183241.910000", "183243.400000", "183244.890000", "183246.380000", "183247.870000", "183249.360000", "183250.850000", "183252.340000", "183253.830000", "183255.320000", "183256.810000", "183258.300000", "183259.790000", "183301.280000", "183302.770000", "183304.260000", "183305.750000", "183307.240000", "183308.730000", "183310.220000", "183311.710000", "183313.200000", "183314.690000", "183316.180000", "183317.670000", "183319.160000", "183320.650000", "183322.140000", "183323.630000", "183325.120000", "183326.610000", "183328.100000", "183329.590000", "183331.080000", "183332.570000", "183334.060000", "183335.550000", "183337.040000", "183338.530000", "183340.020000", "183341.510000", "183343.000000", "183344.490000", "183345.980000", "183347.470000", "183348.960000", "183350.450000", "183351.940000", "183353.430000", "183354.920000", "183356.410000", "183357.900000", "183359.390000", "183400.880000", "183402.370000", "183403.860000", "183405.350000", "183406.840000", "183408.330000", "183409.820000", "183411.310000", "183412.800000", "183414.290000", "183415.780000", "183417.270000", "183418.760000", "183420.250000", "183421.740000", "183423.230000", "183424.720000", "183426.210000", "183427.700000", "183429.190000", "183430.680000", "183432.170000", "183433.660000", "183435.150000", "183436.640000", "183438.130000", "183439.620000", "183441.110000", "183442.600000", "183444.090000", "183445.580000", "183447.070000", "183448.560000", "183450.050000", "183451.540000", "183453.030000", "183454.520000", "183456.010000", "183457.500000", "183458.990000", "183500.480000", "183501.970000", "183503.460000", "183504.950000", "183506.440000", "183507.930000", "183509.420000", "183510.910000", "183512.400000", "183513.890000", "183515.380000", "183516.870000", "183518.360000", "183519.850000", "183521.340000", "183522.830000", "183524.320000", "183525.810000", "183527.300000", "183528.790000", "183530.280000", "183531.770000", "183533.260000", "183534.750000", "183536.240000", "183537.730000", "183539.220000", "183540.710000", "183542.200000", "183543.690000", "183545.180000", "183546.670000", "183548.160000", "183549.650000", "183551.140000", "183552.630000", "183554.120000", "183555.610000", "183557.100000", "183558.590000", "183600.080000", "183601.570000", "183603.060000"],
      "ContentTime": ["182630.115000", "182630.119000", "182630.122000", "182630.126000", "182630.129000", "182630.132000", "182630.136000", "182630.139000", "182630.143000", "182630.146000", "182630.149000", "182630.153000", "182630.156000", "182630.160000", "182630.163000", "182630.166000", "182630.170000", "182630.173000", "182630.177000", "182630.180000", "182630.183000", "182630.187000", "182630.190000", "182650.055000", "182650.059000", "182650.062000", "182650.066000", "182650.069000", "182650.073000", "182650.076000", "182650.079000", "182650.083000", "182650.086000", "182650.089000", "182650.093000", "182650.096000", "182650.099000", "182650.103000", "182650.106000", "182650.110000", "182650.113000", "182650.116000", "182650.120000", "182710.055000", "182710.059000", "182710.062000", "182710.066000", "182710.069000", "182710.073000", "182710.076000", "182710.079000", "182710.083000", "182710.086000", "182710.089000", "182710.093000", "182710.096000", "182710.100000", "182710.103000", "182710.106000", "182710.110000", "182710.113000", "182710.117000", "182710.120000", "182730.055000", "182730.059000", "182730.062000", "182730.066000", "182730.069000", "182730.072000", "182730.076000", "182730.079000", "182730.083000", "182730.086000", "182730.089000", "182730.093000", "182730.096000", "182730.100000", "182730.103000", "182730.106000", "182730.110000", "182730.113000", "182730.117000", "182730.120000", "182730.123000", "182750.055000", "182750.059000", "182750.063000", "182750.066000", "182750.069000", "182750.073000", "182750.076000", "182750.080000", "182750.083000", "182750.086000", "182750.090000", "182750.093000", "182750.104000", "182750.107000", "182750.110000", "182750.114000", "182750.117000", "182750.121000", "182750.124000", "182750.127000", "182830.055000", "182830.059000", "182830.062000", "182830.066000", "182830.069000", "182830.073000", "182830.076000", "182830.080000", "182830.083000", "182830.086000", "182830.090000", "182830.093000", "182830.097000", "182830.100000", "182830.103000", "182830.107000", "182830.110000", "182830.114000", "182830.117000", "182830.120000", "182830.124000", "182830.127000", "182830.131000", "182830.134000", "182830.137000", "182830.141000", "182830.144000", "182910.055000", "182910.059000", "182910.062000", "182910.066000", "182910.069000", "182910.073000", "182910.076000", "182910.080000", "182910.093000", "182910.096000", "182910.099000", "182910.103000", "182910.106000", "182910.110000", "182910.113000", "182910.116000", "182910.120000", "182910.123000", "182910.126000", "182910.130000", "182910.133000", "182910.137000", "182910.148000", "182910.152000", "182910.155000", "182910.158000", "182910.194000", "182950.055000", "182950.059000", "182950.063000", "182950.066000", "182950.069000", "182950.073000", "182950.076000", "182950.080000", "182950.083000", "182950.087000", "182950.090000", "182950.093000", "182950.097000", "182950.100000", "182950.103000", "182950.107000", "182950.110000", "182950.114000", "182950.117000", "182950.121000", "182950.124000", "182950.127000", "182950.140000", "182950.143000", "182950.147000", "182950.150000", "182950.154000", "183030.055000", "183030.059000", "183030.062000", "183030.066000", "183030.069000", "183030.073000", "183030.076000", "183030.079000", "183030.083000", "183030.086000", "183030.090000", "183030.093000", "183030.097000", "183030.107000", "183030.110000", "183030.114000", "183030.130000", "183030.133000", "183030.137000", "183030.140000", "183030.144000", "183030.147000", "183030.150000", "183030.154000", "183030.157000", "183030.215000", "183030.218000", "183110.055000", "183110.059000", "183110.063000", "183110.066000", "183110.069000", "183110.073000", "183110.076000", "183110.079000", "183110.083000", "183110.086000", "183110.090000", "183110.093000", "183110.097000", "183110.100000", "183110.103000", "183110.107000", "183110.110000", "183110.114000", "183110.117000", "183110.121000", "183110.124000", "183110.127000", "183110.131000", "183110.134000", "183110.138000", "183110.149000", "183110.152000", "183150.055000", "183150.059000", "183150.063000", "183150.066000", "183150.069000", "183150.073000", "183150.076000", "183150.080000", "183150.083000", "183150.086000", "183150.090000", "183150.093000", "183150.097000", "183150.100000", "183150.104000", "183150.107000", "183150.111000", "183150.114000", "183150.117000", "183150.121000", "183150.124000", "183150.127000", "183150.131000", "183150.134000", "183150.138000", "183150.141000", "183150.145000", "183230.055000", "183230.059000", "183230.062000", "183230.067000", "183230.070000", "183230.074000", "183230.077000", "183230.081000", "183230.084000", "183230.088000", "183230.091000", "183230.094000", "183230.098000", "183230.101000", "183230.105000", "183230.108000", "183230.112000", "183230.115000", "183230.118000", "183230.122000", "183230.126000", "183230.129000", "183230.132000", "183230.136000", "183230.139000", "183230.143000", "183310.064000", "183310.068000", "183310.071000", "183310.074000", "183310.078000", "183310.081000", "183310.085000", "183310.088000", "183310.092000", "183310.095000", "183310.098000", "183310.102000", "183310.105000", "183310.109000", "183310.112000", "183310.115000", "183310.119000", "183310.122000", "183310.126000", "183310.129000", "183310.132000", "183310.136000", "183310.139000", "183310.143000", "183310.146000", "183310.149000", "183310.153000", "183350.055000", "183350.059000", "183350.063000", "183350.066000", "183350.069000", "183350.073000", "183350.083000", "183350.087000", "183350.091000", "183350.094000", "183350.097000", "183350.101000", "183350.104000", "183350.108000", "183350.111000", "183350.115000", "183350.118000", "183350.121000", "183350.125000", "183350.128000", "183350.132000", "183350.135000", "183350.139000", "183350.142000", "183350.145000", "183350.149000", "183350.152000", "183430.055000", "183430.059000", "183430.063000", "183430.066000", "183430.069000", "183430.073000", "183430.076000", "183430.080000", "183430.083000", "183430.087000", "183430.090000", "183430.093000", "183430.097000", "183430.100000", "183430.104000", "183430.107000", "183430.111000", "183430.115000", "183430.118000", "183430.121000", "183430.125000", "183430.128000", "183430.132000", "183430.135000", "183430.139000", "183430.142000", "183430.145000", "183510.055000", "183510.059000", "183510.062000", "183510.066000", "183510.071000", "183510.074000", "183510.077000", "183510.081000", "183510.084000", "183510.088000", "183510.091000", "183510.095000", "183510.098000", "183510.102000", "183510.105000", "183510.124000", "183510.127000", "183510.131000", "183510.134000", "183510.144000", "183510.148000", "183510.151000", "183510.155000", "183510.158000", "183510.162000", "183510.165000", "183510.168000", "183550.055000", "183550.059000", "183550.062000", "183550.066000", "183550.069000", "183550.073000", "183550.076000", "183550.079000", "183550.083000", "183550.086000", "183550.090000", "183550.093000", "183550.096000", "183550.100000", "183550.103000", "183550.107000", "183550.110000", "183550.113000", "183550.117000", "183550.120000", "183550.124000", "183550.127000", "183550.131000", "183550.134000", "183550.137000", "183550.141000", "183550.144000", "183604.986000", "183604.990000", "183604.994000", "183604.997000", "183605.001000", "183605.005000", "183605.008000", "183605.011000", "183605.015000", "183605.018000"],
