{
  "AcquisitionMatrixPE": 104,
  "AcquisitionNumber": 1,
  "AcquisitionTime": "18:11:34.880000",
  "BandwidthPerPixelPhaseEncode": 17.17,
  "BaseResolution": 104,
  "BodyPartExamined": "BRAIN",
  "CoilCombinationMethod": "Sum of Squares",
  "ConsistencyInfo": "N4_VE11C_LATEST_20160120",
  "ConversionSoftware": "dcm2niix",
  "ConversionSoftwareVersion": "v1.0.20211006",
  "DerivedVendorReportedEchoSpacing": 0.000560011,
  "DeviceSerialNumber": "167006",
  "DwellTime": 2.1e-06,
  "EchoTime": 0.037,
  "EchoTrainLength": 104,
  "EffectiveEchoSpacing": 0.000560011,
  "FlipAngle": 52,
  "HeudiconvVersion": "0.5.3.post569+g418601f",
  "ImageComments": "Unaliased MB4/PE3/LB",
  "ImageOrientationPatientDICOM": [0.99974, 0.0150932, 0.017099, -0.0109931, 0.975762, -0.218556],
  "ImageOrientationText": "Tra>Cor(-12.6)>Sag(1.1)",
  "ImageType": [
    "ORIGINAL",
    "PRIMARY",
    "M",
    "MB",
    "ND",
    "MOSAIC"
],
  "ImagingFrequency": 123.259,
  "InPlanePhaseEncodingDirectionDICOM": "COL",
  "InstitutionAddress": "Chemin Queen-Mary 4565,Montreal,District,CA,H3W 1W5",
  "InstitutionName": "IUGM",
  "InstitutionalDepartmentName": "Department",
  "MRAcquisitionType": "2D",
  "MagneticFieldStrength": 3,
  "Manufacturer": "Siemens",
  "ManufacturersModelName": "Prisma_fit",
  "MatrixCoilMode": "SENSE",
  "Modality": "MR",
  "MultibandAccelerationFactor": 4,
  "PartialFourier": 1,
  "PatientPosition": "HFS",
  "PercentPhaseFOV": 100,
  "PercentSampling": 100,
  "PhaseEncodingDirection": "j",
  "PhaseEncodingSteps": 104,
  "PhaseResolution": 1,
  "PixelBandwidth": 2290,
  "ProcedureStepDescription": "games^mario",
  "ProtocolName": "func_task-mario_run-01",
  "PulseSequenceDetails": "%CustomerSeq%\\cmrr_mbep2d_bold",
  "ReceiveCoilActiveElements": "HC1-7;NC1,2",
  "ReceiveCoilName": "HeadNeck_64",
  "ReconMatrixPE": 104,
  "RepetitionTime": 1.49,
  "SAR": 0.0296776,
  "ScanOptions": "FS",
  "ScanningSequence": "EP",
  "SequenceName": "epfid2d1_104",
  "SequenceVariant": "SK\\SS",
  "SeriesDescription": "func_task-mario_run-01",
  "SeriesNumber": 10,
  "ShimSetting": [631, -7249, -8769, 727, 25, -127, 149, 13],
  "SliceThickness": 2,
  "SliceTiming": [0, 0.785, 0.0975, 0.8825, 0.195, 0.98, 0.295, 1.0775, 0.3925, 1.175, 0.49, 1.275, 0.5875, 1.3725, 0.685, 0, 0.785, 0.0975, 0.8825, 0.195, 0.98, 0.295, 1.0775, 0.3925, 1.175, 0.49, 1.275, 0.5875, 1.3725, 0.685, 0, 0.785, 0.0975, 0.8825, 0.195, 0.98, 0.295, 1.0775, 0.3925, 1.175, 0.49, 1.275, 0.5875, 1.3725, 0.685, 0, 0.785, 0.0975, 0.8825, 0.195, 0.98, 0.295, 1.0775, 0.3925, 1.175, 0.49, 1.275, 0.5875, 1.3725, 0.685],
  "SoftwareVersions": "syngo MR E11",
  "SpacingBetweenSlices": 2,
  "StationName": "MRC35049",
  "TaskName": "mario",
  "TotalReadoutTime": 0.0576811,
  "TxRefAmp": 207.13,
  "WipMemBlock": "78736ea5-11dc-4047-9de4-6a6a27fe34f1||Sequence: R016 ve11c/master r/e634e98; Dec 19 2017 11:00:25 by eja",
  "dcmmeta_affine": [
    [-1.9994797706604004, -0.02198629267513752, 0.03996662795543671, 109.00312805175781],
    [-0.030186427757143974, 1.9515247344970703, -0.4366232454776764, -74.8436279296875],
    [0.03419806808233261, 0.4371128976345062, 1.9513490200042725, -51.688446044921875],
    [0.0, 0.0, 0.0, 1.0]
],
  "dcmmeta_reorient_transform": [
    [0.0, -1.0, 0.0, 103.0],
    [1.0, 0.0, 0.0, 0.0],
    [0.0, 0.0, 1.0, 0.0],
    [0.0, 0.0, 0.0, 1.0]
],
  "dcmmeta_shape": [104, 104, 60, 502],
  "dcmmeta_slice_dim": 2,
  "dcmmeta_version": 0.6,
  "global": {
    "const": {
      "AcquisitionMatrix": [104, 0, 0, 104],
      "AngioFlag": "N",
      "BitsAllocated": 16,
      "BitsStored": 16,
      "BodyPartExamined": "BRAIN",
      "Columns": 832,
      "EchoNumbers": 1,
      "EchoTime": 37.0,
      "EchoTrainLength": 104,
      "FlipAngle": 52.0,
      "HighBit": 15,
      "ImageOrientationPatient": [0.99973987511852, 0.0150932141592, 0.01709903460276, -0.0109931459327, 0.97576238366048, -0.2185564489456],
      "ImagePositionPatient": [-826.5461579627, -847.50629830394, 139.99517905431],
      "ImageType": [
        "ORIGINAL",
        "PRIMARY",
        "M",
        "MB",
        "ND",
        "MOSAIC"
],
      "ImagedNucleus": "1H",
      "ImagingFrequency": 123.258826,
      "InPlanePhaseEncodingDirection": "COL",
      "MRAcquisitionType": "2D",
      "MagneticFieldStrength": 3.0,
      "Manufacturer": "SIEMENS",
      "ManufacturerModelName": "Prisma_fit",
      "Modality": "MR",
      "NumberOfAverages": 1.0,
      "NumberOfPhaseEncodingSteps": 104,
      "PercentPhaseFieldOfView": 100.0,
      "PercentSampling": 100.0,
      "PerformedProcedureStepStartTime": "172850.660000",
      "PhotometricInterpretation": "MONOCHROME2",
      "PixelBandwidth": 2290.0,
      "PixelRepresentation": 0,
      "PixelSpacing": [2.0, 2.0],
      "ProtocolName": "func_task-mario_run-01",
      "RepetitionTime": 1490.0,
      "Rows": 832,
      "SAR": 0.0296775577936,
      "SamplesPerPixel": 1,
      "ScanOptions": "FS",
      "ScanningSequence": "EP",
      "SequenceName": "epfid2d1_104",
      "SequenceVariant": [
        "SK",
        "SS"
],
      "SeriesDescription": "func_task-mario_run-01",
      "SeriesNumber": 10,
      "SeriesTime": "181330.721000",
      "SliceLocation": -31.913621256372,
      "SliceThickness": 2.0,
      "SmallestImagePixelValue": 0,
      "SoftwareVersions": "syngo MR E11",
      "SpacingBetweenSlices": 1.9999999946541,
      "SpecificCharacterSet": "ISO_IR 100",
      "StudyID": "1",
      "StudyTime": "172850.601000",
      "TransmitCoilName": "Body",
      "VariableFlipAngleFlag": "N",
      "WindowCenterWidthExplanation": "Algo1",
      "dBdt": 0.0},
    "slices": {}
  },
  "time": {
    "samples": {
      "AcquisitionNumber": [1, 2, 3, 4, 5, 6, 7, 8, 9, 10, 11, 12, 13, 14, 15, 16, 17, 18, 19, 20, 21, 22, 23, 24, 25, 26, 27, 28, 29, 30, 31, 32, 33, 34, 35, 36, 37, 38, 39, 40, 41, 42, 43, 44, 45, 46, 47, 48, 49, 50, 51, 52, 53, 54, 55, 56, 57, 58, 59, 60, 61, 62, 63, 64, 65, 66, 67, 68, 69, 70, 71, 72, 73, 74, 75, 76, 77, 78, 79, 80, 81, 82, 83, 84, 85, 86, 87, 88, 89, 90, 91, 92, 93, 94, 95, 96, 97, 98, 99, 100, 101, 102, 103, 104, 105, 106, 107, 108, 109, 110, 111, 112, 113, 114, 115, 116, 117, 118, 119, 120, 121, 122, 123, 124, 125, 126, 127, 128, 129, 130, 131, 132, 133, 134, 135, 136, 137, 138, 139, 140, 141, 142, 143, 144, 145, 146, 147, 148, 149, 150, 151, 152, 153, 154, 155, 156, 157, 158, 159, 160, 161, 162, 163, 164, 165, 166, 167, 168, 169, 170, 171, 172, 173, 174, 175, 176, 177, 178, 179, 180, 181, 182, 183, 184, 185, 186, 187, 188, 189, 190, 191, 192, 193, 194, 195, 196, 197, 198, 199, 200, 201, 202, 203, 204, 205, 206, 207, 208, 209, 210, 211, 212, 213, 214, 215, 216, 217, 218, 219, 220, 221, 222, 223, 224, 225, 226, 227, 228, 229, 230, 231, 232, 233, 234, 235, 236, 237, 238, 239, 240, 241, 242, 243, 244, 245, 246, 247, 248, 249, 250, 251, 252, 253, 254, 255, 256, 257, 258, 259, 260, 261, 262, 263, 264, 265, 266, 267, 268, 269, 270, 271, 272, 273, 274, 275, 276, 277, 278, 279, 280, 281, 282, 283, 284, 285, 286, 287, 288, 289, 290, 291, 292, 293, 294, 295, 296, 297, 298, 299, 300, 301, 302, 303, 304, 305, 306, 307, 308, 309, 310, 311, 312, 313, 314, 315, 316, 317, 318, 319, 320, 321, 322, 323, 324, 325, 326, 327, 328, 329, 330, 331, 332, 333, 334, 335, 336, 337, 338, 339, 340, 341, 342, 343, 344, 345, 346, 347, 348, 349, 350, 351, 352, 353, 354, 355, 356, 357, 358, 359, 360, 361, 362, 363, 364, 365, 366, 367, 368, 369, 370, 371, 372, 373, 374, 375, 376, 377, 378, 379, 380, 381, 382, 383, 384, 385, 386, 387, 388, 389, 390, 391, 392, 393, 394, 395, 396, 397, 398, 399, 400, 401, 402, 403, 404, 405, 406, 407, 408, 409, 410, 411, 412, 413, 414, 415, 416, 417, 418, 419, 420, 421, 422, 423, 424, 425, 426, 427, 428, 429, 430, 431, 432, 433, 434, 435, 436, 437, 438, 439, 440, 441, 442, 443, 444, 445, 446, 447, 448, 449, 450, 451, 452, 453, 454, 455, 456, 457, 458, 459, 460, 461, 462, 463, 464, 465, 466, 467, 468, 469, 470, 471, 472, 473, 474, 475, 476, 477, 478, 479, 480, 481, 482, 483, 484, 485, 486, 487, 488, 489, 490, 491, 492, 493, 494, 495, 496, 497, 498, 499, 500, 501, 502],
      "AcquisitionTime": ["181134.880000", "181136.370000", "181137.860000", "181139.350000", "181140.840000", "181142.330000", "181143.820000", "181145.310000", "181146.800000", "181148.290000", "181149.780000", "181151.270000", "181152.760000", "181154.250000", "181155.740000", "181157.230000", "181158.720000", "181200.210000", "181201.700000", "181203.190000", "181204.680000", "181206.170000", "181207.660000", "181209.150000", "181210.640000", "181212.130000", "181213.620000", "181215.110000", "181216.600000", "181218.090000", "181219.580000", "181221.070000", "181222.560000", "181224.050000", "181225.540000", "181227.030000", "181228.520000", "181230.010000", "181231.500000", "181232.990000", "181234.480000", "181235.970000", "181237.460000", "181238.950000", "181240.440000", "181241.930000", "181243.420000", "181244.910000", "181246.400000", "181247.890000", "181249.380000", "181250.870000", "181252.360000", "181253.850000", "181255.340000", "181256.830000", "181258.320000", "181259.810000", "181301.300000", "181302.790000", "181304.280000", "181305.770000", "181307.260000", "181308.750000", "181310.240000", "181311.730000", "181313.220000", "181314.710000", "181316.200000", "181317.690000", "181319.180000", "181320.670000", "181322.160000", "181323.650000", "181325.140000", "181326.630000", "181328.120000", "181329.610000", "181331.100000", "181332.590000", "181334.080000", "181335.570000", "181337.060000", "181338.550000", "181340.040000", "181341.530000", "181343.020000", "181344.510000", "181346.000000", "181347.490000", "181348.980000", "181350.470000", "181351.960000", "181353.450000", "181354.940000", "181356.430000", "181357.920000", "181359.410000", "181400.900000", "181402.390000", "181403.880000", "181405.370000", "181406.860000", "181408.350000", "181409.840000", "181411.330000", "181412.820000", "181414.310000", "181415.800000", "181417.290000", "181418.780000", "181420.270000", "181421.760000", "181423.250000", "181424.740000", "181426.230000", "181427.720000", "181429.210000", "181430.700000", "181432.190000", "181433.680000", "181435.170000", "181436.660000", "181438.150000", "181439.640000", "181441.130000", "181442.620000", "181444.110000", "181445.600000", "181447.090000", "181448.580000", "181450.070000", "181451.560000", "181453.050000", "181454.540000", "181456.030000", "181457.520000", "181459.010000", "181500.500000", "181501.990000", "181503.480000", "181504.970000", "181506.460000", "181507.950000", "181509.440000", "181510.930000", "181512.420000", "181513.910000", "181515.400000", "181516.890000", "181518.380000", "181519.870000", "181521.360000", "181522.850000", "181524.340000", "181525.830000", "181527.320000", "181528.810000", "181530.300000", "181531.790000", "181533.280000", "181534.770000", "181536.260000", "181537.750000", "181539.240000", "181540.730000", "181542.220000", "181543.710000", "181545.200000", "181546.690000", "181548.180000", "181549.670000", "181551.160000", "181552.650000", "181554.140000", "181555.630000", "181557.120000", "181558.610000", "181600.100000", "181601.590000", "181603.080000", "181604.570000", "181606.060000", "181607.550000", "181609.040000", "181610.530000", "181612.020000", "181613.510000", "181615.000000", "181616.490000", "181617.980000", "181619.470000", "181620.960000", "181622.450000", "181623.940000", "181625.430000", "181626.920000", "181628.410000", "181629.900000", "181631.390000", "181632.880000", "181634.370000", "181635.860000", "181637.350000", "181638.840000", "181640.330000", "181641.820000", "181643.310000", "181644.800000", "181646.290000", "181647.780000", "181649.270000", "181650.760000", "181652.250000", "181653.740000", "181655.230000", "181656.720000", "181658.210000", "181659.700000", "181701.190000", "181702.680000", "181704.170000", "181705.660000", "181707.150000", "181708.640000", "181710.130000", "181711.620000", "181713.110000", "181714.600000", "181716.090000", "181717.580000", "181719.070000", "181720.560000", "181722.050000", "181723.540000", "181725.030000", "181726.520000", "181728.010000", "181729.500000", "181730.990000", "181732.480000", "181733.970000", "181735.460000", "181736.950000", "181738.440000", "181739.930000", "181741.420000", "181742.910000", "181744.400000", "181745.890000", "181747.380000", "181748.870000", "181750.360000", "181751.850000", "181753.340000", "181754.830000", "181756.320000", "181757.810000", "181759.300000", "181800.790000", "181802.280000", "181803.770000", "181805.260000", "181806.750000", "181808.240000", "181809.730000", "181811.220000", "181812.710000", "181814.200000", "181815.690000", "181817.180000", "181818.670000", "181820.160000", "181821.650000", "181823.140000", "181824.630000", "181826.120000", "181827.610000", "181829.100000", "181830.590000", "181832.080000", "181833.570000", "181835.060000", "181836.550000", "181838.040000", "181839.530000", "181841.020000", "181842.510000", "181844.000000", "181845.490000", "181846.980000", "181848.470000", "181849.960000", "181851.450000", "181852.940000", "181854.430000", "181855.920000", "181857.410000", "181858.900000", "181900.390000", "181901.880000", "181903.370000", "181904.860000", "181906.350000", "181907.840000", "181909.330000", "181910.820000", "181912.310000", "181913.800000", "181915.290000", "181916.780000", "181918.270000", "181919.760000", "181921.250000", "181922.740000", "181924.230000", "181925.720000", "181927.210000", "181928.700000", "181930.190000", "181931.680000", "181933.170000", "181934.660000", "181936.150000", "181937.640000", "181939.130000", "181940.620000", "181942.110000", "181943.600000", "181945.090000", "181946.580000", "181948.070000", "181949.560000", "181951.050000", "181952.540000", "181954.030000", "181955.520000", "181957.010000", "181958.500000", "181959.990000", "182001.480000", "182002.970000", "182004.460000", "182005.950000", "182007.440000", "182008.930000", "182010.420000", "182011.910000", "182013.400000", "182014.890000", "182016.380000", "182017.870000", "182019.360000", "182020.850000", "182022.340000", "182023.830000", "182025.320000", "182026.810000", "182028.300000", "182029.790000", "182031.280000", "182032.770000", "182034.260000", "182035.750000", "182037.240000", "182038.730000", "182040.220000", "182041.710000", "182043.200000", "182044.690000", "182046.180000", "182047.670000", "182049.160000", "182050.650000", "182052.140000", "182053.630000", "182055.120000", "182056.610000", "182058.100000", "182059.590000", "182101.080000", "182102.570000", "182104.060000", "182105.550000", "182107.040000", "182108.530000", "182110.020000", "182111.510000", "182113.000000", "182114.490000", "182115.980000", "182117.470000", "182118.960000", "182120.450000", "182121.940000", "182123.430000", "182124.920000", "182126.410000", "182127.900000", "182129.390000", "182130.880000", "182132.370000", "182133.860000", "182135.350000", "182136.840000", "182138.330000", "182139.820000", "182141.310000", "182142.800000", "182144.290000", "182145.780000", "182147.270000", "182148.760000", "182150.250000", "182151.740000", "182153.230000", "182154.720000", "182156.210000", "182157.700000", "182159.190000", "182200.680000", "182202.170000", "182203.660000", "182205.150000", "182206.640000", "182208.130000", "182209.620000", "182211.110000", "182212.600000", "182214.090000", "182215.580000", "182217.070000", "182218.560000", "182220.050000", "182221.540000", "182223.030000", "182224.520000", "182226.010000", "182227.500000", "182228.990000", "182230.480000", "182231.970000", "182233.460000", "182234.950000", "182236.440000", "182237.930000", "182239.420000", "182240.910000", "182242.400000", "182243.890000", "182245.380000", "182246.870000", "182248.360000", "182249.850000", "182251.340000", "182252.830000", "182254.320000", "182255.810000", "182257.300000", "182258.790000", "182300.280000", "182301.770000", "182303.260000", "182304.750000", "182306.240000", "182307.730000", "182309.220000", "182310.710000", "182312.200000", "182313.690000", "182315.180000", "182316.670000", "182318.160000", "182319.650000", "182321.140000", "182322.630000", "182324.120000", "182325.610000", "182327.100000", "182328.590000", "182330.080000", "182331.570000", "182333.060000", "182334.550000", "182336.040000", "182337.530000", "182339.020000", "182340.510000", "182342.000000", "182343.490000", "182344.980000", "182346.470000", "182347.960000", "182349.450000", "182350.940000", "182352.430000", "182353.920000", "182355.410000", "182356.900000", "182358.390000", "182359.880000", "182401.370000"],
      "ContentTime": ["181330.724000", "181330.728000", "181330.731000", "181330.735000", "181330.744000", "181330.747000", "181330.751000", "181330.754000", "181330.757000", "181330.761000", "181330.764000", "181330.768000", "181330.771000", "181330.775000", "181330.778000", "181330.781000", "181330.785000", "181330.788000", "181330.791000", "181330.795000", "181330.798000", "181330.802000", "181330.805000", "181330.808000", "181330.812000", "181330.815000", "181330.819000", "181330.822000", "181330.825000", "181330.829000", "181330.832000", "181330.836000", "181330.839000", "181330.843000", "181330.851000", "181330.854000", "181330.865000", "181410.682000", "181410.687000", "181410.690000", "181410.694000", "181410.698000", "181410.702000", "181410.705000", "181410.709000", "181410.712000", "181410.716000", "181410.744000", "181410.747000", "181410.751000", "181410.754000", "181410.757000", "181410.761000", "181410.764000", "181410.768000", "181410.771000", "181410.775000", "181410.778000", "181410.781000", "181410.785000", "181410.788000", "181410.791000", "181410.795000", "181410.807000", "181410.810000", "181410.814000", "181410.817000", "181410.820000", "181410.824000", "181410.827000", "181410.830000", "181410.834000", "181410.837000", "181410.841000", "181410.844000", "181410.854000", "181430.682000", "181430.686000", "181430.689000", "181430.693000", "181430.696000", "181430.700000", "181430.703000", "181430.706000", "181430.710000", "181430.713000", "181430.717000", "181430.720000", "181430.724000", "181430.727000", "181430.730000", "181430.734000", "181430.737000", "181430.741000", "181430.744000", "181430.748000", "181430.751000", "181450.681000", "181450.685000", "181450.688000", "181450.692000", "181450.695000", "181450.699000", "181450.702000", "181450.705000", "181450.709000", "181450.712000", "181450.716000", "181450.727000", "181450.730000", "181450.734000", "181450.737000", "181450.741000", "181450.744000", "181450.748000", "181450.751000", "181450.754000", "181510.681000", "181510.692000", "181510.695000", "181510.699000", "181510.702000", "181510.705000", "181510.709000", "181510.712000", "181510.716000", "181510.719000", "181510.723000", "181510.727000", "181510.742000", "181510.746000", "181510.749000", "181510.752000", "181510.756000", "181510.759000", "181510.763000", "181510.766000", "181530.681000", "181530.685000", "181530.688000", "181530.692000", "181530.695000", "181530.699000", "181530.702000", "181530.705000", "181530.709000", "181530.712000", "181530.716000", "181530.719000", "181530.723000", "181530.726000", "181530.729000", "181530.733000", "181530.736000", "181530.740000", "181530.743000", "181530.746000", "181610.682000", "181610.686000", "181610.690000", "181610.693000", "181610.697000", "181610.700000", "181610.703000", "181610.707000", "181610.710000", "181610.713000", "181610.717000", "181610.720000", "181610.724000", "181610.727000", "181610.730000", "181610.734000", "181610.737000", "181610.741000", "181610.744000", "181610.748000", "181610.751000", "181610.754000", "181610.759000", "181610.763000", "181610.766000", "181610.770000", "181610.773000", "181650.682000", "181650.686000", "181650.690000", "181650.693000", "181650.697000", "181650.700000", "181650.703000", "181650.707000", "181650.710000", "181650.714000", "181650.717000", "181650.720000", "181650.724000", "181650.727000", "181650.730000", "181650.740000", "181650.744000", "181650.747000", "181650.751000", "181650.754000", "181650.758000", "181650.761000", "181650.764000", "181650.768000", "181650.771000", "181650.775000", "181650.778000", "181730.681000", "181730.694000", "181730.698000", "181730.701000", "181730.704000", "181730.708000", "181730.711000", "181730.715000", "181730.718000", "181730.722000", "181730.725000", "181730.729000", "181730.732000", "181730.736000", "181730.739000", "181730.743000", "181730.746000", "181730.750000", "181730.753000", "181730.757000", "181730.760000", "181730.764000", "181730.767000", "181730.770000", "181730.787000", "181730.791000", "181730.794000", "181750.682000", "181750.685000", "181750.689000", "181750.692000", "181750.696000", "181750.699000", "181750.702000", "181750.706000", "181750.710000", "181750.713000", "181750.717000", "181750.720000", "181750.724000", "181830.682000", "181830.686000", "181830.690000", "181830.693000", "181830.697000", "181830.700000", "181830.703000", "181830.707000", "181830.710000", "181830.714000", "181830.717000", "181830.720000", "181830.724000", "181830.727000", "181830.731000", "181830.734000", "181830.738000", "181830.741000", "181830.745000", "181830.748000", "181830.751000", "181830.755000", "181830.758000", "181830.762000", "181830.765000", "181830.768000", "181830.772000", "181910.682000", "181910.686000", "181910.690000", "181910.693000", "181910.696000", "181910.700000", "181910.703000", "181910.707000", "181910.710000", "181910.714000", "181910.717000", "181910.720000", "181910.724000", "181910.727000", "181910.731000", "181910.734000", "181910.738000", "181910.741000", "181910.744000", "181910.748000", "181910.751000", "181910.755000", "181910.758000", "181910.761000", "181910.765000", "181910.768000", "181910.772000", "181950.681000", "181950.685000", "181950.689000", "181950.692000", "181950.695000", "181950.699000", "181950.702000", "181950.706000", "181950.709000", "181950.713000", "181950.716000", "181950.720000", "181950.723000", "181950.726000", "181950.730000", "181950.733000", "181950.737000", "181950.740000", "181950.744000", "181950.747000", "181950.750000", "181950.754000", "181950.757000", "181950.761000", "181950.776000", "181950.780000", "181950.783000", "182030.681000", "182030.685000", "182030.689000", "182030.692000", "182030.695000", "182030.699000", "182030.702000", "182030.706000", "182030.709000", "182030.713000", "182030.716000", "182030.720000", "182030.723000", "182030.726000", "182030.730000", "182030.739000", "182030.742000", "182030.746000", "182030.749000", "182030.752000", "182030.756000", "182030.759000", "182030.763000", "182030.766000", "182030.770000", "182030.773000", "182030.777000", "182110.682000", "182110.686000", "182110.690000", "182110.693000", "182110.696000", "182110.700000", "182110.703000", "182110.707000", "182110.710000", "182110.714000", "182110.717000", "182110.720000", "182110.724000", "182110.727000", "182110.731000", "182110.734000", "182110.738000", "182110.749000", "182110.753000", "182110.756000", "182110.759000", "182110.763000", "182110.766000", "182110.770000", "182110.773000", "182110.776000", "182110.780000", "182150.681000", "182150.685000", "182150.689000", "182150.692000", "182150.695000", "182150.699000", "182150.702000", "182150.706000", "182150.709000", "182150.712000", "182150.716000", "182150.724000", "182150.728000", "182150.731000", "182150.735000", "182150.738000", "182150.742000", "182150.745000", "182150.749000", "182150.752000", "182150.755000", "182150.759000", "182150.762000", "182150.766000", "182150.769000", "182150.772000", "182150.776000", "182230.682000", "182230.685000", "182230.689000", "182230.692000", "182230.696000", "182230.700000", "182230.704000", "182230.722000", "182230.726000", "182230.729000", "182230.733000", "182230.736000", "182230.739000", "182230.743000", "182230.746000", "182230.750000", "182230.753000", "182230.757000", "182230.760000", "182230.764000", "182230.767000", "182230.770000", "182230.774000", "182230.777000", "182230.781000", "182230.784000", "182310.683000", "182310.686000", "182310.690000", "182310.693000", "182310.697000", "182310.700000", "182310.704000", "182310.707000", "182310.710000", "182310.714000", "182310.717000", "182310.721000", "182310.724000", "182310.727000", "182310.731000", "182310.734000", "182310.738000", "182310.741000", "182310.744000", "182310.748000", "182310.751000", "182310.755000", "182310.758000", "182310.762000", "182310.765000", "182310.768000", "182310.772000", "182350.682000", "182350.686000", "182350.689000", "182350.693000", "182350.696000", "182350.700000", "182350.703000", "182350.707000", "182350.710000", "182350.714000", "182350.717000", "182350.720000", "182350.725000", "182350.728000", "182350.731000", "182350.735000", "182350.738000", "182350.742000", "182350.745000", "182350.749000", "182350.752000", "182350.755000", "182350.759000", "182350.762000", "182350.766000", "182350.769000", "182350.773000", "182403.345000", "182403.350000", "182403.357000", "182403.362000", "182403.366000", "182403.370000", "182403.373000", "182403.377000", "182403.380000"],
