{
  "AcquisitionMatrixPE": 104,
  "AcquisitionNumber": 1,
  "AcquisitionTime": "18:25:13.420000",
  "BandwidthPerPixelPhaseEncode": 17.17,
  "BaseResolution": 104,
  "BodyPartExamined": "BRAIN",
  "CoilCombinationMethod": "Sum of Squares",
  "ConsistencyInfo": "N4_VE11C_LATEST_20160120",
  "ConversionSoftware": "dcm2niix",
  "ConversionSoftwareVersion": "v1.0.20211006",
  "DerivedVendorReportedEchoSpacing": 0.000560011,
  "DeviceSerialNumber": "167006",
  "DwellTime": 2.1e-06,
  "EchoTime": 0.037,
  "EchoTime1": 0.037,
  "EchoTime2": 0.001,
  "EchoTrainLength": 104,
  "EffectiveEchoSpacing": 0.000560011,
  "FlipAngle": 52,
  "HeudiconvVersion": "0.5.3.post569+g418601f",
  "ImageComments": "Unaliased MB4/PE3/LB",
  "ImageOrientationPatientDICOM": [0.99974, 0.0150932, 0.017099, -0.0109931, 0.975762, -0.218556],
  "ImageOrientationText": "Tra>Cor(-12.6)>Sag(1.1)",
  "ImageType": [
    "ORIGINAL",
    "PRIMARY",
    "P",
    "MB",
    "ND",
    "MOSAIC",
    "PHASE"
],
  "ImagingFrequency": 123.259,
  "InPlanePhaseEncodingDirectionDICOM": "COL",
  "InstitutionAddress": "Chemin Queen-Mary 4565,Montreal,District,CA,H3W 1W5",
  "InstitutionName": "IUGM",
  "InstitutionalDepartmentName": "Department",
  "MRAcquisitionType": "2D",
  "MagneticFieldStrength": 3,
  "Manufacturer": "Siemens",
  "ManufacturersModelName": "Prisma_fit",
  "MatrixCoilMode": "SENSE",
  "Modality": "MR",
  "MultibandAccelerationFactor": 4,
  "PartialFourier": 1,
  "PatientPosition": "HFS",
  "PercentPhaseFOV": 100,
  "PercentSampling": 100,
  "PhaseEncodingDirection": "j",
  "PhaseEncodingSteps": 104,
  "PhaseResolution": 1,
  "PixelBandwidth": 2290,
  "ProcedureStepDescription": "games^mario",
  "ProtocolName": "func_task-mario_run-02",
  "PulseSequenceDetails": "%CustomerSeq%\\cmrr_mbep2d_bold",
  "ReceiveCoilActiveElements": "HC1-7;NC1,2",
  "ReceiveCoilName": "HeadNeck_64",
  "ReconMatrixPE": 104,
  "RepetitionTime": 1.49,
  "SAR": 0.0296776,
  "ScanOptions": "FS",
  "ScanningSequence": "EP",
  "SequenceName": "epfid2d1_104",
  "SequenceVariant": "SK\\SS",
  "SeriesDescription": "func_task-mario_run-02",
  "SeriesNumber": 14,
  "ShimSetting": [631, -7249, -8769, 727, 25, -127, 149, 13],
  "SliceThickness": 2,
  "SliceTiming": [0, 0.7825, 0.0975, 0.8825, 0.195, 0.98, 0.2925, 1.0775, 0.3925, 1.175, 0.49, 1.2725, 0.5875, 1.3725, 0.685, 0, 0.7825, 0.0975, 0.8825, 0.195, 0.98, 0.2925, 1.0775, 0.3925, 1.175, 0.49, 1.2725, 0.5875, 1.3725, 0.685, 0, 0.7825, 0.0975, 0.8825, 0.195, 0.98, 0.2925, 1.0775, 0.3925, 1.175, 0.49, 1.2725, 0.5875, 1.3725, 0.685, 0, 0.7825, 0.0975, 0.8825, 0.195, 0.98, 0.2925, 1.0775, 0.3925, 1.175, 0.49, 1.2725, 0.5875, 1.3725, 0.685],
  "SoftwareVersions": "syngo MR E11",
  "SpacingBetweenSlices": 2,
  "StationName": "MRC35049",
  "TaskName": "mario",
  "TotalReadoutTime": 0.0576811,
  "TxRefAmp": 207.13,
  "WipMemBlock": "7fa99bb7-4b50-4859-a9f1-51920d30bc66||Sequence: R016 ve11c/master r/e634e98; Dec 19 2017 11:00:25 by eja",
  "dcmmeta_affine": [
    [-1.9994797706604004, -0.02198629267513752, 0.03996662795543671, 109.00312805175781],
    [-0.030186427757143974, 1.9515247344970703, -0.4366232454776764, -74.8436279296875],
    [0.03419806808233261, 0.4371128976345062, 1.9513490200042725, -51.688446044921875],
    [0.0, 0.0, 0.0, 1.0]
],
  "dcmmeta_reorient_transform": [
    [0.0, -1.0, 0.0, 103.0],
    [1.0, 0.0, 0.0, 0.0],
    [0.0, 0.0, 1.0, 0.0],
    [0.0, 0.0, 0.0, 1.0]
],
  "dcmmeta_shape": [104, 104, 60, 437],
  "dcmmeta_slice_dim": 2,
  "dcmmeta_version": 0.6,
  "global": {
    "const": {
      "AcquisitionMatrix": [104, 0, 0, 104],
      "AngioFlag": "N",
      "BitsAllocated": 16,
      "BitsStored": 16,
      "BodyPartExamined": "BRAIN",
      "Columns": 832,
      "EchoNumbers": 1,
      "EchoTime": 37.0,
      "EchoTrainLength": 104,
      "FlipAngle": 52.0,
      "HighBit": 15,
      "ImageOrientationPatient": [0.99973987511852, 0.0150932141592, 0.01709903460276, -0.0109931459327, 0.97576238366048, -0.2185564489456],
      "ImagePositionPatient": [-826.5461579627, -847.50629830394, 139.99517905431],
      "ImageType": [
        "ORIGINAL",
        "PRIMARY",
        "P",
        "MB",
        "ND",
        "MOSAIC"
],
      "ImagedNucleus": "1H",
      "ImagingFrequency": 123.258841,
      "InPlanePhaseEncodingDirection": "COL",
      "LargestImagePixelValue": 4095,
      "MRAcquisitionType": "2D",
      "MagneticFieldStrength": 3.0,
      "Manufacturer": "SIEMENS",
      "ManufacturerModelName": "Prisma_fit",
      "Modality": "MR",
      "NumberOfAverages": 1.0,
      "NumberOfPhaseEncodingSteps": 104,
      "PercentPhaseFieldOfView": 100.0,
      "PercentSampling": 100.0,
      "PerformedProcedureStepStartTime": "172850.660000",
      "PhotometricInterpretation": "MONOCHROME2",
      "PixelBandwidth": 2290.0,
      "PixelRepresentation": 0,
      "PixelSpacing": [2.0, 2.0],
      "ProtocolName": "func_task-mario_run-02",
      "RepetitionTime": 1490.0,
      "RescaleIntercept": -4096.0,
      "RescaleSlope": 2.0,
      "RescaleType": "US",
      "Rows": 832,
      "SAR": 0.0296775577936,
      "SamplesPerPixel": 1,
      "ScanOptions": "FS",
      "ScanningSequence": "EP",
      "SequenceName": "epfid2d1_104",
      "SequenceVariant": [
        "SK",
        "SS"
],
      "SeriesDescription": "func_task-mario_run-02",
      "SeriesNumber": 14,
      "SeriesTime": "182630.229000",
      "SliceLocation": -31.913621256372,
      "SliceThickness": 2.0,
      "SmallestImagePixelValue": 0,
      "SoftwareVersions": "syngo MR E11",
      "SpacingBetweenSlices": 1.9999999946541,
      "SpecificCharacterSet": "ISO_IR 100",
      "StudyID": "1",
      "StudyTime": "172850.601000",
      "TransmitCoilName": "Body",
      "VariableFlipAngleFlag": "N",
      "WindowCenterWidthExplanation": "Algo1",
      "dBdt": 0.0},
    "slices": {}
  },
  "time": {
    "samples": {
      "AcquisitionNumber": [1, 2, 3, 4, 5, 6, 7, 8, 9, 10, 11, 12, 13, 14, 15, 16, 17, 18, 19, 20, 21, 22, 23, 24, 25, 26, 27, 28, 29, 30, 31, 32, 33, 34, 35, 36, 37, 38, 39, 40, 41, 42, 43, 44, 45, 46, 47, 48, 49, 50, 51, 52, 53, 54, 55, 56, 57, 58, 59, 60, 61, 62, 63, 64, 65, 66, 67, 68, 69, 70, 71, 72, 73, 74, 75, 76, 77, 78, 79, 80, 81, 82, 83, 84, 85, 86, 87, 88, 89, 90, 91, 92, 93, 94, 95, 96, 97, 98, 99, 100, 101, 102, 103, 104, 105, 106, 107, 108, 109, 110, 111, 112, 113, 114, 115, 116, 117, 118, 119, 120, 121, 122, 123, 124, 125, 126, 127, 128, 129, 130, 131, 132, 133, 134, 135, 136, 137, 138, 139, 140, 141, 142, 143, 144, 145, 146, 147, 148, 149, 150, 151, 152, 153, 154, 155, 156, 157, 158, 159, 160, 161, 162, 163, 164, 165, 166, 167, 168, 169, 170, 171, 172, 173, 174, 175, 176, 177, 178, 179, 180, 181, 182, 183, 184, 185, 186, 187, 188, 189, 190, 191, 192, 193, 194, 195, 196, 197, 198, 199, 200, 201, 202, 203, 204, 205, 206, 207, 208, 209, 210, 211, 212, 213, 214, 215, 216, 217, 218, 219, 220, 221, 222, 223, 224, 225, 226, 227, 228, 229, 230, 231, 232, 233, 234, 235, 236, 237, 238, 239, 240, 241, 242, 243, 244, 245, 246, 247, 248, 249, 250, 251, 252, 253, 254, 255, 256, 257, 258, 259, 260, 261, 262, 263, 264, 265, 266, 267, 268, 269, 270, 271, 272, 273, 274, 275, 276, 277, 278, 279, 280, 281, 282, 283, 284, 285, 286, 287, 288, 289, 290, 291, 292, 293, 294, 295, 296, 297, 298, 299, 300, 301, 302, 303, 304, 305, 306, 307, 308, 309, 310, 311, 312, 313, 314, 315, 316, 317, 318, 319, 320, 321, 322, 323, 324, 325, 326, 327, 328, 329, 330, 331, 332, 333, 334, 335, 336, 337, 338, 339, 340, 341, 342, 343, 344, 345, 346, 347, 348, 349, 350, 351, 352, 353, 354, 355, 356, 357, 358, 359, 360, 361, 362, 363, 364, 365, 366, 367, 368, 369, 370, 371, 372, 373, 374, 375, 376, 377, 378, 379, 380, 381, 382, 383, 384, 385, 386, 387, 388, 389, 390, 391, 392, 393, 394, 395, 396, 397, 398, 399, 400, 401, 402, 403, 404, 405, 406, 407, 408, 409, 410, 411, 412, 413, 414, 415, 416, 417, 418, 419, 420, 421, 422, 423, 424, 425, 426, 427, 428, 429, 430, 431, 432, 433, 434, 435, 436, 437],
      "AcquisitionTime": ["182513.420000", "182514.910000", "182516.400000", "182517.890000", "182519.380000", "182520.870000", "182522.360000", "182523.850000", "182525.340000", "182526.830000", "182528.320000", "182529.810000", "182531.300000", "182532.790000", "182534.280000", "182535.770000", "182537.260000", "182538.750000", "182540.240000", "182541.730000", "182543.220000", "182544.710000", "182546.200000", "182547.690000", "182549.180000", "182550.670000", "182552.160000", "182553.650000", "182555.140000", "182556.630000", "182558.120000", "182559.610000", "182601.100000", "182602.590000", "182604.080000", "182605.570000", "182607.060000", "182608.550000", "182610.040000", "182611.530000", "182613.020000", "182614.510000", "182616.000000", "182617.490000", "182618.980000", "182620.470000", "182621.960000", "182623.450000", "182624.940000", "182626.430000", "182627.920000", "182629.410000", "182630.900000", "182632.390000", "182633.880000", "182635.370000", "182636.860000", "182638.350000", "182639.840000", "182641.330000", "182642.820000", "182644.310000", "182645.800000", "182647.290000", "182648.780000", "182650.270000", "182651.760000", "182653.250000", "182654.740000", "182656.230000", "182657.720000", "182659.210000", "182700.700000", "182702.190000", "182703.680000", "182705.170000", "182706.660000", "182708.150000", "182709.640000", "182711.130000", "182712.620000", "182714.110000", "182715.600000", "182717.090000", "182718.580000", "182720.070000", "182721.560000", "182723.050000", "182724.540000", "182726.030000", "182727.520000", "182729.010000", "182730.500000", "182731.990000", "182733.480000", "182734.970000", "182736.460000", "182737.950000", "182739.440000", "182740.930000", "182742.420000", "182743.910000", "182745.400000", "182746.890000", "182748.380000", "182749.870000", "182751.360000", "182752.850000", "182754.340000", "182755.830000", "182757.320000", "182758.810000", "182800.300000", "182801.790000", "182803.280000", "182804.770000", "182806.260000", "182807.750000", "182809.240000", "182810.730000", "182812.220000", "182813.710000", "182815.200000", "182816.690000", "182818.180000", "182819.670000", "182821.160000", "182822.650000", "182824.140000", "182825.630000", "182827.120000", "182828.610000", "182830.100000", "182831.590000", "182833.080000", "182834.570000", "182836.060000", "182837.550000", "182839.040000", "182840.530000", "182842.020000", "182843.510000", "182845.000000", "182846.490000", "182847.980000", "182849.470000", "182850.960000", "182852.450000", "182853.940000", "182855.430000", "182856.920000", "182858.410000", "182859.900000", "182901.390000", "182902.880000", "182904.370000", "182905.860000", "182907.350000", "182908.840000", "182910.330000", "182911.820000", "182913.310000", "182914.800000", "182916.290000", "182917.780000", "182919.270000", "182920.760000", "182922.250000", "182923.740000", "182925.230000", "182926.720000", "182928.210000", "182929.700000", "182931.190000", "182932.680000", "182934.170000", "182935.660000", "182937.150000", "182938.640000", "182940.130000", "182941.620000", "182943.110000", "182944.600000", "182946.090000", "182947.580000", "182949.070000", "182950.560000", "182952.050000", "182953.540000", "182955.030000", "182956.520000", "182958.010000", "182959.500000", "183000.990000", "183002.480000", "183003.970000", "183005.460000", "183006.950000", "183008.440000", "183009.930000", "183011.420000", "183012.910000", "183014.400000", "183015.890000", "183017.380000", "183018.870000", "183020.360000", "183021.850000", "183023.340000", "183024.830000", "183026.320000", "183027.810000", "183029.300000", "183030.790000", "183032.280000", "183033.770000", "183035.260000", "183036.750000", "183038.240000", "183039.730000", "183041.220000", "183042.710000", "183044.200000", "183045.690000", "183047.180000", "183048.670000", "183050.160000", "183051.650000", "183053.140000", "183054.630000", "183056.120000", "183057.610000", "183059.100000", "183100.590000", "183102.080000", "183103.570000", "183105.060000", "183106.550000", "183108.040000", "183109.530000", "183111.020000", "183112.510000", "183114.000000", "183115.490000", "183116.980000", "183118.470000", "183119.960000", "183121.450000", "183122.940000", "183124.430000", "183125.920000", "183127.410000", "183128.900000", "183130.390000", "183131.880000", "183133.370000", "183134.860000", "183136.350000", "183137.840000", "183139.330000", "183140.820000", "183142.310000", "183143.800000", "183145.290000", "183146.780000", "183148.270000", "183149.760000", "183151.250000", "183152.740000", "183154.230000", "183155.720000", "183157.210000", "183158.700000", "183200.190000", "183201.680000", "183203.170000", "183204.660000", "183206.150000", "183207.640000", "183209.130000", "183210.620000", "183212.110000", "183213.600000", "183215.090000", "183216.580000", "183218.070000", "183219.560000", "183221.050000", "183222.540000", "183224.030000", "183225.520000", "183227.010000", "183228.500000", "183229.990000", "183231.480000", "183232.970000", "183234.460000", "183235.950000", "183237.440000", "183238.930000", "183240.420000", "183241.910000", "183243.400000", "183244.890000", "183246.380000", "183247.870000", "183249.360000", "183250.850000", "183252.340000", "183253.830000", "183255.320000", "183256.810000", "183258.300000", "183259.790000", "183301.280000", "183302.770000", "183304.260000", "183305.750000", "183307.240000", "183308.730000", "183310.220000", "183311.710000", "183313.200000", "183314.690000", "183316.180000", "183317.670000", "183319.160000", "183320.650000", "183322.140000", "183323.630000", "183325.120000", "183326.610000", "183328.100000", "183329.590000", "183331.080000", "183332.570000", "183334.060000", "183335.550000", "183337.040000", "183338.530000", "183340.020000", "183341.510000", "183343.000000", "183344.490000", "183345.980000", "183347.470000", "183348.960000", "183350.450000", "183351.940000", "183353.430000", "183354.920000", "183356.410000", "183357.900000", "183359.390000", "183400.880000", "183402.370000", "183403.860000", "183405.350000", "183406.840000", "183408.330000", "183409.820000", "183411.310000", "183412.800000", "183414.290000", "183415.780000", "183417.270000", "183418.760000", "183420.250000", "183421.740000", "183423.230000", "183424.720000", "183426.210000", "183427.700000", "183429.190000", "183430.680000", "183432.170000", "183433.660000", "183435.150000", "183436.640000", "183438.130000", "183439.620000", "183441.110000", "183442.600000", "183444.090000", "183445.580000", "183447.070000", "183448.560000", "183450.050000", "183451.540000", "183453.030000", "183454.520000", "183456.010000", "183457.500000", "183458.990000", "183500.480000", "183501.970000", "183503.460000", "183504.950000", "183506.440000", "183507.930000", "183509.420000", "183510.910000", "183512.400000", "183513.890000", "183515.380000", "183516.870000", "183518.360000", "183519.850000", "183521.340000", "183522.830000", "183524.320000", "183525.810000", "183527.300000", "183528.790000", "183530.280000", "183531.770000", "183533.260000", "183534.750000", "183536.240000", "183537.730000", "183539.220000", "183540.710000", "183542.200000", "183543.690000", "183545.180000", "183546.670000", "183548.160000", "183549.650000", "183551.140000", "183552.630000", "183554.120000", "183555.610000", "183557.100000", "183558.590000", "183600.080000", "183601.570000", "183603.060000"],
      "ContentTime": ["182630.231000", "182630.234000", "182630.236000", "182630.239000", "182630.241000", "182630.244000", "182630.247000", "182630.249000", "182630.252000", "182630.254000", "182630.257000", "182630.259000", "182630.262000", "182630.264000", "182630.267000", "182630.269000", "182630.272000", "182630.274000", "182630.277000", "182630.284000", "182630.286000", "182630.289000", "182630.291000", "182650.160000", "182650.163000", "182650.165000", "182650.168000", "182650.170000", "182650.173000", "182650.175000", "182650.178000", "182650.204000", "182650.207000", "182650.209000", "182650.212000", "182650.214000", "182650.217000", "182650.219000", "182650.222000", "182650.224000", "182650.227000", "182650.229000", "182650.232000", "182710.165000", "182710.168000", "182710.171000", "182710.174000", "182710.176000", "182710.179000", "182710.182000", "182710.184000", "182710.187000", "182710.189000", "182710.192000", "182710.194000", "182710.197000", "182710.199000", "182710.202000", "182710.204000", "182710.207000", "182710.209000", "182710.212000", "182710.219000", "182730.213000", "182730.215000", "182730.218000", "182730.221000", "182730.223000", "182730.226000", "182730.228000", "182730.231000", "182730.233000", "182730.236000", "182730.238000", "182730.241000", "182730.243000", "182730.246000", "182730.248000", "182730.251000", "182730.253000", "182730.256000", "182730.258000", "182730.261000", "182730.263000", "182750.231000", "182750.234000", "182750.236000", "182750.239000", "182750.241000", "182750.244000", "182750.246000", "182750.249000", "182750.251000", "182750.254000", "182750.256000", "182750.259000", "182750.262000", "182750.264000", "182750.267000", "182750.269000", "182750.272000", "182750.274000", "182750.277000", "182750.279000", "182830.194000", "182830.197000", "182830.199000", "182830.202000", "182830.204000", "182830.207000", "182830.210000", "182830.212000", "182830.215000", "182830.217000", "182830.220000", "182830.222000", "182830.226000", "182830.229000", "182830.231000", "182830.234000", "182830.237000", "182830.239000", "182830.242000", "182830.244000", "182830.247000", "182830.249000", "182830.252000", "182830.254000", "182830.257000", "182830.259000", "182830.262000", "182910.241000", "182910.244000", "182910.246000", "182910.249000", "182910.251000", "182910.254000", "182910.256000", "182910.259000", "182910.261000", "182910.264000", "182910.266000", "182910.269000", "182910.271000", "182910.274000", "182910.276000", "182910.279000", "182910.282000", "182910.284000", "182910.287000", "182910.289000", "182910.292000", "182910.294000", "182910.297000", "182910.299000", "182910.302000", "182910.304000", "182910.307000", "182950.254000", "182950.257000", "182950.259000", "182950.262000", "182950.264000", "182950.267000", "182950.269000", "182950.272000", "182950.274000", "182950.277000", "182950.280000", "182950.282000", "182950.285000", "182950.287000", "182950.290000", "182950.292000", "182950.295000", "182950.297000", "182950.300000", "182950.302000", "182950.305000", "182950.307000", "182950.310000", "182950.312000", "182950.315000", "182950.317000", "182950.320000", "183030.268000", "183030.271000", "183030.274000", "183030.276000", "183030.279000", "183030.281000", "183030.284000", "183030.286000", "183030.289000", "183030.291000", "183030.294000", "183030.296000", "183030.299000", "183030.301000", "183030.304000", "183030.307000", "183030.309000", "183030.312000", "183030.314000", "183030.317000", "183030.319000", "183030.322000", "183030.324000", "183030.327000", "183030.330000", "183030.332000", "183030.335000", "183110.202000", "183110.204000", "183110.207000", "183110.210000", "183110.212000", "183110.215000", "183110.217000", "183110.220000", "183110.222000", "183110.225000", "183110.228000", "183110.230000", "183110.233000", "183110.235000", "183110.238000", "183110.240000", "183110.243000", "183110.245000", "183110.248000", "183110.250000", "183110.253000", "183110.255000", "183110.258000", "183110.260000", "183110.263000", "183110.265000", "183110.268000", "183150.198000", "183150.201000", "183150.203000", "183150.206000", "183150.208000", "183150.211000", "183150.213000", "183150.216000", "183150.218000", "183150.221000", "183150.224000", "183150.226000", "183150.229000", "183150.231000", "183150.234000", "183150.236000", "183150.239000", "183150.241000", "183150.244000", "183150.246000", "183150.249000", "183150.251000", "183150.254000", "183150.257000", "183150.259000", "183150.262000", "183150.264000", "183230.210000", "183230.214000", "183230.217000", "183230.219000", "183230.222000", "183230.224000", "183230.227000", "183230.230000", "183230.232000", "183230.235000", "183230.237000", "183230.240000", "183230.242000", "183230.245000", "183230.247000", "183230.250000", "183230.252000", "183230.255000", "183230.257000", "183230.260000", "183230.262000", "183230.265000", "183230.267000", "183230.270000", "183230.273000", "183230.275000", "183310.226000", "183310.228000", "183310.231000", "183310.233000", "183310.236000", "183310.238000", "183310.241000", "183310.243000", "183310.246000", "183310.248000", "183310.251000", "183310.253000", "183310.256000", "183310.259000", "183310.261000", "183310.264000", "183310.266000", "183310.269000", "183310.271000", "183310.274000", "183310.276000", "183310.279000", "183310.281000", "183310.284000", "183310.286000", "183310.289000", "183310.291000", "183350.205000", "183350.208000", "183350.210000", "183350.213000", "183350.215000", "183350.218000", "183350.220000", "183350.223000", "183350.225000", "183350.228000", "183350.231000", "183350.233000", "183350.236000", "183350.238000", "183350.241000", "183350.252000", "183350.255000", "183350.257000", "183350.260000", "183350.262000", "183350.265000", "183350.267000", "183350.270000", "183350.272000", "183350.275000", "183350.277000", "183350.280000", "183430.323000", "183430.326000", "183430.328000", "183430.331000", "183430.333000", "183430.336000", "183430.338000", "183430.341000", "183430.343000", "183430.346000", "183430.348000", "183430.351000", "183430.354000", "183430.356000", "183430.359000", "183430.361000", "183430.364000", "183430.366000", "183430.369000", "183430.371000", "183430.374000", "183430.377000", "183430.379000", "183430.382000", "183430.384000", "183430.387000", "183430.389000", "183510.216000", "183510.219000", "183510.222000", "183510.224000", "183510.227000", "183510.229000", "183510.232000", "183510.234000", "183510.237000", "183510.239000", "183510.242000", "183510.244000", "183510.247000", "183510.249000", "183510.252000", "183510.254000", "183510.257000", "183510.260000", "183510.262000", "183510.265000", "183510.267000", "183510.270000", "183510.273000", "183510.275000", "183510.278000", "183510.280000", "183510.283000", "183550.550000", "183550.552000", "183550.555000", "183550.558000", "183550.560000", "183550.563000", "183550.565000", "183550.568000", "183550.570000", "183550.573000", "183550.575000", "183550.578000", "183550.580000", "183550.583000", "183550.585000", "183550.588000", "183550.590000", "183550.593000", "183550.596000", "183550.598000", "183550.601000", "183550.603000", "183550.606000", "183550.608000", "183550.611000", "183550.614000", "183550.616000", "183605.048000", "183605.050000", "183605.053000", "183605.055000", "183605.058000", "183605.061000", "183605.063000", "183605.069000", "183605.071000", "183605.074000"],
