{
  "AcquisitionMatrixPE": 104,
  "AcquisitionNumber": 1,
  "AcquisitionTime": "13:18:11.652500",
  "BandwidthPerPixelPhaseEncode": 17.17,
  "BaseResolution": 104,
  "BodyPartExamined": "BRAIN",
  "CoilCombinationMethod": "Sum of Squares",
  "ConsistencyInfo": "N4_VE11C_LATEST_20160120",
  "ConversionSoftware": "dcm2niix",
  "ConversionSoftwareVersion": "v1.0.20211006",
  "DerivedVendorReportedEchoSpacing": 0.000560011,
  "DeviceSerialNumber": "167006",
  "DwellTime": 2.1e-06,
  "EchoTime": 0.037,
  "EchoTrainLength": 104,
  "EffectiveEchoSpacing": 0.000560011,
  "FlipAngle": 52,
  "HeudiconvVersion": "0.10.0",
  "ImageComments": "Unaliased MB4/PE3/LB",
  "ImageOrientationPatientDICOM": [0.999132, 0.00778281, 0.0409246, 0.014649, 0.854009, -0.520052],
  "ImageOrientationText": "Tra>Cor(-31.4)>Sag(2.2)",
  "ImageType": [
    "ORIGINAL",
    "PRIMARY",
    "M",
    "MB",
    "ND",
    "MOSAIC"
],
  "ImagingFrequency": 123.259,
  "InPlanePhaseEncodingDirectionDICOM": "COL",
  "InstitutionAddress": "Chemin Queen-Mary 4565,Montreal,District,CA,H3W 1W5",
  "InstitutionName": "IUGM",
  "InstitutionalDepartmentName": "Department",
  "MRAcquisitionType": "2D",
  "MagneticFieldStrength": 3,
  "Manufacturer": "Siemens",
  "ManufacturersModelName": "Prisma_fit",
  "MatrixCoilMode": "SENSE",
  "Modality": "MR",
  "MultibandAccelerationFactor": 4,
  "PartialFourier": 1,
  "PatientPosition": "HFS",
  "PercentPhaseFOV": 100,
  "PercentSampling": 100,
  "PhaseEncodingDirection": "j",
  "PhaseEncodingSteps": 104,
  "PhaseResolution": 1,
  "PixelBandwidth": 2290,
  "ProcedureStepDescription": "games^mario",
  "ProtocolName": "func_task-mario_run-01",
  "PulseSequenceDetails": "%CustomerSeq%\\cmrr_mbep2d_bold",
  "ReceiveCoilActiveElements": "HC1-7;NC1,2",
  "ReceiveCoilName": "HeadNeck_64",
  "ReconMatrixPE": 104,
  "RepetitionTime": 1.49,
  "SAR": 0.0637704,
  "ScanOptions": "FS",
  "ScanningSequence": "EP",
  "SequenceName": "epfid2d1_104",
  "SequenceVariant": "SK\\SS",
  "SeriesDescription": "func_task-mario_run-01",
  "SeriesNumber": 10,
  "ShimSetting": [622, -7183, -8850, 257, 2, -174, -40, 14],
  "SliceThickness": 2,
  "SliceTiming": [0, 0.7825, 0.0975, 0.88, 0.195, 0.9775, 0.2925, 1.0775, 0.39, 1.175, 0.4875, 1.2725, 0.5875, 1.37, 0.685, 0, 0.7825, 0.0975, 0.88, 0.195, 0.9775, 0.2925, 1.0775, 0.39, 1.175, 0.4875, 1.2725, 0.5875, 1.37, 0.685, 0, 0.7825, 0.0975, 0.88, 0.195, 0.9775, 0.2925, 1.0775, 0.39, 1.175, 0.4875, 1.2725, 0.5875, 1.37, 0.685, 0, 0.7825, 0.0975, 0.88, 0.195, 0.9775, 0.2925, 1.0775, 0.39, 1.175, 0.4875, 1.2725, 0.5875, 1.37, 0.685],
  "SoftwareVersions": "syngo MR E11",
  "SpacingBetweenSlices": 2,
  "StationName": "MRC35049",
  "TaskName": "mario",
  "TotalReadoutTime": 0.0576811,
  "TxRefAmp": 299.82,
  "WipMemBlock": "19ec9a12-afc6-4403-a20f-77392c0bab6a||Sequence: R016 ve11c/master r/e634e98; Dec 19 2017 11:00:25 by eja",
  "dcmmeta_affine": [
    [-1.9982638359069824, 0.0292980819940567, 0.0779949501156807, 103.65921020507812],
    [-0.015565621666610241, 1.7080185413360596, -1.040399193763733, -48.55835723876953],
    [0.08184926211833954, 1.0401030778884888, 1.7063077688217163, -93.78890228271484],
    [0.0, 0.0, 0.0, 1.0]
],
  "dcmmeta_reorient_transform": [
    [0.0, -1.0, 0.0, 103.0],
    [1.0, 0.0, 0.0, 0.0],
    [0.0, 0.0, 1.0, 0.0],
    [0.0, 0.0, 0.0, 1.0]
],
  "dcmmeta_shape": [104, 104, 60, 469],
  "dcmmeta_slice_dim": 2,
  "dcmmeta_version": 0.6,
  "global": {
    "const": {
      "AcquisitionMatrix": [104, 0, 0, 104],
      "AngioFlag": "N",
      "BitsAllocated": 16,
      "BitsStored": 16,
      "BodyPartExamined": "BRAIN",
      "Columns": 832,
      "EchoNumbers": 1,
      "EchoTime": 37.0,
      "EchoTrainLength": 104,
      "FlipAngle": 52.0,
      "HighBit": 15,
      "ImageOrientationPatient": [0.99913192446149, 0.00778281060283, 0.04092463049305, 0.01464904119746, 0.85400925308609, -0.5200515370955],
      "ImagePositionPatient": [-844.70945928339, -754.75216977971, 362.14610612963],
      "ImageType": [
        "ORIGINAL",
        "PRIMARY",
        "M",
        "MB",
        "ND",
        "MOSAIC"
],
      "ImagedNucleus": "1H",
      "ImagingFrequency": 123.25886,
      "InPlanePhaseEncodingDirection": "COL",
      "MRAcquisitionType": "2D",
      "MagneticFieldStrength": 3.0,
      "Manufacturer": "SIEMENS",
      "ManufacturerModelName": "Prisma_fit",
      "Modality": "MR",
      "NumberOfAverages": 1.0,
      "NumberOfPhaseEncodingSteps": 104,
      "PercentPhaseFieldOfView": 100.0,
      "PercentSampling": 100.0,
      "PerformedProcedureStepStartTime": "120419.839000",
      "PhotometricInterpretation": "MONOCHROME2",
      "PixelBandwidth": 2290.0,
      "PixelRepresentation": 0,
      "PixelSpacing": [2.0, 2.0],
      "ProtocolName": "func_task-mario_run-01",
      "RepetitionTime": 1490.0,
      "Rows": 832,
      "SAR": 0.0637703584401,
      "SamplesPerPixel": 1,
      "ScanOptions": "FS",
      "ScanningSequence": "EP",
      "SequenceName": "epfid2d1_104",
      "SequenceVariant": [
        "SK",
        "SS"
],
      "SeriesDescription": "func_task-mario_run-01",
      "SeriesNumber": 10,
      "SeriesTime": "131918.823000",
      "SliceLocation": -50.71387790155,
      "SliceThickness": 2.0,
      "SmallestImagePixelValue": 0,
      "SoftwareVersions": "syngo MR E11",
      "SpacingBetweenSlices": 1.9999999749449,
      "SpecificCharacterSet": "ISO_IR 100",
      "StudyID": "1",
      "StudyTime": "120419.752000",
      "TransmitCoilName": "Body",
      "VariableFlipAngleFlag": "N",
      "WindowCenterWidthExplanation": "Algo1",
      "dBdt": 0.0},
    "slices": {}
  },
  "time": {
    "samples": {
      "AcquisitionNumber": [1, 2, 3, 4, 5, 6, 7, 8, 9, 10, 11, 12, 13, 14, 15, 16, 17, 18, 19, 20, 21, 22, 23, 24, 25, 26, 27, 28, 29, 30, 31, 32, 33, 34, 35, 36, 37, 38, 39, 40, 41, 42, 43, 44, 45, 46, 47, 48, 49, 50, 51, 52, 53, 54, 55, 56, 57, 58, 59, 60, 61, 62, 63, 64, 65, 66, 67, 68, 69, 70, 71, 72, 73, 74, 75, 76, 77, 78, 79, 80, 81, 82, 83, 84, 85, 86, 87, 88, 89, 90, 91, 92, 93, 94, 95, 96, 97, 98, 99, 100, 101, 102, 103, 104, 105, 106, 107, 108, 109, 110, 111, 112, 113, 114, 115, 116, 117, 118, 119, 120, 121, 122, 123, 124, 125, 126, 127, 128, 129, 130, 131, 132, 133, 134, 135, 136, 137, 138, 139, 140, 141, 142, 143, 144, 145, 146, 147, 148, 149, 150, 151, 152, 153, 154, 155, 156, 157, 158, 159, 160, 161, 162, 163, 164, 165, 166, 167, 168, 169, 170, 171, 172, 173, 174, 175, 176, 177, 178, 179, 180, 181, 182, 183, 184, 185, 186, 187, 188, 189, 190, 191, 192, 193, 194, 195, 196, 197, 198, 199, 200, 201, 202, 203, 204, 205, 206, 207, 208, 209, 210, 211, 212, 213, 214, 215, 216, 217, 218, 219, 220, 221, 222, 223, 224, 225, 226, 227, 228, 229, 230, 231, 232, 233, 234, 235, 236, 237, 238, 239, 240, 241, 242, 243, 244, 245, 246, 247, 248, 249, 250, 251, 252, 253, 254, 255, 256, 257, 258, 259, 260, 261, 262, 263, 264, 265, 266, 267, 268, 269, 270, 271, 272, 273, 274, 275, 276, 277, 278, 279, 280, 281, 282, 283, 284, 285, 286, 287, 288, 289, 290, 291, 292, 293, 294, 295, 296, 297, 298, 299, 300, 301, 302, 303, 304, 305, 306, 307, 308, 309, 310, 311, 312, 313, 314, 315, 316, 317, 318, 319, 320, 321, 322, 323, 324, 325, 326, 327, 328, 329, 330, 331, 332, 333, 334, 335, 336, 337, 338, 339, 340, 341, 342, 343, 344, 345, 346, 347, 348, 349, 350, 351, 352, 353, 354, 355, 356, 357, 358, 359, 360, 361, 362, 363, 364, 365, 366, 367, 368, 369, 370, 371, 372, 373, 374, 375, 376, 377, 378, 379, 380, 381, 382, 383, 384, 385, 386, 387, 388, 389, 390, 391, 392, 393, 394, 395, 396, 397, 398, 399, 400, 401, 402, 403, 404, 405, 406, 407, 408, 409, 410, 411, 412, 413, 414, 415, 416, 417, 418, 419, 420, 421, 422, 423, 424, 425, 426, 427, 428, 429, 430, 431, 432, 433, 434, 435, 436, 437, 438, 439, 440, 441, 442, 443, 444, 445, 446, 447, 448, 449, 450, 451, 452, 453, 454, 455, 456, 457, 458, 459, 460, 461, 462, 463, 464, 465, 466, 467, 468, 469],
      "AcquisitionTime": ["131811.652500", "131813.142500", "131814.632500", "131816.122500", "131817.612500", "131819.102500", "131820.592500", "131822.082500", "131823.572500", "131825.062500", "131826.552500", "131828.042500", "131829.532500", "131831.022500", "131832.512500", "131834.002500", "131835.492500", "131836.982500", "131838.472500", "131839.962500", "131841.452500", "131842.942500", "131844.432500", "131845.922500", "131847.412500", "131848.902500", "131850.392500", "131851.882500", "131853.372500", "131854.862500", "131856.352500", "131857.842500", "131859.332500", "131900.822500", "131902.312500", "131903.802500", "131905.292500", "131906.782500", "131908.272500", "131909.762500", "131911.252500", "131912.742500", "131914.232500", "131915.722500", "131917.212500", "131918.702500", "131920.192500", "131921.682500", "131923.172500", "131924.662500", "131926.152500", "131927.642500", "131929.132500", "131930.622500", "131932.112500", "131933.602500", "131935.092500", "131936.582500", "131938.072500", "131939.562500", "131941.052500", "131942.542500", "131944.032500", "131945.522500", "131947.012500", "131948.502500", "131949.992500", "131951.482500", "131952.972500", "131954.462500", "131955.952500", "131957.442500", "131958.932500", "132000.422500", "132001.912500", "132003.402500", "132004.892500", "132006.382500", "132007.872500", "132009.362500", "132010.852500", "132012.342500", "132013.832500", "132015.322500", "132016.812500", "132018.302500", "132019.792500", "132021.282500", "132022.772500", "132024.262500", "132025.752500", "132027.242500", "132028.732500", "132030.222500", "132031.712500", "132033.202500", "132034.692500", "132036.182500", "132037.672500", "132039.162500", "132040.652500", "132042.142500", "132043.632500", "132045.122500", "132046.612500", "132048.102500", "132049.592500", "132051.082500", "132052.572500", "132054.062500", "132055.552500", "132057.042500", "132058.532500", "132100.022500", "132101.512500", "132103.002500", "132104.492500", "132105.982500", "132107.472500", "132108.962500", "132110.452500", "132111.942500", "132113.432500", "132114.922500", "132116.412500", "132117.902500", "132119.392500", "132120.882500", "132122.372500", "132123.862500", "132125.352500", "132126.842500", "132128.332500", "132129.822500", "132131.312500", "132132.802500", "132134.292500", "132135.782500", "132137.272500", "132138.762500", "132140.252500", "132141.742500", "132143.232500", "132144.722500", "132146.212500", "132147.702500", "132149.192500", "132150.682500", "132152.172500", "132153.662500", "132155.152500", "132156.642500", "132158.132500", "132159.622500", "132201.112500", "132202.602500", "132204.092500", "132205.582500", "132207.072500", "132208.562500", "132210.052500", "132211.542500", "132213.032500", "132214.522500", "132216.012500", "132217.502500", "132218.992500", "132220.482500", "132221.972500", "132223.462500", "132224.952500", "132226.442500", "132227.932500", "132229.422500", "132230.912500", "132232.402500", "132233.892500", "132235.382500", "132236.872500", "132238.362500", "132239.852500", "132241.342500", "132242.832500", "132244.322500", "132245.812500", "132247.302500", "132248.792500", "132250.282500", "132251.772500", "132253.262500", "132254.752500", "132256.242500", "132257.732500", "132259.222500", "132300.712500", "132302.202500", "132303.692500", "132305.182500", "132306.672500", "132308.162500", "132309.652500", "132311.142500", "132312.632500", "132314.122500", "132315.612500", "132317.102500", "132318.592500", "132320.082500", "132321.572500", "132323.062500", "132324.552500", "132326.042500", "132327.532500", "132329.022500", "132330.512500", "132332.002500", "132333.492500", "132334.982500", "132336.472500", "132337.962500", "132339.452500", "132340.942500", "132342.432500", "132343.922500", "132345.412500", "132346.902500", "132348.392500", "132349.882500", "132351.372500", "132352.862500", "132354.352500", "132355.842500", "132357.332500", "132358.822500", "132400.312500", "132401.802500", "132403.292500", "132404.782500", "132406.272500", "132407.762500", "132409.252500", "132410.742500", "132412.232500", "132413.722500", "132415.212500", "132416.702500", "132418.192500", "132419.682500", "132421.172500", "132422.662500", "132424.152500", "132425.642500", "132427.132500", "132428.622500", "132430.112500", "132431.602500", "132433.092500", "132434.582500", "132436.072500", "132437.562500", "132439.052500", "132440.542500", "132442.032500", "132443.522500", "132445.012500", "132446.502500", "132447.992500", "132449.482500", "132450.972500", "132452.462500", "132453.952500", "132455.442500", "132456.932500", "132458.422500", "132459.912500", "132501.402500", "132502.892500", "132504.382500", "132505.872500", "132507.362500", "132508.852500", "132510.342500", "132511.832500", "132513.322500", "132514.812500", "132516.302500", "132517.792500", "132519.282500", "132520.772500", "132522.262500", "132523.752500", "132525.242500", "132526.732500", "132528.222500", "132529.712500", "132531.202500", "132532.692500", "132534.182500", "132535.672500", "132537.162500", "132538.652500", "132540.142500", "132541.632500", "132543.122500", "132544.612500", "132546.102500", "132547.592500", "132549.082500", "132550.572500", "132552.062500", "132553.552500", "132555.042500", "132556.532500", "132558.022500", "132559.512500", "132601.002500", "132602.492500", "132603.982500", "132605.472500", "132606.962500", "132608.452500", "132609.942500", "132611.432500", "132612.922500", "132614.412500", "132615.902500", "132617.392500", "132618.882500", "132620.372500", "132621.862500", "132623.352500", "132624.842500", "132626.332500", "132627.822500", "132629.312500", "132630.802500", "132632.292500", "132633.782500", "132635.272500", "132636.762500", "132638.252500", "132639.742500", "132641.232500", "132642.722500", "132644.212500", "132645.702500", "132647.192500", "132648.682500", "132650.172500", "132651.662500", "132653.152500", "132654.642500", "132656.132500", "132657.622500", "132659.112500", "132700.602500", "132702.092500", "132703.582500", "132705.072500", "132706.562500", "132708.052500", "132709.542500", "132711.032500", "132712.522500", "132714.012500", "132715.502500", "132716.992500", "132718.482500", "132719.972500", "132721.462500", "132722.952500", "132724.442500", "132725.932500", "132727.422500", "132728.912500", "132730.402500", "132731.892500", "132733.382500", "132734.872500", "132736.362500", "132737.852500", "132739.342500", "132740.832500", "132742.322500", "132743.812500", "132745.302500", "132746.792500", "132748.282500", "132749.772500", "132751.262500", "132752.752500", "132754.242500", "132755.732500", "132757.222500", "132758.712500", "132800.202500", "132801.692500", "132803.182500", "132804.672500", "132806.162500", "132807.652500", "132809.142500", "132810.632500", "132812.122500", "132813.612500", "132815.102500", "132816.592500", "132818.082500", "132819.572500", "132821.062500", "132822.552500", "132824.042500", "132825.532500", "132827.022500", "132828.512500", "132830.002500", "132831.492500", "132832.982500", "132834.472500", "132835.962500", "132837.452500", "132838.942500", "132840.432500", "132841.922500", "132843.412500", "132844.902500", "132846.392500", "132847.882500", "132849.372500", "132850.862500", "132852.352500", "132853.842500", "132855.332500", "132856.822500", "132858.312500", "132859.802500", "132901.292500", "132902.782500", "132904.272500", "132905.762500", "132907.252500", "132908.742500", "132910.232500", "132911.722500", "132913.212500", "132914.702500", "132916.192500", "132917.682500", "132919.172500", "132920.662500", "132922.152500", "132923.642500", "132925.132500", "132926.622500", "132928.112500", "132929.602500", "132931.092500", "132932.582500", "132934.072500", "132935.562500", "132937.052500", "132938.542500", "132940.032500", "132941.522500", "132943.012500", "132944.502500", "132945.992500", "132947.482500", "132948.972500"],
      "ContentTime": ["131918.827000", "131918.830000", "131918.834000", "131918.837000", "131918.841000", "131918.844000", "131918.848000", "131918.852000", "131918.856000", "131918.859000", "131918.863000", "131918.866000", "131918.870000", "131938.774000", "131938.778000", "131938.781000", "131938.785000", "131938.788000", "131938.792000", "131938.807000", "131938.811000", "131938.814000", "131938.818000", "131938.821000", "131938.825000", "131938.828000", "131938.832000", "131938.835000", "131938.839000", "131938.842000", "131938.845000", "131938.849000", "131938.852000", "131958.774000", "131958.778000", "131958.781000", "131958.785000", "131958.788000", "131958.792000", "131958.795000", "131958.799000", "131958.802000", "131958.805000", "131958.809000", "131958.812000", "131958.816000", "131958.819000", "131958.823000", "131958.826000", "131958.829000", "131958.833000", "131958.836000", "131958.840000", "132018.774000", "132018.817000", "132018.820000", "132018.825000", "132018.828000", "132018.832000", "132018.835000", "132018.839000", "132018.842000", "132018.846000", "132018.849000", "132018.853000", "132018.856000", "132018.860000", "132018.863000", "132018.867000", "132018.870000", "132018.874000", "132018.877000", "132018.881000", "132038.774000", "132038.814000", "132038.817000", "132038.821000", "132038.824000", "132038.828000", "132038.831000", "132038.835000", "132038.838000", "132038.841000", "132038.845000", "132038.848000", "132038.852000", "132038.855000", "132038.858000", "132038.862000", "132038.865000", "132038.869000", "132038.872000", "132038.876000", "132038.880000", "132118.774000", "132118.778000", "132118.782000", "132118.785000", "132118.788000", "132118.792000", "132118.795000", "132118.799000", "132118.802000", "132118.806000", "132118.809000", "132118.813000", "132118.816000", "132118.820000", "132118.823000", "132118.826000", "132118.830000", "132118.833000", "132118.837000", "132118.840000", "132118.844000", "132118.847000", "132118.851000", "132118.854000", "132118.857000", "132118.874000", "132118.877000", "132118.881000", "132118.884000", "132118.887000", "132118.891000", "132158.774000", "132158.813000", "132158.816000", "132158.820000", "132158.823000", "132158.827000", "132158.830000", "132158.834000", "132158.837000", "132158.840000", "132158.844000", "132158.847000", "132158.851000", "132158.854000", "132158.857000", "132158.861000", "132158.865000", "132158.868000", "132158.871000", "132158.875000", "132158.878000", "132158.882000", "132158.885000", "132158.889000", "132158.892000", "132158.895000", "132158.899000", "132238.774000", "132238.778000", "132238.782000", "132238.785000", "132238.789000", "132238.792000", "132238.796000", "132238.799000", "132238.803000", "132238.806000", "132238.810000", "132238.813000", "132238.816000", "132238.820000", "132238.823000", "132238.827000", "132238.830000", "132238.834000", "132238.837000", "132238.841000", "132238.844000", "132238.848000", "132238.851000", "132238.855000", "132238.858000", "132238.862000", "132238.865000", "132318.774000", "132318.814000", "132318.817000", "132318.821000", "132318.824000", "132318.828000", "132318.831000", "132318.835000", "132318.838000", "132318.842000", "132318.845000", "132318.852000", "132318.855000", "132318.859000", "132318.862000", "132318.866000", "132318.870000", "132318.875000", "132318.880000", "132318.885000", "132318.889000", "132318.892000", "132318.896000", "132318.900000", "132318.903000", "132318.907000", "132358.774000", "132358.778000", "132358.782000", "132358.785000", "132358.789000", "132358.792000", "132358.795000", "132358.799000", "132358.802000", "132358.812000", "132358.815000", "132358.819000", "132358.822000", "132358.826000", "132358.829000", "132358.833000", "132358.836000", "132358.840000", "132358.843000", "132358.847000", "132358.850000", "132358.853000", "132358.857000", "132358.860000", "132358.864000", "132358.867000", "132358.871000", "132438.774000", "132438.778000", "132438.782000", "132438.785000", "132438.789000", "132438.792000", "132438.796000", "132438.799000", "132438.802000", "132438.806000", "132438.809000", "132438.813000", "132438.816000", "132438.820000", "132438.823000", "132438.826000", "132438.830000", "132438.833000", "132438.837000", "132438.840000", "132438.844000", "132438.847000", "132438.852000", "132438.855000", "132438.858000", "132438.862000", "132438.865000", "132518.775000", "132518.783000", "132518.787000", "132518.790000", "132518.794000", "132518.797000", "132518.800000", "132518.804000", "132518.807000", "132518.811000", "132518.814000", "132518.818000", "132518.821000", "132518.825000", "132518.828000", "132518.832000", "132518.835000", "132518.838000", "132518.842000", "132518.846000", "132518.849000", "132518.852000", "132518.856000", "132518.859000", "132518.863000", "132518.866000", "132518.869000", "132558.774000", "132558.956000", "132558.959000", "132558.963000", "132558.966000", "132558.970000", "132558.973000", "132558.977000", "132558.980000", "132558.983000", "132558.987000", "132558.990000", "132558.994000", "132558.997000", "132559.002000", "132559.005000", "132559.008000", "132559.012000", "132559.015000", "132559.028000", "132559.031000", "132559.035000", "132559.038000", "132559.041000", "132559.045000", "132559.048000", "132559.052000", "132638.774000", "132638.778000", "132638.782000", "132638.785000", "132638.789000", "132638.792000", "132638.796000", "132638.799000", "132638.803000", "132638.806000", "132638.809000", "132638.813000", "132638.816000", "132638.820000", "132638.823000", "132638.827000", "132638.830000", "132638.834000", "132638.837000", "132638.841000", "132638.844000", "132638.847000", "132638.851000", "132638.854000", "132638.858000", "132638.861000", "132638.865000", "132718.775000", "132718.779000", "132718.783000", "132718.786000", "132718.790000", "132718.794000", "132718.797000", "132718.800000", "132718.804000", "132718.807000", "132718.811000", "132718.814000", "132718.818000", "132718.821000", "132718.825000", "132718.828000", "132718.832000", "132718.835000", "132718.838000", "132718.842000", "132718.845000", "132718.849000", "132718.852000", "132718.856000", "132718.859000", "132718.863000", "132718.866000", "132758.775000", "132758.778000", "132758.782000", "132758.785000", "132758.789000", "132758.792000", "132758.796000", "132758.799000", "132758.804000", "132758.808000", "132758.811000", "132758.814000", "132758.818000", "132758.821000", "132758.825000", "132758.828000", "132758.832000", "132758.835000", "132758.839000", "132758.842000", "132758.846000", "132758.849000", "132758.853000", "132758.857000", "132758.861000", "132758.864000", "132838.774000", "132838.778000", "132838.782000", "132838.802000", "132838.805000", "132838.808000", "132838.812000", "132838.815000", "132838.819000", "132838.822000", "132838.826000", "132838.829000", "132838.833000", "132838.836000", "132838.839000", "132838.843000", "132838.846000", "132838.850000", "132838.853000", "132838.857000", "132838.860000", "132838.864000", "132838.867000", "132838.870000", "132838.874000", "132838.877000", "132838.881000", "132918.775000", "132918.798000", "132918.802000", "132918.805000", "132918.809000", "132918.812000", "132918.816000", "132918.819000", "132918.822000", "132918.826000", "132918.829000", "132918.833000", "132918.836000", "132918.840000", "132918.843000", "132918.847000", "132918.850000", "132918.854000", "132918.857000", "132918.861000", "132918.864000", "132918.867000", "132918.871000", "132918.874000", "132918.878000", "132918.882000", "132918.885000", "132951.249000", "132951.253000", "132951.257000", "132951.261000", "132951.264000", "132951.268000", "132951.271000", "132951.275000", "132951.279000", "132951.282000", "132951.286000", "132951.290000", "132951.293000", "132951.297000", "132951.300000", "132951.304000", "132951.307000", "132951.311000", "132951.314000", "132951.318000", "132951.321000", "132951.324000"],
