{
  "AcquisitionMatrixPE": 104,
  "AcquisitionNumber": 1,
  "AcquisitionTime": "13:31:12.765000",
  "BandwidthPerPixelPhaseEncode": 17.17,
  "BaseResolution": 104,
  "BodyPartExamined": "BRAIN",
  "CoilCombinationMethod": "Sum of Squares",
  "ConsistencyInfo": "N4_VE11C_LATEST_20160120",
  "ConversionSoftware": "dcm2niix",
  "ConversionSoftwareVersion": "v1.0.20211006",
  "DerivedVendorReportedEchoSpacing": 0.000560011,
  "DeviceSerialNumber": "167006",
  "DwellTime": 2.1e-06,
  "EchoTime": 0.037,
  "EchoTrainLength": 104,
  "EffectiveEchoSpacing": 0.000560011,
  "FlipAngle": 52,
  "HeudiconvVersion": "0.10.0",
  "ImageComments": "Unaliased MB4/PE3/LB",
  "ImageOrientationPatientDICOM": [0.999132, 0.00778281, 0.0409246, 0.014649, 0.854009, -0.520052],
  "ImageOrientationText": "Tra>Cor(-31.4)>Sag(2.2)",
  "ImageType": [
    "ORIGINAL",
    "PRIMARY",
    "M",
    "MB",
    "ND",
    "MOSAIC"
],
  "ImagingFrequency": 123.259,
  "InPlanePhaseEncodingDirectionDICOM": "COL",
  "InstitutionAddress": "Chemin Queen-Mary 4565,Montreal,District,CA,H3W 1W5",
  "InstitutionName": "IUGM",
  "InstitutionalDepartmentName": "Department",
  "MRAcquisitionType": "2D",
  "MagneticFieldStrength": 3,
  "Manufacturer": "Siemens",
  "ManufacturersModelName": "Prisma_fit",
  "MatrixCoilMode": "SENSE",
  "Modality": "MR",
  "MultibandAccelerationFactor": 4,
  "PartialFourier": 1,
  "PatientPosition": "HFS",
  "PercentPhaseFOV": 100,
  "PercentSampling": 100,
  "PhaseEncodingDirection": "j",
  "PhaseEncodingSteps": 104,
  "PhaseResolution": 1,
  "PixelBandwidth": 2290,
  "ProcedureStepDescription": "games^mario",
  "ProtocolName": "func_task-mario_run-02",
  "PulseSequenceDetails": "%CustomerSeq%\\cmrr_mbep2d_bold",
  "ReceiveCoilActiveElements": "HC1-7;NC1,2",
  "ReceiveCoilName": "HeadNeck_64",
  "ReconMatrixPE": 104,
  "RepetitionTime": 1.49,
  "SAR": 0.0637704,
  "ScanOptions": "FS",
  "ScanningSequence": "EP",
  "SequenceName": "epfid2d1_104",
  "SequenceVariant": "SK\\SS",
  "SeriesDescription": "func_task-mario_run-02",
  "SeriesNumber": 13,
  "ShimSetting": [622, -7183, -8850, 257, 2, -174, -40, 14],
  "SliceThickness": 2,
  "SliceTiming": [0, 0.7825, 0.0975, 0.8825, 0.195, 0.98, 0.2925, 1.0775, 0.3925, 1.175, 0.49, 1.2725, 0.5875, 1.3725, 0.685, 0, 0.7825, 0.0975, 0.8825, 0.195, 0.98, 0.2925, 1.0775, 0.3925, 1.175, 0.49, 1.2725, 0.5875, 1.3725, 0.685, 0, 0.7825, 0.0975, 0.8825, 0.195, 0.98, 0.2925, 1.0775, 0.3925, 1.175, 0.49, 1.2725, 0.5875, 1.3725, 0.685, 0, 0.7825, 0.0975, 0.8825, 0.195, 0.98, 0.2925, 1.0775, 0.3925, 1.175, 0.49, 1.2725, 0.5875, 1.3725, 0.685],
  "SoftwareVersions": "syngo MR E11",
  "SpacingBetweenSlices": 2,
  "StationName": "MRC35049",
  "TaskName": "mario",
  "TotalReadoutTime": 0.0576811,
  "TxRefAmp": 299.82,
  "WipMemBlock": "017e1596-c14d-4e48-8f03-68df741dd58b||Sequence: R016 ve11c/master r/e634e98; Dec 19 2017 11:00:25 by eja",
  "dcmmeta_affine": [
    [-1.9982638359069824, 0.0292980819940567, 0.0779949501156807, 103.65921020507812],
    [-0.015565621666610241, 1.7080185413360596, -1.040399193763733, -48.55835723876953],
    [0.08184926211833954, 1.0401030778884888, 1.7063077688217163, -93.78890228271484],
    [0.0, 0.0, 0.0, 1.0]
],
  "dcmmeta_reorient_transform": [
    [0.0, -1.0, 0.0, 103.0],
    [1.0, 0.0, 0.0, 0.0],
    [0.0, 0.0, 1.0, 0.0],
    [0.0, 0.0, 0.0, 1.0]
],
  "dcmmeta_shape": [104, 104, 60, 437],
  "dcmmeta_slice_dim": 2,
  "dcmmeta_version": 0.6,
  "global": {
    "const": {
      "AcquisitionMatrix": [104, 0, 0, 104],
      "AngioFlag": "N",
      "BitsAllocated": 16,
      "BitsStored": 16,
      "BodyPartExamined": "BRAIN",
      "Columns": 832,
      "EchoNumbers": 1,
      "EchoTime": 37.0,
      "EchoTrainLength": 104,
      "FlipAngle": 52.0,
      "HighBit": 15,
      "ImageOrientationPatient": [0.99913192446149, 0.00778281060283, 0.04092463049305, 0.01464904119746, 0.85400925308609, -0.5200515370955],
      "ImagePositionPatient": [-844.70945928339, -754.75216977971, 362.14610612963],
      "ImageType": [
        "ORIGINAL",
        "PRIMARY",
        "M",
        "MB",
        "ND",
        "MOSAIC"
],
      "ImagedNucleus": "1H",
      "ImagingFrequency": 123.258865,
      "InPlanePhaseEncodingDirection": "COL",
      "MRAcquisitionType": "2D",
      "MagneticFieldStrength": 3.0,
      "Manufacturer": "SIEMENS",
      "ManufacturerModelName": "Prisma_fit",
      "Modality": "MR",
      "NumberOfAverages": 1.0,
      "NumberOfPhaseEncodingSteps": 104,
      "PercentPhaseFieldOfView": 100.0,
      "PercentSampling": 100.0,
      "PerformedProcedureStepStartTime": "120419.839000",
      "PhotometricInterpretation": "MONOCHROME2",
      "PixelBandwidth": 2290.0,
      "PixelRepresentation": 0,
      "PixelSpacing": [2.0, 2.0],
      "ProtocolName": "func_task-mario_run-02",
      "RepetitionTime": 1490.0,
      "Rows": 832,
      "SAR": 0.0637703584401,
      "SamplesPerPixel": 1,
      "ScanOptions": "FS",
      "ScanningSequence": "EP",
      "SequenceName": "epfid2d1_104",
      "SequenceVariant": [
        "SK",
        "SS"
],
      "SeriesDescription": "func_task-mario_run-02",
      "SeriesNumber": 13,
      "SeriesTime": "133232.567000",
      "SliceLocation": -50.71387790155,
      "SliceThickness": 2.0,
      "SmallestImagePixelValue": 0,
      "SoftwareVersions": "syngo MR E11",
      "SpacingBetweenSlices": 1.9999999749449,
      "SpecificCharacterSet": "ISO_IR 100",
      "StudyID": "1",
      "StudyTime": "120419.752000",
      "TransmitCoilName": "Body",
      "VariableFlipAngleFlag": "N",
      "WindowCenterWidthExplanation": "Algo1",
      "dBdt": 0.0},
    "slices": {}
  },
  "time": {
    "samples": {
      "AcquisitionNumber": [1, 2, 3, 4, 5, 6, 7, 8, 9, 10, 11, 12, 13, 14, 15, 16, 17, 18, 19, 20, 21, 22, 23, 24, 25, 26, 27, 28, 29, 30, 31, 32, 33, 34, 35, 36, 37, 38, 39, 40, 41, 42, 43, 44, 45, 46, 47, 48, 49, 50, 51, 52, 53, 54, 55, 56, 57, 58, 59, 60, 61, 62, 63, 64, 65, 66, 67, 68, 69, 70, 71, 72, 73, 74, 75, 76, 77, 78, 79, 80, 81, 82, 83, 84, 85, 86, 87, 88, 89, 90, 91, 92, 93, 94, 95, 96, 97, 98, 99, 100, 101, 102, 103, 104, 105, 106, 107, 108, 109, 110, 111, 112, 113, 114, 115, 116, 117, 118, 119, 120, 121, 122, 123, 124, 125, 126, 127, 128, 129, 130, 131, 132, 133, 134, 135, 136, 137, 138, 139, 140, 141, 142, 143, 144, 145, 146, 147, 148, 149, 150, 151, 152, 153, 154, 155, 156, 157, 158, 159, 160, 161, 162, 163, 164, 165, 166, 167, 168, 169, 170, 171, 172, 173, 174, 175, 176, 177, 178, 179, 180, 181, 182, 183, 184, 185, 186, 187, 188, 189, 190, 191, 192, 193, 194, 195, 196, 197, 198, 199, 200, 201, 202, 203, 204, 205, 206, 207, 208, 209, 210, 211, 212, 213, 214, 215, 216, 217, 218, 219, 220, 221, 222, 223, 224, 225, 226, 227, 228, 229, 230, 231, 232, 233, 234, 235, 236, 237, 238, 239, 240, 241, 242, 243, 244, 245, 246, 247, 248, 249, 250, 251, 252, 253, 254, 255, 256, 257, 258, 259, 260, 261, 262, 263, 264, 265, 266, 267, 268, 269, 270, 271, 272, 273, 274, 275, 276, 277, 278, 279, 280, 281, 282, 283, 284, 285, 286, 287, 288, 289, 290, 291, 292, 293, 294, 295, 296, 297, 298, 299, 300, 301, 302, 303, 304, 305, 306, 307, 308, 309, 310, 311, 312, 313, 314, 315, 316, 317, 318, 319, 320, 321, 322, 323, 324, 325, 326, 327, 328, 329, 330, 331, 332, 333, 334, 335, 336, 337, 338, 339, 340, 341, 342, 343, 344, 345, 346, 347, 348, 349, 350, 351, 352, 353, 354, 355, 356, 357, 358, 359, 360, 361, 362, 363, 364, 365, 366, 367, 368, 369, 370, 371, 372, 373, 374, 375, 376, 377, 378, 379, 380, 381, 382, 383, 384, 385, 386, 387, 388, 389, 390, 391, 392, 393, 394, 395, 396, 397, 398, 399, 400, 401, 402, 403, 404, 405, 406, 407, 408, 409, 410, 411, 412, 413, 414, 415, 416, 417, 418, 419, 420, 421, 422, 423, 424, 425, 426, 427, 428, 429, 430, 431, 432, 433, 434, 435, 436, 437],
      "AcquisitionTime": ["133112.765000", "133114.255000", "133115.745000", "133117.235000", "133118.725000", "133120.215000", "133121.705000", "133123.195000", "133124.685000", "133126.175000", "133127.665000", "133129.155000", "133130.645000", "133132.135000", "133133.625000", "133135.115000", "133136.605000", "133138.095000", "133139.585000", "133141.075000", "133142.565000", "133144.055000", "133145.545000", "133147.035000", "133148.525000", "133150.015000", "133151.505000", "133152.995000", "133154.485000", "133155.975000", "133157.465000", "133158.955000", "133200.445000", "133201.935000", "133203.425000", "133204.915000", "133206.405000", "133207.895000", "133209.385000", "133210.875000", "133212.365000", "133213.855000", "133215.345000", "133216.835000", "133218.325000", "133219.815000", "133221.305000", "133222.795000", "133224.285000", "133225.775000", "133227.265000", "133228.755000", "133230.245000", "133231.735000", "133233.225000", "133234.715000", "133236.205000", "133237.695000", "133239.185000", "133240.675000", "133242.165000", "133243.655000", "133245.145000", "133246.635000", "133248.125000", "133249.615000", "133251.105000", "133252.595000", "133254.085000", "133255.575000", "133257.065000", "133258.555000", "133300.045000", "133301.535000", "133303.025000", "133304.515000", "133306.005000", "133307.495000", "133308.985000", "133310.475000", "133311.965000", "133313.455000", "133314.945000", "133316.435000", "133317.925000", "133319.415000", "133320.905000", "133322.395000", "133323.885000", "133325.375000", "133326.865000", "133328.355000", "133329.845000", "133331.335000", "133332.825000", "133334.315000", "133335.805000", "133337.295000", "133338.785000", "133340.275000", "133341.765000", "133343.255000", "133344.745000", "133346.235000", "133347.725000", "133349.215000", "133350.705000", "133352.195000", "133353.685000", "133355.175000", "133356.665000", "133358.155000", "133359.645000", "133401.135000", "133402.625000", "133404.115000", "133405.605000", "133407.095000", "133408.585000", "133410.075000", "133411.565000", "133413.055000", "133414.545000", "133416.035000", "133417.525000", "133419.015000", "133420.505000", "133421.995000", "133423.485000", "133424.975000", "133426.465000", "133427.955000", "133429.445000", "133430.935000", "133432.425000", "133433.915000", "133435.405000", "133436.895000", "133438.385000", "133439.875000", "133441.365000", "133442.855000", "133444.345000", "133445.835000", "133447.325000", "133448.815000", "133450.305000", "133451.795000", "133453.285000", "133454.775000", "133456.265000", "133457.755000", "133459.245000", "133500.735000", "133502.225000", "133503.715000", "133505.205000", "133506.695000", "133508.185000", "133509.675000", "133511.165000", "133512.655000", "133514.145000", "133515.635000", "133517.125000", "133518.615000", "133520.105000", "133521.595000", "133523.085000", "133524.575000", "133526.065000", "133527.555000", "133529.045000", "133530.535000", "133532.025000", "133533.515000", "133535.005000", "133536.495000", "133537.985000", "133539.475000", "133540.965000", "133542.455000", "133543.945000", "133545.435000", "133546.925000", "133548.415000", "133549.905000", "133551.395000", "133552.885000", "133554.375000", "133555.865000", "133557.355000", "133558.845000", "133600.335000", "133601.825000", "133603.315000", "133604.805000", "133606.295000", "133607.785000", "133609.275000", "133610.765000", "133612.255000", "133613.745000", "133615.235000", "133616.725000", "133618.215000", "133619.705000", "133621.195000", "133622.685000", "133624.175000", "133625.665000", "133627.155000", "133628.645000", "133630.135000", "133631.625000", "133633.115000", "133634.605000", "133636.095000", "133637.585000", "133639.075000", "133640.565000", "133642.055000", "133643.545000", "133645.035000", "133646.525000", "133648.015000", "133649.505000", "133650.995000", "133652.485000", "133653.975000", "133655.465000", "133656.955000", "133658.445000", "133659.935000", "133701.425000", "133702.915000", "133704.405000", "133705.895000", "133707.385000", "133708.875000", "133710.365000", "133711.855000", "133713.345000", "133714.835000", "133716.325000", "133717.815000", "133719.305000", "133720.795000", "133722.285000", "133723.775000", "133725.265000", "133726.755000", "133728.245000", "133729.735000", "133731.225000", "133732.715000", "133734.205000", "133735.695000", "133737.185000", "133738.675000", "133740.165000", "133741.655000", "133743.145000", "133744.635000", "133746.125000", "133747.615000", "133749.105000", "133750.595000", "133752.085000", "133753.575000", "133755.065000", "133756.555000", "133758.045000", "133759.535000", "133801.025000", "133802.515000", "133804.005000", "133805.495000", "133806.985000", "133808.475000", "133809.965000", "133811.455000", "133812.945000", "133814.435000", "133815.925000", "133817.415000", "133818.905000", "133820.395000", "133821.885000", "133823.375000", "133824.865000", "133826.355000", "133827.845000", "133829.335000", "133830.825000", "133832.315000", "133833.805000", "133835.295000", "133836.785000", "133838.275000", "133839.765000", "133841.255000", "133842.745000", "133844.235000", "133845.725000", "133847.215000", "133848.705000", "133850.195000", "133851.685000", "133853.175000", "133854.665000", "133856.155000", "133857.645000", "133859.135000", "133900.625000", "133902.115000", "133903.605000", "133905.095000", "133906.585000", "133908.075000", "133909.565000", "133911.055000", "133912.545000", "133914.035000", "133915.525000", "133917.015000", "133918.505000", "133919.995000", "133921.485000", "133922.975000", "133924.465000", "133925.955000", "133927.445000", "133928.935000", "133930.425000", "133931.915000", "133933.405000", "133934.895000", "133936.385000", "133937.875000", "133939.365000", "133940.855000", "133942.345000", "133943.835000", "133945.325000", "133946.815000", "133948.305000", "133949.795000", "133951.285000", "133952.775000", "133954.265000", "133955.755000", "133957.245000", "133958.735000", "134000.225000", "134001.715000", "134003.205000", "134004.695000", "134006.185000", "134007.675000", "134009.165000", "134010.655000", "134012.145000", "134013.635000", "134015.125000", "134016.615000", "134018.105000", "134019.595000", "134021.085000", "134022.575000", "134024.065000", "134025.555000", "134027.045000", "134028.535000", "134030.025000", "134031.515000", "134033.005000", "134034.495000", "134035.985000", "134037.475000", "134038.965000", "134040.455000", "134041.945000", "134043.435000", "134044.925000", "134046.415000", "134047.905000", "134049.395000", "134050.885000", "134052.375000", "134053.865000", "134055.355000", "134056.845000", "134058.335000", "134059.825000", "134101.315000", "134102.805000", "134104.295000", "134105.785000", "134107.275000", "134108.765000", "134110.255000", "134111.745000", "134113.235000", "134114.725000", "134116.215000", "134117.705000", "134119.195000", "134120.685000", "134122.175000", "134123.665000", "134125.155000", "134126.645000", "134128.135000", "134129.625000", "134131.115000", "134132.605000", "134134.095000", "134135.585000", "134137.075000", "134138.565000", "134140.055000", "134141.545000", "134143.035000", "134144.525000", "134146.015000", "134147.505000", "134148.995000", "134150.485000", "134151.975000", "134153.465000", "134154.955000", "134156.445000", "134157.935000", "134159.425000", "134200.915000", "134202.405000"],
      "ContentTime": ["133232.570000", "133232.574000", "133232.583000", "133232.587000", "133232.590000", "133232.593000", "133232.616000", "133232.619000", "133232.623000", "133232.626000", "133232.629000", "133232.632000", "133232.636000", "133232.640000", "133232.643000", "133232.646000", "133232.650000", "133232.653000", "133232.657000", "133232.660000", "133232.664000", "133232.667000", "133232.671000", "133232.674000", "133232.678000", "133252.521000", "133252.525000", "133252.528000", "133252.532000", "133252.535000", "133252.539000", "133252.542000", "133252.546000", "133252.549000", "133252.553000", "133252.556000", "133252.559000", "133252.563000", "133252.566000", "133252.570000", "133252.573000", "133252.577000", "133252.580000", "133252.583000", "133252.587000", "133312.521000", "133312.525000", "133312.528000", "133312.532000", "133312.536000", "133312.539000", "133312.542000", "133312.546000", "133312.549000", "133312.553000", "133312.556000", "133312.559000", "133312.563000", "133312.566000", "133312.570000", "133312.574000", "133312.578000", "133312.581000", "133312.585000", "133312.588000", "133332.521000", "133332.525000", "133332.528000", "133332.532000", "133332.535000", "133332.539000", "133332.542000", "133332.545000", "133332.549000", "133332.552000", "133332.556000", "133332.559000", "133332.563000", "133332.566000", "133332.570000", "133332.573000", "133332.577000", "133332.580000", "133332.583000", "133332.587000", "133332.590000", "133352.521000", "133352.525000", "133352.528000", "133352.532000", "133352.535000", "133352.539000", "133352.542000", "133352.546000", "133352.549000", "133352.552000", "133352.556000", "133352.559000", "133352.563000", "133352.566000", "133352.570000", "133352.573000", "133352.576000", "133352.580000", "133352.583000", "133352.587000", "133432.521000", "133432.525000", "133432.529000", "133432.550000", "133432.553000", "133432.557000", "133432.560000", "133432.563000", "133432.567000", "133432.570000", "133432.574000", "133432.577000", "133432.581000", "133432.584000", "133432.588000", "133432.591000", "133432.594000", "133432.598000", "133432.602000", "133432.605000", "133432.609000", "133432.612000", "133432.616000", "133432.619000", "133432.622000", "133432.626000", "133432.629000", "133512.521000", "133512.525000", "133512.529000", "133512.532000", "133512.536000", "133512.539000", "133512.542000", "133512.546000", "133512.549000", "133512.553000", "133512.556000", "133512.560000", "133512.563000", "133512.567000", "133512.570000", "133512.573000", "133512.577000", "133512.580000", "133512.584000", "133512.587000", "133512.591000", "133512.594000", "133512.597000", "133512.601000", "133512.604000", "133512.608000", "133512.611000", "133552.521000", "133552.525000", "133552.529000", "133552.532000", "133552.535000", "133552.539000", "133552.542000", "133552.546000", "133552.549000", "133552.553000", "133552.556000", "133552.560000", "133552.563000", "133552.566000", "133552.570000", "133552.573000", "133552.577000", "133552.580000", "133552.584000", "133552.587000", "133552.590000", "133552.594000", "133552.597000", "133552.601000", "133552.604000", "133552.607000", "133552.611000", "133632.521000", "133632.525000", "133632.528000", "133632.532000", "133632.535000", "133632.539000", "133632.542000", "133632.546000", "133632.549000", "133632.553000", "133632.556000", "133632.560000", "133632.563000", "133632.567000", "133632.570000", "133632.578000", "133632.582000", "133632.585000", "133632.588000", "133632.592000", "133632.595000", "133632.599000", "133632.602000", "133632.605000", "133632.609000", "133632.612000", "133632.616000", "133712.522000", "133712.526000", "133712.530000", "133712.533000", "133712.537000", "133712.540000", "133712.543000", "133712.547000", "133712.550000", "133712.554000", "133712.557000", "133712.561000", "133712.564000", "133712.567000", "133712.571000", "133712.575000", "133712.578000", "133712.581000", "133712.585000", "133712.590000", "133712.594000", "133712.597000", "133712.602000", "133712.606000", "133712.610000", "133712.615000", "133752.521000", "133752.525000", "133752.529000", "133752.532000", "133752.535000", "133752.539000", "133752.542000", "133752.546000", "133752.549000", "133752.553000", "133752.556000", "133752.560000", "133752.563000", "133752.566000", "133752.570000", "133752.573000", "133752.577000", "133752.580000", "133752.584000", "133752.587000", "133752.591000", "133752.594000", "133752.598000", "133752.601000", "133752.605000", "133752.608000", "133752.611000", "133812.521000", "133812.525000", "133812.528000", "133812.532000", "133812.535000", "133812.539000", "133812.542000", "133812.546000", "133812.549000", "133812.553000", "133812.556000", "133812.559000", "133812.563000", "133812.567000", "133852.521000", "133852.525000", "133852.529000", "133852.532000", "133852.536000", "133852.539000", "133852.542000", "133852.546000", "133852.549000", "133852.553000", "133852.556000", "133852.560000", "133852.578000", "133852.582000", "133852.585000", "133852.588000", "133852.592000", "133852.595000", "133852.599000", "133852.602000", "133852.606000", "133852.609000", "133852.613000", "133852.616000", "133852.620000", "133852.623000", "133852.627000", "133932.523000", "133932.527000", "133932.531000", "133932.534000", "133932.537000", "133932.541000", "133932.544000", "133932.548000", "133932.551000", "133932.554000", "133932.558000", "133932.562000", "133932.565000", "133932.568000", "133932.572000", "133932.576000", "133932.579000", "133932.582000", "133932.586000", "133932.590000", "133932.593000", "133932.597000", "133932.600000", "133932.603000", "133932.607000", "133932.610000", "134012.521000", "134012.525000", "134012.529000", "134012.532000", "134012.536000", "134012.539000", "134012.543000", "134012.546000", "134012.550000", "134012.553000", "134012.556000", "134012.560000", "134012.563000", "134012.567000", "134012.570000", "134012.574000", "134012.577000", "134012.581000", "134012.584000", "134012.588000", "134012.591000", "134012.594000", "134012.598000", "134012.601000", "134012.605000", "134012.608000", "134012.612000", "134052.521000", "134052.525000", "134052.529000", "134052.532000", "134052.536000", "134052.539000", "134052.544000", "134052.548000", "134052.552000", "134052.555000", "134052.559000", "134052.562000", "134052.566000", "134052.569000", "134052.573000", "134052.576000", "134052.580000", "134052.583000", "134052.587000", "134052.590000", "134052.594000", "134052.597000", "134052.600000", "134052.604000", "134052.607000", "134052.620000", "134052.624000", "134132.521000", "134132.525000", "134132.529000", "134132.532000", "134132.535000", "134132.539000", "134132.542000", "134132.546000", "134132.549000", "134132.553000", "134132.556000", "134132.560000", "134132.563000", "134132.567000", "134132.570000", "134132.574000", "134132.577000", "134132.581000", "134132.584000", "134132.588000", "134132.591000", "134132.594000", "134132.598000", "134132.601000", "134132.605000", "134132.608000", "134132.612000", "134205.734000", "134205.738000", "134205.741000", "134205.744000", "134205.748000", "134205.751000", "134205.755000", "134205.758000", "134205.762000", "134205.765000", "134205.769000", "134205.772000", "134205.776000", "134205.779000", "134205.783000", "134205.786000", "134205.790000", "134205.793000", "134205.796000", "134205.800000", "134205.803000", "134205.807000"],
