{
  "AcquisitionMatrixPE": 104,
  "AcquisitionNumber": 1,
  "AcquisitionTime": "13:56:39.840000",
  "BandwidthPerPixelPhaseEncode": 17.17,
  "BaseResolution": 104,
  "BodyPartExamined": "BRAIN",
  "CoilCombinationMethod": "Sum of Squares",
  "ConsistencyInfo": "N4_VE11C_LATEST_20160120",
  "ConversionSoftware": "dcm2niix",
  "ConversionSoftwareVersion": "v1.0.20211006",
  "DerivedVendorReportedEchoSpacing": 0.000560011,
  "DeviceSerialNumber": "167006",
  "DwellTime": 2.1e-06,
  "EchoTime": 0.037,
  "EchoTime1": 0.037,
  "EchoTime2": 0.001,
  "EchoTrainLength": 104,
  "EffectiveEchoSpacing": 0.000560011,
  "FlipAngle": 52,
  "HeudiconvVersion": "0.10.0",
  "ImageComments": "Unaliased MB4/PE3/LB",
  "ImageOrientationPatientDICOM": [0.999132, 0.00778281, 0.0409246, 0.014649, 0.854009, -0.520052],
  "ImageOrientationText": "Tra>Cor(-31.4)>Sag(2.2)",
  "ImageType": [
    "ORIGINAL",
    "PRIMARY",
    "P",
    "MB",
    "ND",
    "MOSAIC",
    "PHASE"
],
  "ImagingFrequency": 123.259,
  "InPlanePhaseEncodingDirectionDICOM": "COL",
  "InstitutionAddress": "Chemin Queen-Mary 4565,Montreal,District,CA,H3W 1W5",
  "InstitutionName": "IUGM",
  "InstitutionalDepartmentName": "Department",
  "MRAcquisitionType": "2D",
  "MagneticFieldStrength": 3,
  "Manufacturer": "Siemens",
  "ManufacturersModelName": "Prisma_fit",
  "MatrixCoilMode": "SENSE",
  "Modality": "MR",
  "MultibandAccelerationFactor": 4,
  "PartialFourier": 1,
  "PatientPosition": "HFS",
  "PercentPhaseFOV": 100,
  "PercentSampling": 100,
  "PhaseEncodingDirection": "j",
  "PhaseEncodingSteps": 104,
  "PhaseResolution": 1,
  "PixelBandwidth": 2290,
  "ProcedureStepDescription": "games^mario",
  "ProtocolName": "func_task-mario_run-04",
  "PulseSequenceDetails": "%CustomerSeq%\\cmrr_mbep2d_bold",
  "ReceiveCoilActiveElements": "HC1-7;NC1,2",
  "ReceiveCoilName": "HeadNeck_64",
  "ReconMatrixPE": 104,
  "RepetitionTime": 1.49,
  "SAR": 0.0637704,
  "ScanOptions": "FS",
  "ScanningSequence": "EP",
  "SequenceName": "epfid2d1_104",
  "SequenceVariant": "SK\\SS",
  "SeriesDescription": "func_task-mario_run-04",
  "SeriesNumber": 20,
  "ShimSetting": [622, -7183, -8850, 257, 2, -174, -40, 14],
  "SliceThickness": 2,
  "SliceTiming": [0, 0.785, 0.1, 0.8825, 0.1975, 0.98, 0.295, 1.08, 0.3925, 1.1775, 0.49, 1.275, 0.59, 1.3725, 0.6875, 0, 0.785, 0.1, 0.8825, 0.1975, 0.98, 0.295, 1.08, 0.3925, 1.1775, 0.49, 1.275, 0.59, 1.3725, 0.6875, 0, 0.785, 0.1, 0.8825, 0.1975, 0.98, 0.295, 1.08, 0.3925, 1.1775, 0.49, 1.275, 0.59, 1.3725, 0.6875, 0, 0.785, 0.1, 0.8825, 0.1975, 0.98, 0.295, 1.08, 0.3925, 1.1775, 0.49, 1.275, 0.59, 1.3725, 0.6875],
  "SoftwareVersions": "syngo MR E11",
  "SpacingBetweenSlices": 2,
  "StationName": "MRC35049",
  "TaskName": "mario",
  "TotalReadoutTime": 0.0576811,
  "TxRefAmp": 299.82,
  "WipMemBlock": "5a09377f-6f0e-49bc-8e11-c4880e925eb5||Sequence: R016 ve11c/master r/e634e98; Dec 19 2017 11:00:25 by eja",
  "dcmmeta_affine": [
    [-1.9982638359069824, 0.0292980819940567, 0.0779949501156807, 103.65921020507812],
    [-0.015565621666610241, 1.7080185413360596, -1.040399193763733, -48.55835723876953],
    [0.08184926211833954, 1.0401030778884888, 1.7063077688217163, -93.78890228271484],
    [0.0, 0.0, 0.0, 1.0]
],
  "dcmmeta_reorient_transform": [
    [0.0, -1.0, 0.0, 103.0],
    [1.0, 0.0, 0.0, 0.0],
    [0.0, 0.0, 1.0, 0.0],
    [0.0, 0.0, 0.0, 1.0]
],
  "dcmmeta_shape": [104, 104, 60, 542],
  "dcmmeta_slice_dim": 2,
  "dcmmeta_version": 0.6,
  "global": {
    "const": {
      "AcquisitionMatrix": [104, 0, 0, 104],
      "AngioFlag": "N",
      "BitsAllocated": 16,
      "BitsStored": 16,
      "BodyPartExamined": "BRAIN",
      "Columns": 832,
      "EchoNumbers": 1,
      "EchoTime": 37.0,
      "EchoTrainLength": 104,
      "FlipAngle": 52.0,
      "HighBit": 15,
      "ImageOrientationPatient": [0.99913192446149, 0.00778281060283, 0.04092463049305, 0.01464904119746, 0.85400925308609, -0.5200515370955],
      "ImagePositionPatient": [-844.70945928339, -754.75216977971, 362.14610612963],
      "ImageType": [
        "ORIGINAL",
        "PRIMARY",
        "P",
        "MB",
        "ND",
        "MOSAIC"
],
      "ImagedNucleus": "1H",
      "ImagingFrequency": 123.258882,
      "InPlanePhaseEncodingDirection": "COL",
      "LargestImagePixelValue": 4095,
      "MRAcquisitionType": "2D",
      "MagneticFieldStrength": 3.0,
      "Manufacturer": "SIEMENS",
      "ManufacturerModelName": "Prisma_fit",
      "Modality": "MR",
      "NumberOfAverages": 1.0,
      "NumberOfPhaseEncodingSteps": 104,
      "PercentPhaseFieldOfView": 100.0,
      "PercentSampling": 100.0,
      "PerformedProcedureStepStartTime": "120419.839000",
      "PhotometricInterpretation": "MONOCHROME2",
      "PixelBandwidth": 2290.0,
      "PixelRepresentation": 0,
      "PixelSpacing": [2.0, 2.0],
      "ProtocolName": "func_task-mario_run-04",
      "RepetitionTime": 1490.0,
      "RescaleIntercept": -4096.0,
      "RescaleSlope": 2.0,
      "RescaleType": "US",
      "Rows": 832,
      "SAR": 0.0637703584401,
      "SamplesPerPixel": 1,
      "ScanOptions": "FS",
      "ScanningSequence": "EP",
      "SequenceName": "epfid2d1_104",
      "SequenceVariant": [
        "SK",
        "SS"
],
      "SeriesDescription": "func_task-mario_run-04",
      "SeriesNumber": 20,
      "SeriesTime": "135758.948000",
      "SliceLocation": -50.71387790155,
      "SliceThickness": 2.0,
      "SmallestImagePixelValue": 0,
      "SoftwareVersions": "syngo MR E11",
      "SpacingBetweenSlices": 1.9999999749449,
      "SpecificCharacterSet": "ISO_IR 100",
      "StudyID": "1",
      "StudyTime": "120419.752000",
      "TransmitCoilName": "Body",
      "VariableFlipAngleFlag": "N",
      "WindowCenterWidthExplanation": "Algo1",
      "dBdt": 0.0},
    "slices": {}
  },
  "time": {
    "samples": {
      "AcquisitionNumber": [1, 2, 3, 4, 5, 6, 7, 8, 9, 10, 11, 12, 13, 14, 15, 16, 17, 18, 19, 20, 21, 22, 23, 24, 25, 26, 27, 28, 29, 30, 31, 32, 33, 34, 35, 36, 37, 38, 39, 40, 41, 42, 43, 44, 45, 46, 47, 48, 49, 50, 51, 52, 53, 54, 55, 56, 57, 58, 59, 60, 61, 62, 63, 64, 65, 66, 67, 68, 69, 70, 71, 72, 73, 74, 75, 76, 77, 78, 79, 80, 81, 82, 83, 84, 85, 86, 87, 88, 89, 90, 91, 92, 93, 94, 95, 96, 97, 98, 99, 100, 101, 102, 103, 104, 105, 106, 107, 108, 109, 110, 111, 112, 113, 114, 115, 116, 117, 118, 119, 120, 121, 122, 123, 124, 125, 126, 127, 128, 129, 130, 131, 132, 133, 134, 135, 136, 137, 138, 139, 140, 141, 142, 143, 144, 145, 146, 147, 148, 149, 150, 151, 152, 153, 154, 155, 156, 157, 158, 159, 160, 161, 162, 163, 164, 165, 166, 167, 168, 169, 170, 171, 172, 173, 174, 175, 176, 177, 178, 179, 180, 181, 182, 183, 184, 185, 186, 187, 188, 189, 190, 191, 192, 193, 194, 195, 196, 197, 198, 199, 200, 201, 202, 203, 204, 205, 206, 207, 208, 209, 210, 211, 212, 213, 214, 215, 216, 217, 218, 219, 220, 221, 222, 223, 224, 225, 226, 227, 228, 229, 230, 231, 232, 233, 234, 235, 236, 237, 238, 239, 240, 241, 242, 243, 244, 245, 246, 247, 248, 249, 250, 251, 252, 253, 254, 255, 256, 257, 258, 259, 260, 261, 262, 263, 264, 265, 266, 267, 268, 269, 270, 271, 272, 273, 274, 275, 276, 277, 278, 279, 280, 281, 282, 283, 284, 285, 286, 287, 288, 289, 290, 291, 292, 293, 294, 295, 296, 297, 298, 299, 300, 301, 302, 303, 304, 305, 306, 307, 308, 309, 310, 311, 312, 313, 314, 315, 316, 317, 318, 319, 320, 321, 322, 323, 324, 325, 326, 327, 328, 329, 330, 331, 332, 333, 334, 335, 336, 337, 338, 339, 340, 341, 342, 343, 344, 345, 346, 347, 348, 349, 350, 351, 352, 353, 354, 355, 356, 357, 358, 359, 360, 361, 362, 363, 364, 365, 366, 367, 368, 369, 370, 371, 372, 373, 374, 375, 376, 377, 378, 379, 380, 381, 382, 383, 384, 385, 386, 387, 388, 389, 390, 391, 392, 393, 394, 395, 396, 397, 398, 399, 400, 401, 402, 403, 404, 405, 406, 407, 408, 409, 410, 411, 412, 413, 414, 415, 416, 417, 418, 419, 420, 421, 422, 423, 424, 425, 426, 427, 428, 429, 430, 431, 432, 433, 434, 435, 436, 437, 438, 439, 440, 441, 442, 443, 444, 445, 446, 447, 448, 449, 450, 451, 452, 453, 454, 455, 456, 457, 458, 459, 460, 461, 462, 463, 464, 465, 466, 467, 468, 469, 470, 471, 472, 473, 474, 475, 476, 477, 478, 479, 480, 481, 482, 483, 484, 485, 486, 487, 488, 489, 490, 491, 492, 493, 494, 495, 496, 497, 498, 499, 500, 501, 502, 503, 504, 505, 506, 507, 508, 509, 510, 511, 512, 513, 514, 515, 516, 517, 518, 519, 520, 521, 522, 523, 524, 525, 526, 527, 528, 529, 530, 531, 532, 533, 534, 535, 536, 537, 538, 539, 540, 541, 542],
      "AcquisitionTime": ["135639.840000", "135641.330000", "135642.820000", "135644.310000", "135645.800000", "135647.290000", "135648.780000", "135650.270000", "135651.760000", "135653.250000", "135654.740000", "135656.230000", "135657.720000", "135659.210000", "135700.700000", "135702.190000", "135703.680000", "135705.170000", "135706.660000", "135708.150000", "135709.640000", "135711.130000", "135712.620000", "135714.110000", "135715.600000", "135717.090000", "135718.580000", "135720.070000", "135721.560000", "135723.050000", "135724.540000", "135726.030000", "135727.520000", "135729.010000", "135730.500000", "135731.990000", "135733.480000", "135734.970000", "135736.460000", "135737.950000", "135739.440000", "135740.930000", "135742.420000", "135743.910000", "135745.400000", "135746.890000", "135748.380000", "135749.870000", "135751.360000", "135752.850000", "135754.340000", "135755.830000", "135757.320000", "135758.810000", "135800.300000", "135801.790000", "135803.280000", "135804.770000", "135806.260000", "135807.750000", "135809.240000", "135810.730000", "135812.220000", "135813.710000", "135815.200000", "135816.690000", "135818.180000", "135819.670000", "135821.160000", "135822.650000", "135824.140000", "135825.630000", "135827.120000", "135828.610000", "135830.100000", "135831.590000", "135833.080000", "135834.570000", "135836.060000", "135837.550000", "135839.040000", "135840.530000", "135842.020000", "135843.510000", "135845.000000", "135846.490000", "135847.980000", "135849.470000", "135850.960000", "135852.450000", "135853.940000", "135855.430000", "135856.920000", "135858.410000", "135859.900000", "135901.390000", "135902.880000", "135904.370000", "135905.860000", "135907.350000", "135908.840000", "135910.330000", "135911.820000", "135913.310000", "135914.800000", "135916.290000", "135917.780000", "135919.270000", "135920.760000", "135922.250000", "135923.740000", "135925.230000", "135926.720000", "135928.210000", "135929.700000", "135931.190000", "135932.680000", "135934.170000", "135935.660000", "135937.150000", "135938.640000", "135940.130000", "135941.620000", "135943.110000", "135944.600000", "135946.090000", "135947.580000", "135949.070000", "135950.560000", "135952.050000", "135953.540000", "135955.030000", "135956.520000", "135958.010000", "135959.500000", "140000.990000", "140002.480000", "140003.970000", "140005.460000", "140006.950000", "140008.440000", "140009.930000", "140011.420000", "140012.910000", "140014.400000", "140015.890000", "140017.380000", "140018.870000", "140020.360000", "140021.850000", "140023.340000", "140024.830000", "140026.320000", "140027.810000", "140029.300000", "140030.790000", "140032.280000", "140033.770000", "140035.260000", "140036.750000", "140038.240000", "140039.730000", "140041.220000", "140042.710000", "140044.200000", "140045.690000", "140047.180000", "140048.670000", "140050.160000", "140051.650000", "140053.140000", "140054.630000", "140056.120000", "140057.610000", "140059.100000", "140100.590000", "140102.080000", "140103.570000", "140105.060000", "140106.550000", "140108.040000", "140109.530000", "140111.020000", "140112.510000", "140114.000000", "140115.490000", "140116.980000", "140118.470000", "140119.960000", "140121.450000", "140122.940000", "140124.430000", "140125.920000", "140127.410000", "140128.900000", "140130.390000", "140131.880000", "140133.370000", "140134.860000", "140136.350000", "140137.840000", "140139.330000", "140140.820000", "140142.310000", "140143.800000", "140145.290000", "140146.780000", "140148.270000", "140149.760000", "140151.250000", "140152.740000", "140154.230000", "140155.720000", "140157.210000", "140158.700000", "140200.190000", "140201.680000", "140203.170000", "140204.660000", "140206.150000", "140207.640000", "140209.130000", "140210.620000", "140212.110000", "140213.600000", "140215.090000", "140216.580000", "140218.070000", "140219.560000", "140221.050000", "140222.540000", "140224.030000", "140225.520000", "140227.010000", "140228.500000", "140229.990000", "140231.480000", "140232.970000", "140234.460000", "140235.950000", "140237.440000", "140238.930000", "140240.420000", "140241.910000", "140243.400000", "140244.890000", "140246.380000", "140247.870000", "140249.360000", "140250.850000", "140252.340000", "140253.830000", "140255.320000", "140256.810000", "140258.300000", "140259.790000", "140301.280000", "140302.770000", "140304.260000", "140305.750000", "140307.240000", "140308.730000", "140310.220000", "140311.710000", "140313.200000", "140314.690000", "140316.180000", "140317.670000", "140319.160000", "140320.650000", "140322.140000", "140323.630000", "140325.120000", "140326.610000", "140328.100000", "140329.590000", "140331.080000", "140332.570000", "140334.060000", "140335.550000", "140337.040000", "140338.530000", "140340.020000", "140341.510000", "140343.000000", "140344.490000", "140345.980000", "140347.470000", "140348.960000", "140350.450000", "140351.940000", "140353.430000", "140354.920000", "140356.410000", "140357.900000", "140359.390000", "140400.880000", "140402.370000", "140403.860000", "140405.350000", "140406.840000", "140408.330000", "140409.820000", "140411.310000", "140412.800000", "140414.290000", "140415.780000", "140417.270000", "140418.760000", "140420.250000", "140421.740000", "140423.230000", "140424.720000", "140426.210000", "140427.700000", "140429.190000", "140430.680000", "140432.170000", "140433.660000", "140435.150000", "140436.640000", "140438.130000", "140439.620000", "140441.110000", "140442.600000", "140444.090000", "140445.580000", "140447.070000", "140448.560000", "140450.050000", "140451.540000", "140453.030000", "140454.520000", "140456.010000", "140457.500000", "140458.990000", "140500.480000", "140501.970000", "140503.460000", "140504.950000", "140506.440000", "140507.930000", "140509.420000", "140510.910000", "140512.400000", "140513.890000", "140515.380000", "140516.870000", "140518.360000", "140519.850000", "140521.340000", "140522.830000", "140524.320000", "140525.810000", "140527.300000", "140528.790000", "140530.280000", "140531.770000", "140533.260000", "140534.750000", "140536.240000", "140537.730000", "140539.220000", "140540.710000", "140542.200000", "140543.690000", "140545.180000", "140546.670000", "140548.160000", "140549.650000", "140551.140000", "140552.630000", "140554.120000", "140555.610000", "140557.100000", "140558.590000", "140600.080000", "140601.570000", "140603.060000", "140604.550000", "140606.040000", "140607.530000", "140609.020000", "140610.510000", "140612.000000", "140613.490000", "140614.980000", "140616.470000", "140617.960000", "140619.450000", "140620.940000", "140622.430000", "140623.920000", "140625.410000", "140626.900000", "140628.390000", "140629.880000", "140631.370000", "140632.860000", "140634.350000", "140635.840000", "140637.330000", "140638.820000", "140640.310000", "140641.800000", "140643.290000", "140644.780000", "140646.270000", "140647.760000", "140649.250000", "140650.740000", "140652.230000", "140653.720000", "140655.210000", "140656.700000", "140658.190000", "140659.680000", "140701.170000", "140702.660000", "140704.150000", "140705.640000", "140707.130000", "140708.620000", "140710.110000", "140711.600000", "140713.090000", "140714.580000", "140716.070000", "140717.560000", "140719.050000", "140720.540000", "140722.030000", "140723.520000", "140725.010000", "140726.500000", "140727.990000", "140729.480000", "140730.970000", "140732.460000", "140733.950000", "140735.440000", "140736.930000", "140738.420000", "140739.910000", "140741.400000", "140742.890000", "140744.380000", "140745.870000", "140747.360000", "140748.850000", "140750.340000", "140751.830000", "140753.320000", "140754.810000", "140756.300000", "140757.790000", "140759.280000", "140800.770000", "140802.260000", "140803.750000", "140805.240000", "140806.730000", "140808.220000", "140809.710000", "140811.200000", "140812.690000", "140814.180000", "140815.670000", "140817.160000", "140818.650000", "140820.140000", "140821.630000", "140823.120000", "140824.610000", "140826.100000", "140827.590000", "140829.080000", "140830.570000", "140832.060000", "140833.550000", "140835.040000", "140836.530000", "140838.020000", "140839.510000", "140841.000000", "140842.490000", "140843.980000", "140845.470000", "140846.960000", "140848.450000", "140849.940000", "140851.430000", "140852.920000", "140854.410000", "140855.900000", "140857.390000", "140858.880000", "140900.370000", "140901.860000", "140903.350000", "140904.840000", "140906.330000", "140907.820000", "140909.310000", "140910.800000", "140912.290000", "140913.780000", "140915.270000", "140916.760000", "140918.250000", "140919.740000", "140921.230000", "140922.720000", "140924.210000", "140925.700000", "140927.190000", "140928.680000", "140930.170000", "140931.660000", "140933.150000", "140934.640000", "140936.130000", "140937.620000", "140939.110000", "140940.600000", "140942.090000", "140943.580000", "140945.070000", "140946.560000", "140948.050000", "140949.540000", "140951.030000", "140952.520000", "140954.010000", "140955.500000", "140956.990000", "140958.480000", "140959.970000", "141001.460000", "141002.950000", "141004.440000", "141005.930000"],
      "ContentTime": ["135758.951000", "135758.954000", "135758.957000", "135758.960000", "135758.963000", "135758.966000", "135758.968000", "135758.971000", "135758.974000", "135758.976000", "135758.979000", "135758.982000", "135758.984000", "135758.987000", "135758.989000", "135758.992000", "135758.994000", "135758.997000", "135759.000000", "135759.003000", "135759.006000", "135759.008000", "135818.923000", "135818.925000", "135818.928000", "135818.940000", "135818.942000", "135818.945000", "135818.948000", "135818.951000", "135818.953000", "135818.956000", "135818.958000", "135818.961000", "135818.964000", "135818.966000", "135818.969000", "135818.972000", "135818.974000", "135818.977000", "135818.979000", "135818.982000", "135818.985000", "135838.876000", "135838.878000", "135838.881000", "135838.884000", "135838.886000", "135838.889000", "135838.892000", "135838.894000", "135838.897000", "135838.899000", "135838.902000", "135838.905000", "135838.907000", "135838.910000", "135838.913000", "135838.915000", "135838.918000", "135838.920000", "135838.923000", "135838.926000", "135858.909000", "135858.912000", "135858.928000", "135858.930000", "135858.933000", "135858.935000", "135858.938000", "135858.941000", "135858.943000", "135858.946000", "135858.948000", "135858.951000", "135858.953000", "135858.956000", "135858.959000", "135858.961000", "135858.964000", "135858.966000", "135858.969000", "135858.972000", "135918.993000", "135918.996000", "135919.001000", "135919.004000", "135919.007000", "135919.009000", "135919.012000", "135919.015000", "135919.017000", "135919.020000", "135919.022000", "135919.025000", "135919.028000", "135919.030000", "135919.033000", "135919.035000", "135919.038000", "135919.041000", "135919.043000", "135919.046000", "135958.973000", "135958.976000", "135958.978000", "135958.981000", "135958.983000", "135958.996000", "135958.998000", "135959.002000", "135959.005000", "135959.007000", "135959.010000", "135959.013000", "135959.015000", "135959.018000", "135959.020000", "135959.023000", "135959.026000", "135959.028000", "135959.031000", "135959.033000", "135959.036000", "135959.039000", "135959.041000", "135959.044000", "135959.046000", "135959.049000", "135959.052000", "135959.054000", "135959.057000", "140038.963000", "140038.966000", "140038.969000", "140038.971000", "140038.974000", "140038.977000", "140038.979000", "140038.982000", "140038.984000", "140038.987000", "140038.990000", "140038.992000", "140038.995000", "140038.998000", "140039.001000", "140039.004000", "140039.007000", "140039.010000", "140039.012000", "140039.015000", "140039.018000", "140039.021000", "140039.024000", "140039.027000", "140039.030000", "140039.033000", "140039.035000", "140118.914000", "140118.916000", "140118.919000", "140118.922000", "140118.924000", "140118.927000", "140118.930000", "140118.932000", "140118.935000", "140118.937000", "140118.940000", "140118.943000", "140118.945000", "140118.948000", "140118.950000", "140118.953000", "140118.956000", "140118.958000", "140118.961000", "140118.964000", "140118.966000", "140118.969000", "140118.971000", "140118.974000", "140118.977000", "140118.979000", "140118.982000", "140158.928000", "140158.931000", "140158.934000", "140158.936000", "140158.939000", "140158.942000", "140158.944000", "140158.947000", "140158.949000", "140158.952000", "140158.955000", "140158.957000", "140158.960000", "140158.963000", "140158.965000", "140158.968000", "140158.970000", "140158.973000", "140158.975000", "140158.978000", "140158.981000", "140158.983000", "140158.986000", "140158.988000", "140158.991000", "140158.994000", "140158.996000", "140238.913000", "140238.915000", "140238.918000", "140238.921000", "140238.923000", "140238.926000", "140238.928000", "140238.931000", "140238.934000", "140238.936000", "140238.939000", "140238.942000", "140238.944000", "140238.947000", "140238.949000", "140238.952000", "140238.955000", "140238.957000", "140238.960000", "140238.962000", "140238.965000", "140238.968000", "140238.970000", "140238.973000", "140238.975000", "140238.978000", "140238.981000", "140318.932000", "140318.935000", "140318.937000", "140318.940000", "140318.942000", "140318.945000", "140318.948000", "140318.950000", "140318.953000", "140318.956000", "140318.958000", "140318.961000", "140318.963000", "140318.966000", "140318.969000", "140318.971000", "140318.974000", "140318.976000", "140318.979000", "140318.982000", "140318.984000", "140318.987000", "140318.989000", "140318.992000", "140318.994000", "140318.997000", "140319.001000", "140358.928000", "140358.931000", "140358.934000", "140358.940000", "140358.942000", "140358.945000", "140358.947000", "140358.950000", "140358.953000", "140358.955000", "140358.958000", "140358.961000", "140358.963000", "140358.966000", "140358.969000", "140358.971000", "140358.974000", "140358.976000", "140358.979000", "140358.982000", "140358.984000", "140358.987000", "140358.989000", "140358.992000", "140358.995000", "140358.997000", "140359.001000", "140438.915000", "140438.920000", "140438.924000", "140438.926000", "140438.930000", "140438.933000", "140438.936000", "140438.939000", "140438.942000", "140438.944000", "140438.947000", "140438.950000", "140438.952000", "140438.955000", "140438.958000", "140438.960000", "140438.963000", "140438.966000", "140438.968000", "140438.971000", "140438.973000", "140438.976000", "140438.979000", "140438.981000", "140438.984000", "140438.986000", "140519.122000", "140519.125000", "140519.128000", "140519.130000", "140519.133000", "140519.144000", "140519.147000", "140519.150000", "140519.153000", "140519.157000", "140519.160000", "140519.163000", "140519.165000", "140519.168000", "140519.171000", "140519.173000", "140519.176000", "140519.179000", "140519.181000", "140519.184000", "140519.187000", "140519.189000", "140519.192000", "140519.195000", "140519.197000", "140519.200000", "140519.203000", "140558.930000", "140558.933000", "140558.936000", "140558.938000", "140558.941000", "140558.944000", "140558.946000", "140558.949000", "140558.951000", "140558.954000", "140558.956000", "140558.959000", "140558.962000", "140558.964000", "140558.967000", "140558.970000", "140558.972000", "140558.975000", "140558.977000", "140558.980000", "140558.983000", "140558.985000", "140558.988000", "140558.990000", "140558.993000", "140558.996000", "140558.998000", "140638.928000", "140638.931000", "140638.934000", "140638.936000", "140638.939000", "140638.941000", "140638.944000", "140638.947000", "140638.949000", "140638.952000", "140638.954000", "140638.957000", "140638.960000", "140638.962000", "140638.965000", "140638.967000", "140638.970000", "140638.973000", "140638.975000", "140638.978000", "140638.980000", "140638.983000", "140638.986000", "140638.988000", "140638.991000", "140638.993000", "140638.996000", "140719.330000", "140719.333000", "140719.335000", "140719.338000", "140719.341000", "140719.343000", "140719.346000", "140719.349000", "140719.351000", "140719.354000", "140719.356000", "140719.359000", "140719.362000", "140719.364000", "140719.367000", "140719.370000", "140719.372000", "140719.375000", "140719.377000", "140719.380000", "140719.383000", "140719.385000", "140719.388000", "140719.391000", "140719.393000", "140719.396000", "140719.398000", "140758.922000", "140758.925000", "140758.927000", "140758.930000", "140758.932000", "140758.935000", "140758.938000", "140758.940000", "140758.943000", "140758.946000", "140758.948000", "140758.951000", "140758.953000", "140758.956000", "140758.959000", "140758.961000", "140758.964000", "140758.966000", "140758.969000", "140758.972000", "140758.981000", "140758.984000", "140758.986000", "140758.989000", "140758.992000", "140758.994000", "140758.997000", "140838.937000", "140838.940000", "140838.942000", "140838.945000", "140838.948000", "140838.950000", "140838.953000", "140838.955000", "140838.958000", "140838.961000", "140838.963000", "140838.966000", "140838.969000", "140838.971000", "140838.974000", "140838.976000", "140838.979000", "140838.982000", "140838.984000", "140838.987000", "140838.989000", "140838.992000", "140838.994000", "140838.997000", "140839.000000", "140839.002000", "140918.918000", "140918.921000", "140918.924000", "140918.927000", "140918.929000", "140918.932000", "140918.934000", "140918.937000", "140918.940000", "140918.942000", "140918.945000", "140918.948000", "140918.951000", "140918.953000", "140918.956000", "140918.958000", "140918.961000", "140918.964000", "140918.967000", "140918.970000", "140918.973000", "140918.976000", "140918.979000", "140918.982000", "140918.985000", "140918.987000", "140918.990000", "140958.958000", "140958.961000", "140958.964000", "140958.966000", "140958.969000", "140958.974000", "140958.977000", "140958.979000", "140958.982000", "140958.985000", "140958.987000", "140958.990000", "140958.993000", "140958.995000", "140958.998000", "140959.001000", "140959.004000", "140959.007000", "140959.009000", "140959.012000", "140959.014000", "140959.017000", "140959.020000", "140959.022000", "140959.025000", "140959.027000", "140959.030000", "141008.496000", "141008.499000", "141008.502000", "141008.504000", "141008.507000", "141008.509000", "141008.512000"],
