{
  "AcquisitionMatrixPE": 104,
  "AcquisitionNumber": 1,
  "AcquisitionTime": "13:31:12.765000",
  "BandwidthPerPixelPhaseEncode": 17.17,
  "BaseResolution": 104,
  "BodyPartExamined": "BRAIN",
  "CoilCombinationMethod": "Sum of Squares",
  "ConsistencyInfo": "N4_VE11C_LATEST_20160120",
  "ConversionSoftware": "dcm2niix",
  "ConversionSoftwareVersion": "v1.0.20211006",
  "DerivedVendorReportedEchoSpacing": 0.000560011,
  "DeviceSerialNumber": "167006",
  "DwellTime": 2.1e-06,
  "EchoTime": 0.037,
  "EchoTime1": 0.037,
  "EchoTime2": 0.001,
  "EchoTrainLength": 104,
  "EffectiveEchoSpacing": 0.000560011,
  "FlipAngle": 52,
  "HeudiconvVersion": "0.10.0",
  "ImageComments": "Unaliased MB4/PE3/LB",
  "ImageOrientationPatientDICOM": [0.999132, 0.00778281, 0.0409246, 0.014649, 0.854009, -0.520052],
  "ImageOrientationText": "Tra>Cor(-31.4)>Sag(2.2)",
  "ImageType": [
    "ORIGINAL",
    "PRIMARY",
    "P",
    "MB",
    "ND",
    "MOSAIC",
    "PHASE"
],
  "ImagingFrequency": 123.259,
  "InPlanePhaseEncodingDirectionDICOM": "COL",
  "InstitutionAddress": "Chemin Queen-Mary 4565,Montreal,District,CA,H3W 1W5",
  "InstitutionName": "IUGM",
  "InstitutionalDepartmentName": "Department",
  "MRAcquisitionType": "2D",
  "MagneticFieldStrength": 3,
  "Manufacturer": "Siemens",
  "ManufacturersModelName": "Prisma_fit",
  "MatrixCoilMode": "SENSE",
  "Modality": "MR",
  "MultibandAccelerationFactor": 4,
  "PartialFourier": 1,
  "PatientPosition": "HFS",
  "PercentPhaseFOV": 100,
  "PercentSampling": 100,
  "PhaseEncodingDirection": "j",
  "PhaseEncodingSteps": 104,
  "PhaseResolution": 1,
  "PixelBandwidth": 2290,
  "ProcedureStepDescription": "games^mario",
  "ProtocolName": "func_task-mario_run-02",
  "PulseSequenceDetails": "%CustomerSeq%\\cmrr_mbep2d_bold",
  "ReceiveCoilActiveElements": "HC1-7;NC1,2",
  "ReceiveCoilName": "HeadNeck_64",
  "ReconMatrixPE": 104,
  "RepetitionTime": 1.49,
  "SAR": 0.0637704,
  "ScanOptions": "FS",
  "ScanningSequence": "EP",
  "SequenceName": "epfid2d1_104",
  "SequenceVariant": "SK\\SS",
  "SeriesDescription": "func_task-mario_run-02",
  "SeriesNumber": 14,
  "ShimSetting": [622, -7183, -8850, 257, 2, -174, -40, 14],
  "SliceThickness": 2,
  "SliceTiming": [0, 0.7825, 0.0975, 0.8825, 0.195, 0.98, 0.2925, 1.0775, 0.3925, 1.175, 0.49, 1.2725, 0.5875, 1.3725, 0.685, 0, 0.7825, 0.0975, 0.8825, 0.195, 0.98, 0.2925, 1.0775, 0.3925, 1.175, 0.49, 1.2725, 0.5875, 1.3725, 0.685, 0, 0.7825, 0.0975, 0.8825, 0.195, 0.98, 0.2925, 1.0775, 0.3925, 1.175, 0.49, 1.2725, 0.5875, 1.3725, 0.685, 0, 0.7825, 0.0975, 0.8825, 0.195, 0.98, 0.2925, 1.0775, 0.3925, 1.175, 0.49, 1.2725, 0.5875, 1.3725, 0.685],
  "SoftwareVersions": "syngo MR E11",
  "SpacingBetweenSlices": 2,
  "StationName": "MRC35049",
  "TaskName": "mario",
  "TotalReadoutTime": 0.0576811,
  "TxRefAmp": 299.82,
  "WipMemBlock": "017e1596-c14d-4e48-8f03-68df741dd58b||Sequence: R016 ve11c/master r/e634e98; Dec 19 2017 11:00:25 by eja",
  "dcmmeta_affine": [
    [-1.9982638359069824, 0.0292980819940567, 0.0779949501156807, 103.65921020507812],
    [-0.015565621666610241, 1.7080185413360596, -1.040399193763733, -48.55835723876953],
    [0.08184926211833954, 1.0401030778884888, 1.7063077688217163, -93.78890228271484],
    [0.0, 0.0, 0.0, 1.0]
],
  "dcmmeta_reorient_transform": [
    [0.0, -1.0, 0.0, 103.0],
    [1.0, 0.0, 0.0, 0.0],
    [0.0, 0.0, 1.0, 0.0],
    [0.0, 0.0, 0.0, 1.0]
],
  "dcmmeta_shape": [104, 104, 60, 437],
  "dcmmeta_slice_dim": 2,
  "dcmmeta_version": 0.6,
  "global": {
    "const": {
      "AcquisitionMatrix": [104, 0, 0, 104],
      "AngioFlag": "N",
      "BitsAllocated": 16,
      "BitsStored": 16,
      "BodyPartExamined": "BRAIN",
      "Columns": 832,
      "EchoNumbers": 1,
      "EchoTime": 37.0,
      "EchoTrainLength": 104,
      "FlipAngle": 52.0,
      "HighBit": 15,
      "ImageOrientationPatient": [0.99913192446149, 0.00778281060283, 0.04092463049305, 0.01464904119746, 0.85400925308609, -0.5200515370955],
      "ImagePositionPatient": [-844.70945928339, -754.75216977971, 362.14610612963],
      "ImageType": [
        "ORIGINAL",
        "PRIMARY",
        "P",
        "MB",
        "ND",
        "MOSAIC"
],
      "ImagedNucleus": "1H",
      "ImagingFrequency": 123.258865,
      "InPlanePhaseEncodingDirection": "COL",
      "LargestImagePixelValue": 4095,
      "MRAcquisitionType": "2D",
      "MagneticFieldStrength": 3.0,
      "Manufacturer": "SIEMENS",
      "ManufacturerModelName": "Prisma_fit",
      "Modality": "MR",
      "NumberOfAverages": 1.0,
      "NumberOfPhaseEncodingSteps": 104,
      "PercentPhaseFieldOfView": 100.0,
      "PercentSampling": 100.0,
      "PerformedProcedureStepStartTime": "120419.839000",
      "PhotometricInterpretation": "MONOCHROME2",
      "PixelBandwidth": 2290.0,
      "PixelRepresentation": 0,
      "PixelSpacing": [2.0, 2.0],
      "ProtocolName": "func_task-mario_run-02",
      "RepetitionTime": 1490.0,
      "RescaleIntercept": -4096.0,
      "RescaleSlope": 2.0,
      "RescaleType": "US",
      "Rows": 832,
      "SAR": 0.0637703584401,
      "SamplesPerPixel": 1,
      "ScanOptions": "FS",
      "ScanningSequence": "EP",
      "SequenceName": "epfid2d1_104",
      "SequenceVariant": [
        "SK",
        "SS"
],
      "SeriesDescription": "func_task-mario_run-02",
      "SeriesNumber": 14,
      "SeriesTime": "133232.730000",
      "SliceLocation": -50.71387790155,
      "SliceThickness": 2.0,
      "SmallestImagePixelValue": 0,
      "SoftwareVersions": "syngo MR E11",
      "SpacingBetweenSlices": 1.9999999749449,
      "SpecificCharacterSet": "ISO_IR 100",
      "StudyID": "1",
      "StudyTime": "120419.752000",
      "TransmitCoilName": "Body",
      "VariableFlipAngleFlag": "N",
      "WindowCenterWidthExplanation": "Algo1",
      "dBdt": 0.0},
    "slices": {}
  },
  "time": {
    "samples": {
      "AcquisitionNumber": [1, 2, 3, 4, 5, 6, 7, 8, 9, 10, 11, 12, 13, 14, 15, 16, 17, 18, 19, 20, 21, 22, 23, 24, 25, 26, 27, 28, 29, 30, 31, 32, 33, 34, 35, 36, 37, 38, 39, 40, 41, 42, 43, 44, 45, 46, 47, 48, 49, 50, 51, 52, 53, 54, 55, 56, 57, 58, 59, 60, 61, 62, 63, 64, 65, 66, 67, 68, 69, 70, 71, 72, 73, 74, 75, 76, 77, 78, 79, 80, 81, 82, 83, 84, 85, 86, 87, 88, 89, 90, 91, 92, 93, 94, 95, 96, 97, 98, 99, 100, 101, 102, 103, 104, 105, 106, 107, 108, 109, 110, 111, 112, 113, 114, 115, 116, 117, 118, 119, 120, 121, 122, 123, 124, 125, 126, 127, 128, 129, 130, 131, 132, 133, 134, 135, 136, 137, 138, 139, 140, 141, 142, 143, 144, 145, 146, 147, 148, 149, 150, 151, 152, 153, 154, 155, 156, 157, 158, 159, 160, 161, 162, 163, 164, 165, 166, 167, 168, 169, 170, 171, 172, 173, 174, 175, 176, 177, 178, 179, 180, 181, 182, 183, 184, 185, 186, 187, 188, 189, 190, 191, 192, 193, 194, 195, 196, 197, 198, 199, 200, 201, 202, 203, 204, 205, 206, 207, 208, 209, 210, 211, 212, 213, 214, 215, 216, 217, 218, 219, 220, 221, 222, 223, 224, 225, 226, 227, 228, 229, 230, 231, 232, 233, 234, 235, 236, 237, 238, 239, 240, 241, 242, 243, 244, 245, 246, 247, 248, 249, 250, 251, 252, 253, 254, 255, 256, 257, 258, 259, 260, 261, 262, 263, 264, 265, 266, 267, 268, 269, 270, 271, 272, 273, 274, 275, 276, 277, 278, 279, 280, 281, 282, 283, 284, 285, 286, 287, 288, 289, 290, 291, 292, 293, 294, 295, 296, 297, 298, 299, 300, 301, 302, 303, 304, 305, 306, 307, 308, 309, 310, 311, 312, 313, 314, 315, 316, 317, 318, 319, 320, 321, 322, 323, 324, 325, 326, 327, 328, 329, 330, 331, 332, 333, 334, 335, 336, 337, 338, 339, 340, 341, 342, 343, 344, 345, 346, 347, 348, 349, 350, 351, 352, 353, 354, 355, 356, 357, 358, 359, 360, 361, 362, 363, 364, 365, 366, 367, 368, 369, 370, 371, 372, 373, 374, 375, 376, 377, 378, 379, 380, 381, 382, 383, 384, 385, 386, 387, 388, 389, 390, 391, 392, 393, 394, 395, 396, 397, 398, 399, 400, 401, 402, 403, 404, 405, 406, 407, 408, 409, 410, 411, 412, 413, 414, 415, 416, 417, 418, 419, 420, 421, 422, 423, 424, 425, 426, 427, 428, 429, 430, 431, 432, 433, 434, 435, 436, 437],
      "AcquisitionTime": ["133112.765000", "133114.255000", "133115.745000", "133117.235000", "133118.725000", "133120.215000", "133121.705000", "133123.195000", "133124.685000", "133126.175000", "133127.665000", "133129.155000", "133130.645000", "133132.135000", "133133.625000", "133135.115000", "133136.605000", "133138.095000", "133139.585000", "133141.075000", "133142.565000", "133144.055000", "133145.545000", "133147.035000", "133148.525000", "133150.015000", "133151.505000", "133152.995000", "133154.485000", "133155.975000", "133157.465000", "133158.955000", "133200.445000", "133201.935000", "133203.425000", "133204.915000", "133206.405000", "133207.895000", "133209.385000", "133210.875000", "133212.365000", "133213.855000", "133215.345000", "133216.835000", "133218.325000", "133219.815000", "133221.305000", "133222.795000", "133224.285000", "133225.775000", "133227.265000", "133228.755000", "133230.245000", "133231.735000", "133233.225000", "133234.715000", "133236.205000", "133237.695000", "133239.185000", "133240.675000", "133242.165000", "133243.655000", "133245.145000", "133246.635000", "133248.125000", "133249.615000", "133251.105000", "133252.595000", "133254.085000", "133255.575000", "133257.065000", "133258.555000", "133300.045000", "133301.535000", "133303.025000", "133304.515000", "133306.005000", "133307.495000", "133308.985000", "133310.475000", "133311.965000", "133313.455000", "133314.945000", "133316.435000", "133317.925000", "133319.415000", "133320.905000", "133322.395000", "133323.885000", "133325.375000", "133326.865000", "133328.355000", "133329.845000", "133331.335000", "133332.825000", "133334.315000", "133335.805000", "133337.295000", "133338.785000", "133340.275000", "133341.765000", "133343.255000", "133344.745000", "133346.235000", "133347.725000", "133349.215000", "133350.705000", "133352.195000", "133353.685000", "133355.175000", "133356.665000", "133358.155000", "133359.645000", "133401.135000", "133402.625000", "133404.115000", "133405.605000", "133407.095000", "133408.585000", "133410.075000", "133411.565000", "133413.055000", "133414.545000", "133416.035000", "133417.525000", "133419.015000", "133420.505000", "133421.995000", "133423.485000", "133424.975000", "133426.465000", "133427.955000", "133429.445000", "133430.935000", "133432.425000", "133433.915000", "133435.405000", "133436.895000", "133438.385000", "133439.875000", "133441.365000", "133442.855000", "133444.345000", "133445.835000", "133447.325000", "133448.815000", "133450.305000", "133451.795000", "133453.285000", "133454.775000", "133456.265000", "133457.755000", "133459.245000", "133500.735000", "133502.225000", "133503.715000", "133505.205000", "133506.695000", "133508.185000", "133509.675000", "133511.165000", "133512.655000", "133514.145000", "133515.635000", "133517.125000", "133518.615000", "133520.105000", "133521.595000", "133523.085000", "133524.575000", "133526.065000", "133527.555000", "133529.045000", "133530.535000", "133532.025000", "133533.515000", "133535.005000", "133536.495000", "133537.985000", "133539.475000", "133540.965000", "133542.455000", "133543.945000", "133545.435000", "133546.925000", "133548.415000", "133549.905000", "133551.395000", "133552.885000", "133554.375000", "133555.865000", "133557.355000", "133558.845000", "133600.335000", "133601.825000", "133603.315000", "133604.805000", "133606.295000", "133607.785000", "133609.275000", "133610.765000", "133612.255000", "133613.745000", "133615.235000", "133616.725000", "133618.215000", "133619.705000", "133621.195000", "133622.685000", "133624.175000", "133625.665000", "133627.155000", "133628.645000", "133630.135000", "133631.625000", "133633.115000", "133634.605000", "133636.095000", "133637.585000", "133639.075000", "133640.565000", "133642.055000", "133643.545000", "133645.035000", "133646.525000", "133648.015000", "133649.505000", "133650.995000", "133652.485000", "133653.975000", "133655.465000", "133656.955000", "133658.445000", "133659.935000", "133701.425000", "133702.915000", "133704.405000", "133705.895000", "133707.385000", "133708.875000", "133710.365000", "133711.855000", "133713.345000", "133714.835000", "133716.325000", "133717.815000", "133719.305000", "133720.795000", "133722.285000", "133723.775000", "133725.265000", "133726.755000", "133728.245000", "133729.735000", "133731.225000", "133732.715000", "133734.205000", "133735.695000", "133737.185000", "133738.675000", "133740.165000", "133741.655000", "133743.145000", "133744.635000", "133746.125000", "133747.615000", "133749.105000", "133750.595000", "133752.085000", "133753.575000", "133755.065000", "133756.555000", "133758.045000", "133759.535000", "133801.025000", "133802.515000", "133804.005000", "133805.495000", "133806.985000", "133808.475000", "133809.965000", "133811.455000", "133812.945000", "133814.435000", "133815.925000", "133817.415000", "133818.905000", "133820.395000", "133821.885000", "133823.375000", "133824.865000", "133826.355000", "133827.845000", "133829.335000", "133830.825000", "133832.315000", "133833.805000", "133835.295000", "133836.785000", "133838.275000", "133839.765000", "133841.255000", "133842.745000", "133844.235000", "133845.725000", "133847.215000", "133848.705000", "133850.195000", "133851.685000", "133853.175000", "133854.665000", "133856.155000", "133857.645000", "133859.135000", "133900.625000", "133902.115000", "133903.605000", "133905.095000", "133906.585000", "133908.075000", "133909.565000", "133911.055000", "133912.545000", "133914.035000", "133915.525000", "133917.015000", "133918.505000", "133919.995000", "133921.485000", "133922.975000", "133924.465000", "133925.955000", "133927.445000", "133928.935000", "133930.425000", "133931.915000", "133933.405000", "133934.895000", "133936.385000", "133937.875000", "133939.365000", "133940.855000", "133942.345000", "133943.835000", "133945.325000", "133946.815000", "133948.305000", "133949.795000", "133951.285000", "133952.775000", "133954.265000", "133955.755000", "133957.245000", "133958.735000", "134000.225000", "134001.715000", "134003.205000", "134004.695000", "134006.185000", "134007.675000", "134009.165000", "134010.655000", "134012.145000", "134013.635000", "134015.125000", "134016.615000", "134018.105000", "134019.595000", "134021.085000", "134022.575000", "134024.065000", "134025.555000", "134027.045000", "134028.535000", "134030.025000", "134031.515000", "134033.005000", "134034.495000", "134035.985000", "134037.475000", "134038.965000", "134040.455000", "134041.945000", "134043.435000", "134044.925000", "134046.415000", "134047.905000", "134049.395000", "134050.885000", "134052.375000", "134053.865000", "134055.355000", "134056.845000", "134058.335000", "134059.825000", "134101.315000", "134102.805000", "134104.295000", "134105.785000", "134107.275000", "134108.765000", "134110.255000", "134111.745000", "134113.235000", "134114.725000", "134116.215000", "134117.705000", "134119.195000", "134120.685000", "134122.175000", "134123.665000", "134125.155000", "134126.645000", "134128.135000", "134129.625000", "134131.115000", "134132.605000", "134134.095000", "134135.585000", "134137.075000", "134138.565000", "134140.055000", "134141.545000", "134143.035000", "134144.525000", "134146.015000", "134147.505000", "134148.995000", "134150.485000", "134151.975000", "134153.465000", "134154.955000", "134156.445000", "134157.935000", "134159.425000", "134200.915000", "134202.405000"],
      "ContentTime": ["133232.732000", "133232.735000", "133232.738000", "133232.740000", "133232.743000", "133232.746000", "133232.748000", "133232.751000", "133232.753000", "133232.756000", "133232.759000", "133232.761000", "133232.764000", "133232.766000", "133232.836000", "133232.839000", "133232.842000", "133232.844000", "133232.847000", "133232.849000", "133232.852000", "133232.854000", "133232.857000", "133232.860000", "133232.862000", "133252.632000", "133252.635000", "133252.638000", "133252.640000", "133252.643000", "133252.646000", "133252.648000", "133252.651000", "133252.653000", "133252.656000", "133252.659000", "133252.661000", "133252.664000", "133252.666000", "133252.669000", "133252.671000", "133252.682000", "133252.685000", "133252.687000", "133252.690000", "133312.638000", "133312.640000", "133312.644000", "133312.646000", "133312.649000", "133312.652000", "133312.655000", "133312.658000", "133312.661000", "133312.664000", "133312.667000", "133312.670000", "133312.672000", "133312.675000", "133312.677000", "133312.680000", "133312.683000", "133312.686000", "133312.688000", "133312.691000", "133332.636000", "133332.639000", "133332.642000", "133332.650000", "133332.652000", "133332.655000", "133332.657000", "133332.660000", "133332.663000", "133332.665000", "133332.668000", "133332.670000", "133332.673000", "133332.676000", "133332.678000", "133332.681000", "133332.683000", "133332.686000", "133332.688000", "133332.691000", "133332.694000", "133352.624000", "133352.627000", "133352.630000", "133352.632000", "133352.635000", "133352.637000", "133352.640000", "133352.642000", "133352.645000", "133352.648000", "133352.650000", "133352.653000", "133352.655000", "133352.658000", "133352.661000", "133352.663000", "133352.666000", "133352.668000", "133352.671000", "133352.674000", "133432.683000", "133432.686000", "133432.688000", "133432.691000", "133432.694000", "133432.696000", "133432.699000", "133432.702000", "133432.704000", "133432.707000", "133432.709000", "133432.712000", "133432.715000", "133432.717000", "133432.720000", "133432.723000", "133432.725000", "133432.728000", "133432.730000", "133432.733000", "133432.736000", "133432.738000", "133432.741000", "133432.743000", "133432.746000", "133432.748000", "133432.751000", "133512.663000", "133512.666000", "133512.668000", "133512.671000", "133512.673000", "133512.676000", "133512.679000", "133512.681000", "133512.684000", "133512.687000", "133512.689000", "133512.692000", "133512.694000", "133512.697000", "133512.700000", "133512.702000", "133512.705000", "133512.708000", "133512.710000", "133512.713000", "133512.715000", "133512.718000", "133512.721000", "133512.723000", "133512.726000", "133512.728000", "133512.731000", "133552.652000", "133552.655000", "133552.657000", "133552.660000", "133552.663000", "133552.665000", "133552.668000", "133552.671000", "133552.673000", "133552.676000", "133552.678000", "133552.681000", "133552.683000", "133552.686000", "133552.688000", "133552.691000", "133552.694000", "133552.696000", "133552.699000", "133552.702000", "133552.704000", "133552.707000", "133552.709000", "133552.712000", "133552.715000", "133552.717000", "133552.720000", "133632.665000", "133632.668000", "133632.671000", "133632.673000", "133632.676000", "133632.679000", "133632.681000", "133632.684000", "133632.686000", "133632.689000", "133632.691000", "133632.694000", "133632.697000", "133632.699000", "133632.702000", "133632.705000", "133632.707000", "133632.710000", "133632.713000", "133632.715000", "133632.718000", "133632.720000", "133632.723000", "133632.725000", "133632.728000", "133632.731000", "133632.733000", "133712.691000", "133712.694000", "133712.696000", "133712.699000", "133712.702000", "133712.704000", "133712.707000", "133712.709000", "133712.712000", "133712.715000", "133712.717000", "133712.720000", "133712.723000", "133712.725000", "133712.728000", "133712.730000", "133712.733000", "133712.736000", "133712.738000", "133712.741000", "133712.744000", "133712.746000", "133712.755000", "133712.757000", "133712.760000", "133712.763000", "133752.676000", "133752.679000", "133752.681000", "133752.684000", "133752.687000", "133752.689000", "133752.692000", "133752.695000", "133752.698000", "133752.700000", "133752.703000", "133752.706000", "133752.708000", "133752.711000", "133752.713000", "133752.716000", "133752.718000", "133752.721000", "133752.724000", "133752.726000", "133752.729000", "133752.732000", "133752.734000", "133752.737000", "133752.739000", "133752.742000", "133752.745000", "133812.606000", "133812.608000", "133812.611000", "133812.614000", "133812.616000", "133812.619000", "133812.622000", "133812.624000", "133812.627000", "133812.629000", "133812.632000", "133812.635000", "133812.637000", "133812.640000", "133852.677000", "133852.680000", "133852.682000", "133852.685000", "133852.688000", "133852.690000", "133852.693000", "133852.695000", "133852.698000", "133852.701000", "133852.703000", "133852.706000", "133852.708000", "133852.711000", "133852.714000", "133852.716000", "133852.719000", "133852.722000", "133852.724000", "133852.727000", "133852.729000", "133852.732000", "133852.735000", "133852.737000", "133852.740000", "133852.742000", "133852.745000", "133932.664000", "133932.668000", "133932.672000", "133932.675000", "133932.678000", "133932.681000", "133932.683000", "133932.686000", "133932.689000", "133932.692000", "133932.695000", "133932.697000", "133932.700000", "133932.702000", "133932.705000", "133932.707000", "133932.710000", "133932.713000", "133932.715000", "133932.718000", "133932.721000", "133932.723000", "133932.726000", "133932.728000", "133932.731000", "133932.734000", "134012.671000", "134012.674000", "134012.676000", "134012.679000", "134012.682000", "134012.684000", "134012.687000", "134012.690000", "134012.692000", "134012.695000", "134012.697000", "134012.700000", "134012.703000", "134012.705000", "134012.708000", "134012.710000", "134012.713000", "134012.716000", "134012.718000", "134012.721000", "134012.724000", "134012.726000", "134012.729000", "134012.731000", "134012.734000", "134012.736000", "134012.739000", "134052.679000", "134052.682000", "134052.685000", "134052.687000", "134052.690000", "134052.693000", "134052.695000", "134052.698000", "134052.700000", "134052.703000", "134052.705000", "134052.708000", "134052.711000", "134052.713000", "134052.716000", "134052.718000", "134052.721000", "134052.727000", "134052.730000", "134052.732000", "134052.735000", "134052.737000", "134052.740000", "134052.743000", "134052.745000", "134052.748000", "134052.750000", "134132.664000", "134132.667000", "134132.670000", "134132.672000", "134132.675000", "134132.678000", "134132.680000", "134132.683000", "134132.685000", "134132.688000", "134132.691000", "134132.693000", "134132.696000", "134132.698000", "134132.701000", "134132.704000", "134132.706000", "134132.709000", "134132.711000", "134132.714000", "134132.717000", "134132.719000", "134132.722000", "134132.725000", "134132.727000", "134132.730000", "134132.732000", "134205.868000", "134205.871000", "134205.874000", "134205.876000", "134205.879000", "134205.882000", "134205.885000", "134205.887000", "134205.890000", "134205.892000", "134205.895000", "134205.898000", "134205.900000", "134205.903000", "134205.905000", "134205.908000", "134205.911000", "134205.913000", "134205.916000", "134205.918000", "134205.921000", "134205.924000"],
