{
  "AcquisitionMatrixPE": 104,
  "AcquisitionNumber": 1,
  "AcquisitionTime": "13:43:33.565000",
  "BandwidthPerPixelPhaseEncode": 17.17,
  "BaseResolution": 104,
  "BodyPartExamined": "BRAIN",
  "CoilCombinationMethod": "Sum of Squares",
  "ConsistencyInfo": "N4_VE11C_LATEST_20160120",
  "ConversionSoftware": "dcm2niix",
  "ConversionSoftwareVersion": "v1.0.20211006",
  "DerivedVendorReportedEchoSpacing": 0.000560011,
  "DeviceSerialNumber": "167006",
  "DwellTime": 2.1e-06,
  "EchoTime": 0.037,
  "EchoTrainLength": 104,
  "EffectiveEchoSpacing": 0.000560011,
  "FlipAngle": 52,
  "HeudiconvVersion": "0.10.0",
  "ImageComments": "Unaliased MB4/PE3/LB",
  "ImageOrientationPatientDICOM": [0.999132, 0.00778281, 0.0409246, 0.014649, 0.854009, -0.520052],
  "ImageOrientationText": "Tra>Cor(-31.4)>Sag(2.2)",
  "ImageType": [
    "ORIGINAL",
    "PRIMARY",
    "M",
    "MB",
    "ND",
    "MOSAIC"
],
  "ImagingFrequency": 123.259,
  "InPlanePhaseEncodingDirectionDICOM": "COL",
  "InstitutionAddress": "Chemin Queen-Mary 4565,Montreal,District,CA,H3W 1W5",
  "InstitutionName": "IUGM",
  "InstitutionalDepartmentName": "Department",
  "MRAcquisitionType": "2D",
  "MagneticFieldStrength": 3,
  "Manufacturer": "Siemens",
  "ManufacturersModelName": "Prisma_fit",
  "MatrixCoilMode": "SENSE",
  "Modality": "MR",
  "MultibandAccelerationFactor": 4,
  "PartialFourier": 1,
  "PatientPosition": "HFS",
  "PercentPhaseFOV": 100,
  "PercentSampling": 100,
  "PhaseEncodingDirection": "j",
  "PhaseEncodingSteps": 104,
  "PhaseResolution": 1,
  "PixelBandwidth": 2290,
  "ProcedureStepDescription": "games^mario",
  "ProtocolName": "func_task-mario_run-03",
  "PulseSequenceDetails": "%CustomerSeq%\\cmrr_mbep2d_bold",
  "ReceiveCoilActiveElements": "HC1-7;NC1,2",
  "ReceiveCoilName": "HeadNeck_64",
  "ReconMatrixPE": 104,
  "RepetitionTime": 1.49,
  "SAR": 0.0637704,
  "ScanOptions": "FS",
  "ScanningSequence": "EP",
  "SequenceName": "epfid2d1_104",
  "SequenceVariant": "SK\\SS",
  "SeriesDescription": "func_task-mario_run-03",
  "SeriesNumber": 16,
  "ShimSetting": [622, -7183, -8850, 257, 2, -174, -40, 14],
  "SliceThickness": 2,
  "SliceTiming": [0, 0.7825, 0.0975, 0.8825, 0.195, 0.98, 0.2925, 1.0775, 0.3925, 1.175, 0.49, 1.2725, 0.5875, 1.3725, 0.685, 0, 0.7825, 0.0975, 0.8825, 0.195, 0.98, 0.2925, 1.0775, 0.3925, 1.175, 0.49, 1.2725, 0.5875, 1.3725, 0.685, 0, 0.7825, 0.0975, 0.8825, 0.195, 0.98, 0.2925, 1.0775, 0.3925, 1.175, 0.49, 1.2725, 0.5875, 1.3725, 0.685, 0, 0.7825, 0.0975, 0.8825, 0.195, 0.98, 0.2925, 1.0775, 0.3925, 1.175, 0.49, 1.2725, 0.5875, 1.3725, 0.685],
  "SoftwareVersions": "syngo MR E11",
  "SpacingBetweenSlices": 2,
  "StationName": "MRC35049",
  "TaskName": "mario",
  "TotalReadoutTime": 0.0576811,
  "TxRefAmp": 299.82,
  "WipMemBlock": "69fa2cbc-d905-42bb-8867-560ee2e6dc9b||Sequence: R016 ve11c/master r/e634e98; Dec 19 2017 11:00:25 by eja",
  "dcmmeta_affine": [
    [-1.9982638359069824, 0.0292980819940567, 0.0779949501156807, 103.65921020507812],
    [-0.015565621666610241, 1.7080185413360596, -1.040399193763733, -48.55835723876953],
    [0.08184926211833954, 1.0401030778884888, 1.7063077688217163, -93.78890228271484],
    [0.0, 0.0, 0.0, 1.0]
],
  "dcmmeta_reorient_transform": [
    [0.0, -1.0, 0.0, 103.0],
    [1.0, 0.0, 0.0, 0.0],
    [0.0, 0.0, 1.0, 0.0],
    [0.0, 0.0, 0.0, 1.0]
],
  "dcmmeta_shape": [104, 104, 60, 471],
  "dcmmeta_slice_dim": 2,
  "dcmmeta_version": 0.6,
  "global": {
    "const": {
      "AcquisitionMatrix": [104, 0, 0, 104],
      "AngioFlag": "N",
      "BitsAllocated": 16,
      "BitsStored": 16,
      "BodyPartExamined": "BRAIN",
      "Columns": 832,
      "EchoNumbers": 1,
      "EchoTime": 37.0,
      "EchoTrainLength": 104,
      "FlipAngle": 52.0,
      "HighBit": 15,
      "ImageOrientationPatient": [0.99913192446149, 0.00778281060283, 0.04092463049305, 0.01464904119746, 0.85400925308609, -0.5200515370955],
      "ImagePositionPatient": [-844.70945928339, -754.75216977971, 362.14610612963],
      "ImageType": [
        "ORIGINAL",
        "PRIMARY",
        "M",
        "MB",
        "ND",
        "MOSAIC"
],
      "ImagedNucleus": "1H",
      "ImagingFrequency": 123.258877,
      "InPlanePhaseEncodingDirection": "COL",
      "MRAcquisitionType": "2D",
      "MagneticFieldStrength": 3.0,
      "Manufacturer": "SIEMENS",
      "ManufacturerModelName": "Prisma_fit",
      "Modality": "MR",
      "NumberOfAverages": 1.0,
      "NumberOfPhaseEncodingSteps": 104,
      "PercentPhaseFieldOfView": 100.0,
      "PercentSampling": 100.0,
      "PerformedProcedureStepStartTime": "120419.839000",
      "PhotometricInterpretation": "MONOCHROME2",
      "PixelBandwidth": 2290.0,
      "PixelRepresentation": 0,
      "PixelSpacing": [2.0, 2.0],
      "ProtocolName": "func_task-mario_run-03",
      "RepetitionTime": 1490.0,
      "Rows": 832,
      "SAR": 0.0637703584401,
      "SamplesPerPixel": 1,
      "ScanOptions": "FS",
      "ScanningSequence": "EP",
      "SequenceName": "epfid2d1_104",
      "SequenceVariant": [
        "SK",
        "SS"
],
      "SeriesDescription": "func_task-mario_run-03",
      "SeriesNumber": 16,
      "SeriesTime": "134456.446000",
      "SliceLocation": -50.71387790155,
      "SliceThickness": 2.0,
      "SmallestImagePixelValue": 0,
      "SoftwareVersions": "syngo MR E11",
      "SpacingBetweenSlices": 1.9999999749449,
      "SpecificCharacterSet": "ISO_IR 100",
      "StudyID": "1",
      "StudyTime": "120419.752000",
      "TransmitCoilName": "Body",
      "VariableFlipAngleFlag": "N",
      "WindowCenterWidthExplanation": "Algo1",
      "dBdt": 0.0},
    "slices": {}
  },
  "time": {
    "samples": {
      "AcquisitionNumber": [1, 2, 3, 4, 5, 6, 7, 8, 9, 10, 11, 12, 13, 14, 15, 16, 17, 18, 19, 20, 21, 22, 23, 24, 25, 26, 27, 28, 29, 30, 31, 32, 33, 34, 35, 36, 37, 38, 39, 40, 41, 42, 43, 44, 45, 46, 47, 48, 49, 50, 51, 52, 53, 54, 55, 56, 57, 58, 59, 60, 61, 62, 63, 64, 65, 66, 67, 68, 69, 70, 71, 72, 73, 74, 75, 76, 77, 78, 79, 80, 81, 82, 83, 84, 85, 86, 87, 88, 89, 90, 91, 92, 93, 94, 95, 96, 97, 98, 99, 100, 101, 102, 103, 104, 105, 106, 107, 108, 109, 110, 111, 112, 113, 114, 115, 116, 117, 118, 119, 120, 121, 122, 123, 124, 125, 126, 127, 128, 129, 130, 131, 132, 133, 134, 135, 136, 137, 138, 139, 140, 141, 142, 143, 144, 145, 146, 147, 148, 149, 150, 151, 152, 153, 154, 155, 156, 157, 158, 159, 160, 161, 162, 163, 164, 165, 166, 167, 168, 169, 170, 171, 172, 173, 174, 175, 176, 177, 178, 179, 180, 181, 182, 183, 184, 185, 186, 187, 188, 189, 190, 191, 192, 193, 194, 195, 196, 197, 198, 199, 200, 201, 202, 203, 204, 205, 206, 207, 208, 209, 210, 211, 212, 213, 214, 215, 216, 217, 218, 219, 220, 221, 222, 223, 224, 225, 226, 227, 228, 229, 230, 231, 232, 233, 234, 235, 236, 237, 238, 239, 240, 241, 242, 243, 244, 245, 246, 247, 248, 249, 250, 251, 252, 253, 254, 255, 256, 257, 258, 259, 260, 261, 262, 263, 264, 265, 266, 267, 268, 269, 270, 271, 272, 273, 274, 275, 276, 277, 278, 279, 280, 281, 282, 283, 284, 285, 286, 287, 288, 289, 290, 291, 292, 293, 294, 295, 296, 297, 298, 299, 300, 301, 302, 303, 304, 305, 306, 307, 308, 309, 310, 311, 312, 313, 314, 315, 316, 317, 318, 319, 320, 321, 322, 323, 324, 325, 326, 327, 328, 329, 330, 331, 332, 333, 334, 335, 336, 337, 338, 339, 340, 341, 342, 343, 344, 345, 346, 347, 348, 349, 350, 351, 352, 353, 354, 355, 356, 357, 358, 359, 360, 361, 362, 363, 364, 365, 366, 367, 368, 369, 370, 371, 372, 373, 374, 375, 376, 377, 378, 379, 380, 381, 382, 383, 384, 385, 386, 387, 388, 389, 390, 391, 392, 393, 394, 395, 396, 397, 398, 399, 400, 401, 402, 403, 404, 405, 406, 407, 408, 409, 410, 411, 412, 413, 414, 415, 416, 417, 418, 419, 420, 421, 422, 423, 424, 425, 426, 427, 428, 429, 430, 431, 432, 433, 434, 435, 436, 437, 438, 439, 440, 441, 442, 443, 444, 445, 446, 447, 448, 449, 450, 451, 452, 453, 454, 455, 456, 457, 458, 459, 460, 461, 462, 463, 464, 465, 466, 467, 468, 469, 470, 471],
      "AcquisitionTime": ["134333.565000", "134335.055000", "134336.545000", "134338.035000", "134339.525000", "134341.015000", "134342.505000", "134343.995000", "134345.485000", "134346.975000", "134348.465000", "134349.955000", "134351.445000", "134352.935000", "134354.425000", "134355.915000", "134357.405000", "134358.895000", "134400.385000", "134401.875000", "134403.365000", "134404.855000", "134406.345000", "134407.835000", "134409.325000", "134410.815000", "134412.305000", "134413.795000", "134415.285000", "134416.775000", "134418.265000", "134419.755000", "134421.245000", "134422.735000", "134424.225000", "134425.715000", "134427.205000", "134428.695000", "134430.185000", "134431.675000", "134433.165000", "134434.655000", "134436.145000", "134437.635000", "134439.125000", "134440.615000", "134442.105000", "134443.595000", "134445.085000", "134446.575000", "134448.065000", "134449.555000", "134451.045000", "134452.535000", "134454.025000", "134455.515000", "134457.005000", "134458.495000", "134459.985000", "134501.475000", "134502.965000", "134504.455000", "134505.945000", "134507.435000", "134508.925000", "134510.415000", "134511.905000", "134513.395000", "134514.885000", "134516.375000", "134517.865000", "134519.355000", "134520.845000", "134522.335000", "134523.825000", "134525.315000", "134526.805000", "134528.295000", "134529.785000", "134531.275000", "134532.765000", "134534.255000", "134535.745000", "134537.235000", "134538.725000", "134540.215000", "134541.705000", "134543.195000", "134544.685000", "134546.175000", "134547.665000", "134549.155000", "134550.645000", "134552.135000", "134553.625000", "134555.115000", "134556.605000", "134558.095000", "134559.585000", "134601.075000", "134602.565000", "134604.055000", "134605.545000", "134607.035000", "134608.525000", "134610.015000", "134611.505000", "134612.995000", "134614.485000", "134615.975000", "134617.465000", "134618.955000", "134620.445000", "134621.935000", "134623.425000", "134624.915000", "134626.405000", "134627.895000", "134629.385000", "134630.875000", "134632.365000", "134633.855000", "134635.345000", "134636.835000", "134638.325000", "134639.815000", "134641.305000", "134642.795000", "134644.285000", "134645.775000", "134647.265000", "134648.755000", "134650.245000", "134651.735000", "134653.225000", "134654.715000", "134656.205000", "134657.695000", "134659.185000", "134700.675000", "134702.165000", "134703.655000", "134705.145000", "134706.635000", "134708.125000", "134709.615000", "134711.105000", "134712.595000", "134714.085000", "134715.575000", "134717.065000", "134718.555000", "134720.045000", "134721.535000", "134723.025000", "134724.515000", "134726.005000", "134727.495000", "134728.985000", "134730.475000", "134731.965000", "134733.455000", "134734.945000", "134736.435000", "134737.925000", "134739.415000", "134740.905000", "134742.395000", "134743.885000", "134745.375000", "134746.865000", "134748.355000", "134749.845000", "134751.335000", "134752.825000", "134754.315000", "134755.805000", "134757.295000", "134758.785000", "134800.275000", "134801.765000", "134803.255000", "134804.745000", "134806.235000", "134807.725000", "134809.215000", "134810.705000", "134812.195000", "134813.685000", "134815.175000", "134816.665000", "134818.155000", "134819.645000", "134821.135000", "134822.625000", "134824.115000", "134825.605000", "134827.095000", "134828.585000", "134830.075000", "134831.565000", "134833.055000", "134834.545000", "134836.035000", "134837.525000", "134839.015000", "134840.505000", "134841.995000", "134843.485000", "134844.975000", "134846.465000", "134847.955000", "134849.445000", "134850.935000", "134852.425000", "134853.915000", "134855.405000", "134856.895000", "134858.385000", "134859.875000", "134901.365000", "134902.855000", "134904.345000", "134905.835000", "134907.325000", "134908.815000", "134910.305000", "134911.795000", "134913.285000", "134914.775000", "134916.265000", "134917.755000", "134919.245000", "134920.735000", "134922.225000", "134923.715000", "134925.205000", "134926.695000", "134928.185000", "134929.675000", "134931.165000", "134932.655000", "134934.145000", "134935.635000", "134937.125000", "134938.615000", "134940.105000", "134941.595000", "134943.085000", "134944.575000", "134946.065000", "134947.555000", "134949.045000", "134950.535000", "134952.025000", "134953.515000", "134955.005000", "134956.495000", "134957.985000", "134959.475000", "135000.965000", "135002.455000", "135003.945000", "135005.435000", "135006.925000", "135008.415000", "135009.905000", "135011.395000", "135012.885000", "135014.375000", "135015.865000", "135017.355000", "135018.845000", "135020.335000", "135021.825000", "135023.315000", "135024.805000", "135026.295000", "135027.785000", "135029.275000", "135030.765000", "135032.255000", "135033.745000", "135035.235000", "135036.725000", "135038.215000", "135039.705000", "135041.195000", "135042.685000", "135044.175000", "135045.665000", "135047.155000", "135048.645000", "135050.135000", "135051.625000", "135053.115000", "135054.605000", "135056.095000", "135057.585000", "135059.075000", "135100.565000", "135102.055000", "135103.545000", "135105.035000", "135106.525000", "135108.015000", "135109.505000", "135110.995000", "135112.485000", "135113.975000", "135115.465000", "135116.955000", "135118.445000", "135119.935000", "135121.425000", "135122.915000", "135124.405000", "135125.895000", "135127.385000", "135128.875000", "135130.365000", "135131.855000", "135133.345000", "135134.835000", "135136.325000", "135137.815000", "135139.305000", "135140.795000", "135142.285000", "135143.775000", "135145.265000", "135146.755000", "135148.245000", "135149.735000", "135151.225000", "135152.715000", "135154.205000", "135155.695000", "135157.185000", "135158.675000", "135200.165000", "135201.655000", "135203.145000", "135204.635000", "135206.125000", "135207.615000", "135209.105000", "135210.595000", "135212.085000", "135213.575000", "135215.065000", "135216.555000", "135218.045000", "135219.535000", "135221.025000", "135222.515000", "135224.005000", "135225.495000", "135226.985000", "135228.475000", "135229.965000", "135231.455000", "135232.945000", "135234.435000", "135235.925000", "135237.415000", "135238.905000", "135240.395000", "135241.885000", "135243.375000", "135244.865000", "135246.355000", "135247.845000", "135249.335000", "135250.825000", "135252.315000", "135253.805000", "135255.295000", "135256.785000", "135258.275000", "135259.765000", "135301.255000", "135302.745000", "135304.235000", "135305.725000", "135307.215000", "135308.705000", "135310.195000", "135311.685000", "135313.175000", "135314.665000", "135316.155000", "135317.645000", "135319.135000", "135320.625000", "135322.115000", "135323.605000", "135325.095000", "135326.585000", "135328.075000", "135329.565000", "135331.055000", "135332.545000", "135334.035000", "135335.525000", "135337.015000", "135338.505000", "135339.995000", "135341.485000", "135342.975000", "135344.465000", "135345.955000", "135347.445000", "135348.935000", "135350.425000", "135351.915000", "135353.405000", "135354.895000", "135356.385000", "135357.875000", "135359.365000", "135400.855000", "135402.345000", "135403.835000", "135405.325000", "135406.815000", "135408.305000", "135409.795000", "135411.285000", "135412.775000", "135414.265000", "135415.755000", "135417.245000", "135418.735000", "135420.225000", "135421.715000", "135423.205000", "135424.695000", "135426.185000", "135427.675000", "135429.165000", "135430.655000", "135432.145000", "135433.635000", "135435.125000", "135436.615000", "135438.105000", "135439.595000", "135441.085000", "135442.575000", "135444.065000", "135445.555000", "135447.045000", "135448.535000", "135450.025000", "135451.515000", "135453.005000", "135454.495000", "135455.985000", "135457.475000", "135458.965000", "135500.455000", "135501.945000", "135503.435000", "135504.925000", "135506.415000", "135507.905000", "135509.395000", "135510.885000", "135512.375000", "135513.865000"],
      "ContentTime": ["134456.450000", "134456.454000", "134456.457000", "134456.461000", "134456.464000", "134456.468000", "134456.471000", "134456.474000", "134456.478000", "134456.481000", "134456.485000", "134456.488000", "134456.491000", "134456.495000", "134456.498000", "134456.502000", "134456.505000", "134456.509000", "134456.512000", "134456.516000", "134456.519000", "134456.528000", "134456.532000", "134456.535000", "134456.539000", "134456.542000", "134456.545000", "134456.549000", "134456.552000", "134456.556000", "134456.559000", "134516.414000", "134516.418000", "134516.421000", "134516.426000", "134516.430000", "134516.433000", "134516.437000", "134516.440000", "134516.443000", "134516.447000", "134516.450000", "134516.454000", "134516.457000", "134516.461000", "134516.464000", "134516.468000", "134516.471000", "134516.474000", "134516.478000", "134516.482000", "134536.413000", "134536.417000", "134536.421000", "134536.424000", "134536.427000", "134536.431000", "134536.434000", "134536.437000", "134536.441000", "134536.444000", "134536.448000", "134536.451000", "134536.454000", "134536.458000", "134536.461000", "134536.465000", "134536.468000", "134536.486000", "134536.490000", "134536.493000", "134556.414000", "134556.418000", "134556.422000", "134556.425000", "134556.428000", "134556.432000", "134556.435000", "134556.439000", "134556.442000", "134556.446000", "134556.449000", "134556.452000", "134556.456000", "134556.459000", "134556.463000", "134556.466000", "134556.469000", "134556.473000", "134556.477000", "134556.481000", "134636.414000", "134636.418000", "134636.422000", "134636.425000", "134636.428000", "134636.432000", "134636.435000", "134636.439000", "134636.442000", "134636.446000", "134636.449000", "134636.453000", "134636.456000", "134636.460000", "134636.463000", "134636.467000", "134636.470000", "134636.474000", "134636.477000", "134636.480000", "134636.484000", "134636.487000", "134636.491000", "134636.494000", "134636.497000", "134636.501000", "134636.504000", "134636.508000", "134636.511000", "134636.515000", "134636.518000", "134716.414000", "134716.418000", "134716.422000", "134716.425000", "134716.429000", "134716.432000", "134716.435000", "134716.439000", "134716.442000", "134716.446000", "134716.449000", "134716.453000", "134716.456000", "134716.460000", "134716.463000", "134716.467000", "134716.470000", "134716.473000", "134716.477000", "134716.480000", "134716.484000", "134716.487000", "134716.490000", "134716.494000", "134716.497000", "134716.501000", "134716.504000", "134756.413000", "134756.417000", "134756.421000", "134756.424000", "134756.428000", "134756.431000", "134756.435000", "134756.438000", "134756.441000", "134756.445000", "134756.448000", "134756.452000", "134756.455000", "134756.459000", "134756.462000", "134756.466000", "134756.469000", "134756.472000", "134756.476000", "134756.479000", "134756.482000", "134756.486000", "134756.489000", "134756.493000", "134756.496000", "134756.500000", "134756.503000", "134836.414000", "134836.418000", "134836.421000", "134836.425000", "134836.428000", "134836.432000", "134836.435000", "134836.439000", "134836.442000", "134836.446000", "134836.449000", "134836.453000", "134836.456000", "134836.460000", "134836.463000", "134836.466000", "134836.470000", "134836.473000", "134836.477000", "134836.480000", "134836.484000", "134836.487000", "134836.491000", "134836.494000", "134836.497000", "134836.501000", "134836.504000", "134916.414000", "134916.418000", "134916.422000", "134916.425000", "134916.429000", "134916.432000", "134916.436000", "134916.440000", "134916.444000", "134916.447000", "134916.451000", "134916.455000", "134916.459000", "134916.462000", "134916.466000", "134916.471000", "134916.474000", "134916.478000", "134916.482000", "134916.501000", "134916.505000", "134916.509000", "134916.512000", "134916.515000", "134916.519000", "134916.522000", "134956.414000", "134956.418000", "134956.422000", "134956.425000", "134956.429000", "134956.432000", "134956.436000", "134956.439000", "134956.443000", "134956.446000", "134956.449000", "134956.453000", "134956.456000", "134956.460000", "134956.463000", "134956.467000", "134956.470000", "134956.474000", "134956.477000", "134956.480000", "134956.484000", "134956.487000", "134956.491000", "134956.494000", "134956.498000", "134956.501000", "134956.505000", "135036.414000", "135036.418000", "135036.421000", "135036.425000", "135036.429000", "135036.432000", "135036.435000", "135036.439000", "135036.442000", "135036.446000", "135036.449000", "135036.453000", "135036.456000", "135036.460000", "135036.463000", "135036.467000", "135036.470000", "135036.473000", "135036.477000", "135036.481000", "135036.484000", "135036.487000", "135036.491000", "135036.494000", "135036.498000", "135036.501000", "135036.505000", "135116.414000", "135116.418000", "135116.422000", "135116.425000", "135116.428000", "135116.432000", "135116.435000", "135116.439000", "135116.442000", "135116.446000", "135116.449000", "135116.453000", "135116.456000", "135116.460000", "135116.463000", "135116.466000", "135116.470000", "135116.473000", "135116.477000", "135116.480000", "135116.484000", "135116.487000", "135116.491000", "135116.494000", "135116.497000", "135116.501000", "135116.504000", "135156.414000", "135156.418000", "135156.422000", "135156.425000", "135156.429000", "135156.432000", "135156.435000", "135156.439000", "135156.442000", "135156.446000", "135156.449000", "135156.453000", "135156.456000", "135156.460000", "135156.463000", "135156.466000", "135156.470000", "135156.473000", "135156.477000", "135156.480000", "135156.484000", "135156.487000", "135156.490000", "135156.494000", "135156.497000", "135156.501000", "135156.504000", "135236.413000", "135236.417000", "135236.421000", "135236.424000", "135236.428000", "135236.431000", "135236.435000", "135236.438000", "135236.442000", "135236.445000", "135236.449000", "135236.452000", "135236.455000", "135236.459000", "135236.462000", "135236.466000", "135236.469000", "135236.473000", "135236.476000", "135236.480000", "135236.483000", "135236.486000", "135236.490000", "135236.493000", "135236.497000", "135236.500000", "135236.503000", "135316.414000", "135316.418000", "135316.422000", "135316.425000", "135316.429000", "135316.432000", "135316.435000", "135316.439000", "135316.442000", "135316.446000", "135316.449000", "135316.453000", "135316.456000", "135316.460000", "135316.463000", "135316.467000", "135316.470000", "135316.473000", "135316.477000", "135316.480000", "135316.484000", "135316.487000", "135316.491000", "135316.494000", "135316.498000", "135316.501000", "135316.504000", "135356.415000", "135356.418000", "135356.422000", "135356.426000", "135356.430000", "135356.434000", "135356.437000", "135356.441000", "135356.444000", "135356.447000", "135356.451000", "135356.454000", "135356.458000", "135356.468000", "135356.472000", "135356.475000", "135356.478000", "135356.482000", "135356.486000", "135356.489000", "135356.492000", "135356.496000", "135356.500000", "135356.503000", "135356.506000", "135356.510000", "135436.413000", "135436.417000", "135436.421000", "135436.424000", "135436.427000", "135436.431000", "135436.434000", "135436.438000", "135436.441000", "135436.445000", "135436.448000", "135436.452000", "135436.455000", "135436.459000", "135436.462000", "135436.465000", "135436.469000", "135436.472000", "135436.476000", "135436.479000", "135436.482000", "135436.486000", "135436.489000", "135436.493000", "135436.496000", "135436.500000", "135436.503000", "135516.416000", "135516.422000", "135516.427000", "135516.431000", "135516.435000", "135516.438000", "135516.442000", "135516.445000", "135516.449000", "135516.452000", "135516.456000", "135516.459000", "135516.463000", "135516.466000", "135516.470000", "135516.473000", "135516.476000", "135516.480000", "135516.483000", "135516.487000", "135516.490000", "135516.494000", "135516.497000", "135516.500000", "135516.504000", "135516.507000", "135516.511000"],
