{
  "AcquisitionMatrixPE": 104,
  "AcquisitionNumber": 1,
  "AcquisitionTime": "13:18:11.652500",
  "BandwidthPerPixelPhaseEncode": 17.17,
  "BaseResolution": 104,
  "BodyPartExamined": "BRAIN",
  "CoilCombinationMethod": "Sum of Squares",
  "ConsistencyInfo": "N4_VE11C_LATEST_20160120",
  "ConversionSoftware": "dcm2niix",
  "ConversionSoftwareVersion": "v1.0.20211006",
  "DerivedVendorReportedEchoSpacing": 0.000560011,
  "DeviceSerialNumber": "167006",
  "DwellTime": 2.1e-06,
  "EchoTime": 0.037,
  "EchoTime1": 0.037,
  "EchoTime2": 0.001,
  "EchoTrainLength": 104,
  "EffectiveEchoSpacing": 0.000560011,
  "FlipAngle": 52,
  "HeudiconvVersion": "0.10.0",
  "ImageComments": "Unaliased MB4/PE3/LB",
  "ImageOrientationPatientDICOM": [0.999132, 0.00778281, 0.0409246, 0.014649, 0.854009, -0.520052],
  "ImageOrientationText": "Tra>Cor(-31.4)>Sag(2.2)",
  "ImageType": [
    "ORIGINAL",
    "PRIMARY",
    "P",
    "MB",
    "ND",
    "MOSAIC",
    "PHASE"
],
  "ImagingFrequency": 123.259,
  "InPlanePhaseEncodingDirectionDICOM": "COL",
  "InstitutionAddress": "Chemin Queen-Mary 4565,Montreal,District,CA,H3W 1W5",
  "InstitutionName": "IUGM",
  "InstitutionalDepartmentName": "Department",
  "MRAcquisitionType": "2D",
  "MagneticFieldStrength": 3,
  "Manufacturer": "Siemens",
  "ManufacturersModelName": "Prisma_fit",
  "MatrixCoilMode": "SENSE",
  "Modality": "MR",
  "MultibandAccelerationFactor": 4,
  "PartialFourier": 1,
  "PatientPosition": "HFS",
  "PercentPhaseFOV": 100,
  "PercentSampling": 100,
  "PhaseEncodingDirection": "j",
  "PhaseEncodingSteps": 104,
  "PhaseResolution": 1,
  "PixelBandwidth": 2290,
  "ProcedureStepDescription": "games^mario",
  "ProtocolName": "func_task-mario_run-01",
  "PulseSequenceDetails": "%CustomerSeq%\\cmrr_mbep2d_bold",
  "ReceiveCoilActiveElements": "HC1-7;NC1,2",
  "ReceiveCoilName": "HeadNeck_64",
  "ReconMatrixPE": 104,
  "RepetitionTime": 1.49,
  "SAR": 0.0637704,
  "ScanOptions": "FS",
  "ScanningSequence": "EP",
  "SequenceName": "epfid2d1_104",
  "SequenceVariant": "SK\\SS",
  "SeriesDescription": "func_task-mario_run-01",
  "SeriesNumber": 11,
  "ShimSetting": [622, -7183, -8850, 257, 2, -174, -40, 14],
  "SliceThickness": 2,
  "SliceTiming": [0, 0.7825, 0.0975, 0.88, 0.195, 0.9775, 0.2925, 1.0775, 0.39, 1.175, 0.4875, 1.2725, 0.5875, 1.37, 0.685, 0, 0.7825, 0.0975, 0.88, 0.195, 0.9775, 0.2925, 1.0775, 0.39, 1.175, 0.4875, 1.2725, 0.5875, 1.37, 0.685, 0, 0.7825, 0.0975, 0.88, 0.195, 0.9775, 0.2925, 1.0775, 0.39, 1.175, 0.4875, 1.2725, 0.5875, 1.37, 0.685, 0, 0.7825, 0.0975, 0.88, 0.195, 0.9775, 0.2925, 1.0775, 0.39, 1.175, 0.4875, 1.2725, 0.5875, 1.37, 0.685],
  "SoftwareVersions": "syngo MR E11",
  "SpacingBetweenSlices": 2,
  "StationName": "MRC35049",
  "TaskName": "mario",
  "TotalReadoutTime": 0.0576811,
  "TxRefAmp": 299.82,
  "WipMemBlock": "19ec9a12-afc6-4403-a20f-77392c0bab6a||Sequence: R016 ve11c/master r/e634e98; Dec 19 2017 11:00:25 by eja",
  "dcmmeta_affine": [
    [-1.9982638359069824, 0.0292980819940567, 0.0779949501156807, 103.65921020507812],
    [-0.015565621666610241, 1.7080185413360596, -1.040399193763733, -48.55835723876953],
    [0.08184926211833954, 1.0401030778884888, 1.7063077688217163, -93.78890228271484],
    [0.0, 0.0, 0.0, 1.0]
],
  "dcmmeta_reorient_transform": [
    [0.0, -1.0, 0.0, 103.0],
    [1.0, 0.0, 0.0, 0.0],
    [0.0, 0.0, 1.0, 0.0],
    [0.0, 0.0, 0.0, 1.0]
],
  "dcmmeta_shape": [104, 104, 60, 469],
  "dcmmeta_slice_dim": 2,
  "dcmmeta_version": 0.6,
  "global": {
    "const": {
      "AcquisitionMatrix": [104, 0, 0, 104],
      "AngioFlag": "N",
      "BitsAllocated": 16,
      "BitsStored": 16,
      "BodyPartExamined": "BRAIN",
      "Columns": 832,
      "EchoNumbers": 1,
      "EchoTime": 37.0,
      "EchoTrainLength": 104,
      "FlipAngle": 52.0,
      "HighBit": 15,
      "ImageOrientationPatient": [0.99913192446149, 0.00778281060283, 0.04092463049305, 0.01464904119746, 0.85400925308609, -0.5200515370955],
      "ImagePositionPatient": [-844.70945928339, -754.75216977971, 362.14610612963],
      "ImageType": [
        "ORIGINAL",
        "PRIMARY",
        "P",
        "MB",
        "ND",
        "MOSAIC"
],
      "ImagedNucleus": "1H",
      "ImagingFrequency": 123.25886,
      "InPlanePhaseEncodingDirection": "COL",
      "LargestImagePixelValue": 4095,
      "MRAcquisitionType": "2D",
      "MagneticFieldStrength": 3.0,
      "Manufacturer": "SIEMENS",
      "ManufacturerModelName": "Prisma_fit",
      "Modality": "MR",
      "NumberOfAverages": 1.0,
      "NumberOfPhaseEncodingSteps": 104,
      "PercentPhaseFieldOfView": 100.0,
      "PercentSampling": 100.0,
      "PerformedProcedureStepStartTime": "120419.839000",
      "PhotometricInterpretation": "MONOCHROME2",
      "PixelBandwidth": 2290.0,
      "PixelRepresentation": 0,
      "PixelSpacing": [2.0, 2.0],
      "ProtocolName": "func_task-mario_run-01",
      "RepetitionTime": 1490.0,
      "RescaleIntercept": -4096.0,
      "RescaleSlope": 2.0,
      "RescaleType": "US",
      "Rows": 832,
      "SAR": 0.0637703584401,
      "SamplesPerPixel": 1,
      "ScanOptions": "FS",
      "ScanningSequence": "EP",
      "SequenceName": "epfid2d1_104",
      "SequenceVariant": [
        "SK",
        "SS"
],
      "SeriesDescription": "func_task-mario_run-01",
      "SeriesNumber": 11,
      "SeriesTime": "131918.904000",
      "SliceLocation": -50.71387790155,
      "SliceThickness": 2.0,
      "SmallestImagePixelValue": 0,
      "SoftwareVersions": "syngo MR E11",
      "SpacingBetweenSlices": 1.9999999749449,
      "SpecificCharacterSet": "ISO_IR 100",
      "StudyID": "1",
      "StudyTime": "120419.752000",
      "TransmitCoilName": "Body",
      "VariableFlipAngleFlag": "N",
      "WindowCenterWidthExplanation": "Algo1",
      "dBdt": 0.0},
    "slices": {}
  },
  "time": {
    "samples": {
      "AcquisitionNumber": [1, 2, 3, 4, 5, 6, 7, 8, 9, 10, 11, 12, 13, 14, 15, 16, 17, 18, 19, 20, 21, 22, 23, 24, 25, 26, 27, 28, 29, 30, 31, 32, 33, 34, 35, 36, 37, 38, 39, 40, 41, 42, 43, 44, 45, 46, 47, 48, 49, 50, 51, 52, 53, 54, 55, 56, 57, 58, 59, 60, 61, 62, 63, 64, 65, 66, 67, 68, 69, 70, 71, 72, 73, 74, 75, 76, 77, 78, 79, 80, 81, 82, 83, 84, 85, 86, 87, 88, 89, 90, 91, 92, 93, 94, 95, 96, 97, 98, 99, 100, 101, 102, 103, 104, 105, 106, 107, 108, 109, 110, 111, 112, 113, 114, 115, 116, 117, 118, 119, 120, 121, 122, 123, 124, 125, 126, 127, 128, 129, 130, 131, 132, 133, 134, 135, 136, 137, 138, 139, 140, 141, 142, 143, 144, 145, 146, 147, 148, 149, 150, 151, 152, 153, 154, 155, 156, 157, 158, 159, 160, 161, 162, 163, 164, 165, 166, 167, 168, 169, 170, 171, 172, 173, 174, 175, 176, 177, 178, 179, 180, 181, 182, 183, 184, 185, 186, 187, 188, 189, 190, 191, 192, 193, 194, 195, 196, 197, 198, 199, 200, 201, 202, 203, 204, 205, 206, 207, 208, 209, 210, 211, 212, 213, 214, 215, 216, 217, 218, 219, 220, 221, 222, 223, 224, 225, 226, 227, 228, 229, 230, 231, 232, 233, 234, 235, 236, 237, 238, 239, 240, 241, 242, 243, 244, 245, 246, 247, 248, 249, 250, 251, 252, 253, 254, 255, 256, 257, 258, 259, 260, 261, 262, 263, 264, 265, 266, 267, 268, 269, 270, 271, 272, 273, 274, 275, 276, 277, 278, 279, 280, 281, 282, 283, 284, 285, 286, 287, 288, 289, 290, 291, 292, 293, 294, 295, 296, 297, 298, 299, 300, 301, 302, 303, 304, 305, 306, 307, 308, 309, 310, 311, 312, 313, 314, 315, 316, 317, 318, 319, 320, 321, 322, 323, 324, 325, 326, 327, 328, 329, 330, 331, 332, 333, 334, 335, 336, 337, 338, 339, 340, 341, 342, 343, 344, 345, 346, 347, 348, 349, 350, 351, 352, 353, 354, 355, 356, 357, 358, 359, 360, 361, 362, 363, 364, 365, 366, 367, 368, 369, 370, 371, 372, 373, 374, 375, 376, 377, 378, 379, 380, 381, 382, 383, 384, 385, 386, 387, 388, 389, 390, 391, 392, 393, 394, 395, 396, 397, 398, 399, 400, 401, 402, 403, 404, 405, 406, 407, 408, 409, 410, 411, 412, 413, 414, 415, 416, 417, 418, 419, 420, 421, 422, 423, 424, 425, 426, 427, 428, 429, 430, 431, 432, 433, 434, 435, 436, 437, 438, 439, 440, 441, 442, 443, 444, 445, 446, 447, 448, 449, 450, 451, 452, 453, 454, 455, 456, 457, 458, 459, 460, 461, 462, 463, 464, 465, 466, 467, 468, 469],
      "AcquisitionTime": ["131811.652500", "131813.142500", "131814.632500", "131816.122500", "131817.612500", "131819.102500", "131820.592500", "131822.082500", "131823.572500", "131825.062500", "131826.552500", "131828.042500", "131829.532500", "131831.022500", "131832.512500", "131834.002500", "131835.492500", "131836.982500", "131838.472500", "131839.962500", "131841.452500", "131842.942500", "131844.432500", "131845.922500", "131847.412500", "131848.902500", "131850.392500", "131851.882500", "131853.372500", "131854.862500", "131856.352500", "131857.842500", "131859.332500", "131900.822500", "131902.312500", "131903.802500", "131905.292500", "131906.782500", "131908.272500", "131909.762500", "131911.252500", "131912.742500", "131914.232500", "131915.722500", "131917.212500", "131918.702500", "131920.192500", "131921.682500", "131923.172500", "131924.662500", "131926.152500", "131927.642500", "131929.132500", "131930.622500", "131932.112500", "131933.602500", "131935.092500", "131936.582500", "131938.072500", "131939.562500", "131941.052500", "131942.542500", "131944.032500", "131945.522500", "131947.012500", "131948.502500", "131949.992500", "131951.482500", "131952.972500", "131954.462500", "131955.952500", "131957.442500", "131958.932500", "132000.422500", "132001.912500", "132003.402500", "132004.892500", "132006.382500", "132007.872500", "132009.362500", "132010.852500", "132012.342500", "132013.832500", "132015.322500", "132016.812500", "132018.302500", "132019.792500", "132021.282500", "132022.772500", "132024.262500", "132025.752500", "132027.242500", "132028.732500", "132030.222500", "132031.712500", "132033.202500", "132034.692500", "132036.182500", "132037.672500", "132039.162500", "132040.652500", "132042.142500", "132043.632500", "132045.122500", "132046.612500", "132048.102500", "132049.592500", "132051.082500", "132052.572500", "132054.062500", "132055.552500", "132057.042500", "132058.532500", "132100.022500", "132101.512500", "132103.002500", "132104.492500", "132105.982500", "132107.472500", "132108.962500", "132110.452500", "132111.942500", "132113.432500", "132114.922500", "132116.412500", "132117.902500", "132119.392500", "132120.882500", "132122.372500", "132123.862500", "132125.352500", "132126.842500", "132128.332500", "132129.822500", "132131.312500", "132132.802500", "132134.292500", "132135.782500", "132137.272500", "132138.762500", "132140.252500", "132141.742500", "132143.232500", "132144.722500", "132146.212500", "132147.702500", "132149.192500", "132150.682500", "132152.172500", "132153.662500", "132155.152500", "132156.642500", "132158.132500", "132159.622500", "132201.112500", "132202.602500", "132204.092500", "132205.582500", "132207.072500", "132208.562500", "132210.052500", "132211.542500", "132213.032500", "132214.522500", "132216.012500", "132217.502500", "132218.992500", "132220.482500", "132221.972500", "132223.462500", "132224.952500", "132226.442500", "132227.932500", "132229.422500", "132230.912500", "132232.402500", "132233.892500", "132235.382500", "132236.872500", "132238.362500", "132239.852500", "132241.342500", "132242.832500", "132244.322500", "132245.812500", "132247.302500", "132248.792500", "132250.282500", "132251.772500", "132253.262500", "132254.752500", "132256.242500", "132257.732500", "132259.222500", "132300.712500", "132302.202500", "132303.692500", "132305.182500", "132306.672500", "132308.162500", "132309.652500", "132311.142500", "132312.632500", "132314.122500", "132315.612500", "132317.102500", "132318.592500", "132320.082500", "132321.572500", "132323.062500", "132324.552500", "132326.042500", "132327.532500", "132329.022500", "132330.512500", "132332.002500", "132333.492500", "132334.982500", "132336.472500", "132337.962500", "132339.452500", "132340.942500", "132342.432500", "132343.922500", "132345.412500", "132346.902500", "132348.392500", "132349.882500", "132351.372500", "132352.862500", "132354.352500", "132355.842500", "132357.332500", "132358.822500", "132400.312500", "132401.802500", "132403.292500", "132404.782500", "132406.272500", "132407.762500", "132409.252500", "132410.742500", "132412.232500", "132413.722500", "132415.212500", "132416.702500", "132418.192500", "132419.682500", "132421.172500", "132422.662500", "132424.152500", "132425.642500", "132427.132500", "132428.622500", "132430.112500", "132431.602500", "132433.092500", "132434.582500", "132436.072500", "132437.562500", "132439.052500", "132440.542500", "132442.032500", "132443.522500", "132445.012500", "132446.502500", "132447.992500", "132449.482500", "132450.972500", "132452.462500", "132453.952500", "132455.442500", "132456.932500", "132458.422500", "132459.912500", "132501.402500", "132502.892500", "132504.382500", "132505.872500", "132507.362500", "132508.852500", "132510.342500", "132511.832500", "132513.322500", "132514.812500", "132516.302500", "132517.792500", "132519.282500", "132520.772500", "132522.262500", "132523.752500", "132525.242500", "132526.732500", "132528.222500", "132529.712500", "132531.202500", "132532.692500", "132534.182500", "132535.672500", "132537.162500", "132538.652500", "132540.142500", "132541.632500", "132543.122500", "132544.612500", "132546.102500", "132547.592500", "132549.082500", "132550.572500", "132552.062500", "132553.552500", "132555.042500", "132556.532500", "132558.022500", "132559.512500", "132601.002500", "132602.492500", "132603.982500", "132605.472500", "132606.962500", "132608.452500", "132609.942500", "132611.432500", "132612.922500", "132614.412500", "132615.902500", "132617.392500", "132618.882500", "132620.372500", "132621.862500", "132623.352500", "132624.842500", "132626.332500", "132627.822500", "132629.312500", "132630.802500", "132632.292500", "132633.782500", "132635.272500", "132636.762500", "132638.252500", "132639.742500", "132641.232500", "132642.722500", "132644.212500", "132645.702500", "132647.192500", "132648.682500", "132650.172500", "132651.662500", "132653.152500", "132654.642500", "132656.132500", "132657.622500", "132659.112500", "132700.602500", "132702.092500", "132703.582500", "132705.072500", "132706.562500", "132708.052500", "132709.542500", "132711.032500", "132712.522500", "132714.012500", "132715.502500", "132716.992500", "132718.482500", "132719.972500", "132721.462500", "132722.952500", "132724.442500", "132725.932500", "132727.422500", "132728.912500", "132730.402500", "132731.892500", "132733.382500", "132734.872500", "132736.362500", "132737.852500", "132739.342500", "132740.832500", "132742.322500", "132743.812500", "132745.302500", "132746.792500", "132748.282500", "132749.772500", "132751.262500", "132752.752500", "132754.242500", "132755.732500", "132757.222500", "132758.712500", "132800.202500", "132801.692500", "132803.182500", "132804.672500", "132806.162500", "132807.652500", "132809.142500", "132810.632500", "132812.122500", "132813.612500", "132815.102500", "132816.592500", "132818.082500", "132819.572500", "132821.062500", "132822.552500", "132824.042500", "132825.532500", "132827.022500", "132828.512500", "132830.002500", "132831.492500", "132832.982500", "132834.472500", "132835.962500", "132837.452500", "132838.942500", "132840.432500", "132841.922500", "132843.412500", "132844.902500", "132846.392500", "132847.882500", "132849.372500", "132850.862500", "132852.352500", "132853.842500", "132855.332500", "132856.822500", "132858.312500", "132859.802500", "132901.292500", "132902.782500", "132904.272500", "132905.762500", "132907.252500", "132908.742500", "132910.232500", "132911.722500", "132913.212500", "132914.702500", "132916.192500", "132917.682500", "132919.172500", "132920.662500", "132922.152500", "132923.642500", "132925.132500", "132926.622500", "132928.112500", "132929.602500", "132931.092500", "132932.582500", "132934.072500", "132935.562500", "132937.052500", "132938.542500", "132940.032500", "132941.522500", "132943.012500", "132944.502500", "132945.992500", "132947.482500", "132948.972500"],
      "ContentTime": ["131918.906000", "131918.909000", "131918.912000", "131918.915000", "131918.917000", "131918.920000", "131918.922000", "131918.925000", "131918.928000", "131918.930000", "131918.933000", "131918.935000", "131918.938000", "131938.909000", "131938.912000", "131938.915000", "131938.917000", "131938.920000", "131938.922000", "131938.925000", "131938.928000", "131938.930000", "131938.933000", "131938.935000", "131938.938000", "131938.941000", "131938.943000", "131938.946000", "131938.948000", "131938.951000", "131938.954000", "131938.956000", "131938.959000", "131958.902000", "131958.905000", "131958.908000", "131958.910000", "131958.913000", "131958.916000", "131958.918000", "131958.921000", "131958.923000", "131958.926000", "131958.928000", "131958.931000", "131958.934000", "131958.936000", "131958.939000", "131958.942000", "131958.944000", "131958.947000", "131958.949000", "131958.952000", "132018.925000", "132018.928000", "132018.931000", "132018.934000", "132018.936000", "132018.939000", "132018.942000", "132018.944000", "132018.947000", "132018.950000", "132018.952000", "132018.955000", "132018.958000", "132018.960000", "132018.964000", "132018.968000", "132018.970000", "132018.973000", "132018.976000", "132018.979000", "132038.924000", "132038.927000", "132038.934000", "132038.937000", "132038.939000", "132038.942000", "132038.945000", "132038.947000", "132038.950000", "132038.952000", "132038.955000", "132038.957000", "132038.960000", "132038.963000", "132038.965000", "132038.968000", "132038.970000", "132038.973000", "132038.976000", "132038.978000", "132038.981000", "132119.623000", "132119.626000", "132119.629000", "132119.631000", "132119.634000", "132119.636000", "132119.639000", "132119.642000", "132119.644000", "132119.647000", "132119.650000", "132119.652000", "132119.655000", "132119.658000", "132119.661000", "132119.664000", "132119.667000", "132119.669000", "132119.673000", "132119.676000", "132119.679000", "132119.682000", "132119.686000", "132119.689000", "132119.692000", "132119.695000", "132119.698000", "132119.700000", "132119.703000", "132119.705000", "132119.708000", "132158.957000", "132158.960000", "132158.963000", "132158.965000", "132158.968000", "132158.970000", "132158.973000", "132158.976000", "132158.978000", "132158.981000", "132158.983000", "132158.986000", "132158.989000", "132158.991000", "132158.994000", "132158.996000", "132159.000000", "132159.003000", "132159.005000", "132159.008000", "132159.011000", "132159.013000", "132159.016000", "132159.019000", "132159.021000", "132159.024000", "132159.027000", "132238.926000", "132238.929000", "132238.931000", "132238.934000", "132238.937000", "132238.939000", "132238.942000", "132238.944000", "132238.947000", "132238.950000", "132238.952000", "132238.955000", "132238.957000", "132238.960000", "132238.963000", "132238.965000", "132238.968000", "132238.970000", "132238.973000", "132238.976000", "132238.978000", "132238.981000", "132238.984000", "132238.986000", "132238.989000", "132238.991000", "132238.994000", "132318.989000", "132318.992000", "132318.995000", "132318.997000", "132319.001000", "132319.011000", "132319.014000", "132319.016000", "132319.019000", "132319.022000", "132319.024000", "132319.027000", "132319.029000", "132319.032000", "132319.035000", "132319.038000", "132319.041000", "132319.044000", "132319.046000", "132319.049000", "132319.051000", "132319.054000", "132319.057000", "132319.059000", "132319.062000", "132319.065000", "132358.940000", "132358.943000", "132358.945000", "132358.948000", "132358.951000", "132358.953000", "132358.956000", "132358.958000", "132358.961000", "132358.964000", "132358.967000", "132358.969000", "132358.972000", "132358.975000", "132358.977000", "132358.980000", "132358.983000", "132358.985000", "132358.988000", "132358.990000", "132358.993000", "132358.996000", "132358.998000", "132359.002000", "132359.004000", "132359.007000", "132359.010000", "132438.931000", "132438.934000", "132438.937000", "132438.939000", "132438.942000", "132438.944000", "132438.947000", "132438.950000", "132438.952000", "132438.955000", "132438.957000", "132438.960000", "132438.963000", "132438.965000", "132438.968000", "132438.970000", "132438.973000", "132438.976000", "132438.978000", "132438.981000", "132438.984000", "132438.986000", "132438.989000", "132438.991000", "132438.994000", "132438.997000", "132438.999000", "132518.939000", "132518.942000", "132518.945000", "132518.947000", "132518.950000", "132518.952000", "132518.955000", "132518.958000", "132518.960000", "132518.963000", "132518.965000", "132518.968000", "132518.971000", "132518.973000", "132518.976000", "132518.978000", "132518.981000", "132518.984000", "132518.986000", "132518.989000", "132518.992000", "132518.995000", "132518.997000", "132519.001000", "132519.004000", "132519.006000", "132519.009000", "132559.112000", "132559.115000", "132559.123000", "132559.125000", "132559.128000", "132559.130000", "132559.133000", "132559.136000", "132559.138000", "132559.141000", "132559.144000", "132559.146000", "132559.149000", "132559.151000", "132559.161000", "132559.163000", "132559.166000", "132559.168000", "132559.171000", "132559.174000", "132559.176000", "132559.179000", "132559.182000", "132559.184000", "132559.187000", "132559.189000", "132559.192000", "132638.927000", "132638.929000", "132638.932000", "132638.935000", "132638.937000", "132638.940000", "132638.943000", "132638.945000", "132638.948000", "132638.950000", "132638.953000", "132638.956000", "132638.958000", "132638.961000", "132638.963000", "132638.966000", "132638.969000", "132638.971000", "132638.974000", "132638.977000", "132638.979000", "132638.982000", "132638.984000", "132638.987000", "132638.990000", "132638.992000", "132638.995000", "132718.919000", "132718.922000", "132718.925000", "132718.927000", "132718.930000", "132718.932000", "132718.935000", "132718.938000", "132718.940000", "132718.943000", "132718.946000", "132718.948000", "132718.951000", "132718.953000", "132718.956000", "132718.959000", "132718.961000", "132718.964000", "132718.966000", "132718.969000", "132718.972000", "132718.974000", "132718.977000", "132718.979000", "132718.982000", "132718.985000", "132758.910000", "132758.913000", "132758.916000", "132758.918000", "132758.921000", "132758.923000", "132758.926000", "132758.929000", "132758.931000", "132758.934000", "132758.937000", "132758.940000", "132758.942000", "132758.945000", "132758.947000", "132758.950000", "132758.953000", "132758.955000", "132758.958000", "132758.961000", "132758.963000", "132758.966000", "132758.969000", "132758.971000", "132758.974000", "132758.976000", "132758.979000", "132838.935000", "132838.937000", "132838.940000", "132838.943000", "132838.945000", "132838.948000", "132838.950000", "132838.953000", "132838.956000", "132838.958000", "132838.961000", "132838.963000", "132838.966000", "132838.969000", "132838.971000", "132838.974000", "132838.976000", "132838.979000", "132838.981000", "132838.984000", "132838.987000", "132838.989000", "132838.992000", "132838.994000", "132838.997000", "132839.001000", "132839.003000", "132918.932000", "132918.935000", "132918.938000", "132918.941000", "132918.943000", "132918.946000", "132918.948000", "132918.951000", "132918.954000", "132918.956000", "132918.959000", "132918.961000", "132918.964000", "132918.967000", "132918.969000", "132918.972000", "132918.974000", "132918.977000", "132918.980000", "132918.982000", "132918.985000", "132918.987000", "132918.990000", "132918.993000", "132918.995000", "132918.998000", "132919.001000", "132951.377000", "132951.380000", "132951.382000", "132951.385000", "132951.388000", "132951.390000", "132951.393000", "132951.396000", "132951.398000", "132951.401000", "132951.404000", "132951.407000", "132951.409000", "132951.412000", "132951.414000", "132951.417000", "132951.420000", "132951.422000", "132951.425000", "132951.428000", "132951.430000", "132951.433000"],
