{
  "AcquisitionMatrixPE": 104,
  "AcquisitionNumber": 1,
  "AcquisitionTime": "17:30:3.512500",
  "BandwidthPerPixelPhaseEncode": 17.17,
  "BaseResolution": 104,
  "BodyPartExamined": "BRAIN",
  "CoilCombinationMethod": "Sum of Squares",
  "ConsistencyInfo": "N4_VE11C_LATEST_20160120",
  "ConversionSoftware": "dcm2niix",
  "ConversionSoftwareVersion": "v1.0.20211006",
  "DerivedVendorReportedEchoSpacing": 0.000560011,
  "DeviceSerialNumber": "167006",
  "DwellTime": 2.1e-06,
  "EchoTime": 0.037,
  "EchoTime1": 0.037,
  "EchoTime2": 0.001,
  "EchoTrainLength": 104,
  "EffectiveEchoSpacing": 0.000560011,
  "FlipAngle": 52,
  "HeudiconvVersion": "0.5.3.post569+g418601f",
  "ImageComments": "Unaliased MB4/PE3/LB",
  "ImageOrientationPatientDICOM": [0.99979, -0.0143606, 0.0145977, 0.0186733, 0.931946, -0.362115],
  "ImageOrientationText": "Tra>Cor(-21.2)>Sag(0.5)",
  "ImageType": [
    "ORIGINAL",
    "PRIMARY",
    "P",
    "MB",
    "ND",
    "MOSAIC",
    "PHASE"
],
  "ImagingFrequency": 123.259,
  "InPlanePhaseEncodingDirectionDICOM": "COL",
  "InstitutionAddress": "Chemin Queen-Mary 4565,Montreal,District,CA,H3W 1W5",
  "InstitutionName": "IUGM",
  "InstitutionalDepartmentName": "Department",
  "MRAcquisitionType": "2D",
  "MagneticFieldStrength": 3,
  "Manufacturer": "Siemens",
  "ManufacturersModelName": "Prisma_fit",
  "MatrixCoilMode": "SENSE",
  "Modality": "MR",
  "MultibandAccelerationFactor": 4,
  "PartialFourier": 1,
  "PatientPosition": "HFS",
  "PercentPhaseFOV": 100,
  "PercentSampling": 100,
  "PhaseEncodingDirection": "j",
  "PhaseEncodingSteps": 104,
  "PhaseResolution": 1,
  "PixelBandwidth": 2290,
  "ProcedureStepDescription": "games^mario",
  "ProtocolName": "func_task-mario_run-05",
  "PulseSequenceDetails": "%CustomerSeq%\\cmrr_mbep2d_bold",
  "ReceiveCoilActiveElements": "HC1-7;NC1,2",
  "ReceiveCoilName": "HeadNeck_64",
  "ReconMatrixPE": 104,
  "RepetitionTime": 1.49,
  "SAR": 0.0521166,
  "ScanOptions": "FS",
  "ScanningSequence": "EP",
  "SequenceName": "epfid2d1_104",
  "SequenceVariant": "SK\\SS",
  "SeriesDescription": "func_task-mario_run-05",
  "SeriesNumber": 23,
  "ShimSetting": [604, -7265, -8822, 369, -17, -335, 25, 39],
  "SliceThickness": 2,
  "SliceTiming": [0, 0.785, 0.0975, 0.8825, 0.1975, 0.98, 0.295, 1.0775, 0.3925, 1.1775, 0.49, 1.275, 0.5875, 1.3725, 0.6875, 0, 0.785, 0.0975, 0.8825, 0.1975, 0.98, 0.295, 1.0775, 0.3925, 1.1775, 0.49, 1.275, 0.5875, 1.3725, 0.6875, 0, 0.785, 0.0975, 0.8825, 0.1975, 0.98, 0.295, 1.0775, 0.3925, 1.1775, 0.49, 1.275, 0.5875, 1.3725, 0.6875, 0, 0.785, 0.0975, 0.8825, 0.1975, 0.98, 0.295, 1.0775, 0.3925, 1.1775, 0.49, 1.275, 0.5875, 1.3725, 0.6875],
  "SoftwareVersions": "syngo MR E11",
  "SpacingBetweenSlices": 2,
  "StationName": "MRC35049",
  "TaskName": "mario",
  "TotalReadoutTime": 0.0576811,
  "TxRefAmp": 270.581,
  "WipMemBlock": "dc241899-cd8d-4451-9260-05fb5a0833ee||Sequence: R016 ve11c/master r/e634e98; Dec 19 2017 11:00:25 by eja",
  "dcmmeta_affine": [
    [-1.9995806217193604, 0.03734656795859337, 0.016808195039629936, 102.09883117675781],
    [0.028721211478114128, 1.8638925552368164, -0.7246237397193909, -64.01957702636719],
    [0.02919543907046318, 0.7242303490638733, 1.864038109779358, -63.546077728271484],
    [0.0, 0.0, 0.0, 1.0]
],
  "dcmmeta_reorient_transform": [
    [0.0, -1.0, 0.0, 103.0],
    [1.0, 0.0, 0.0, 0.0],
    [0.0, 0.0, 1.0, 0.0],
    [0.0, 0.0, 0.0, 1.0]
],
  "dcmmeta_shape": [104, 104, 60, 471],
  "dcmmeta_slice_dim": 2,
  "dcmmeta_version": 0.6,
  "global": {
    "const": {
      "AcquisitionMatrix": [104, 0, 0, 104],
      "AngioFlag": "N",
      "BitsAllocated": 16,
      "BitsStored": 16,
      "BodyPartExamined": "BRAIN",
      "Columns": 832,
      "EchoNumbers": 1,
      "EchoTime": 37.0,
      "EchoTrainLength": 104,
      "FlipAngle": 52.0,
      "HighBit": 15,
      "ImageOrientationPatient": [0.99979031781325, -0.0143606058918, 0.01459771918147, 0.01867328474854, 0.93194629644197, -0.3621151874539],
      "ImagePositionPatient": [-847.38702709526, -795.96374616735, 264.0423686094],
      "ImageType": [
        "ORIGINAL",
        "PRIMARY",
        "P",
        "MB",
        "ND",
        "MOSAIC"
],
      "ImagedNucleus": "1H",
      "ImagingFrequency": 123.258792,
      "InPlanePhaseEncodingDirection": "COL",
      "LargestImagePixelValue": 4095,
      "MRAcquisitionType": "2D",
      "MagneticFieldStrength": 3.0,
      "Manufacturer": "SIEMENS",
      "ManufacturerModelName": "Prisma_fit",
      "Modality": "MR",
      "NumberOfAverages": 1.0,
      "NumberOfPhaseEncodingSteps": 104,
      "PercentPhaseFieldOfView": 100.0,
      "PercentSampling": 100.0,
      "PerformedProcedureStepStartTime": "163253.085000",
      "PhotometricInterpretation": "MONOCHROME2",
      "PixelBandwidth": 2290.0,
      "PixelRepresentation": 0,
      "PixelSpacing": [2.0, 2.0],
      "ProtocolName": "func_task-mario_run-05",
      "RepetitionTime": 1490.0,
      "RescaleIntercept": -4096.0,
      "RescaleSlope": 2.0,
      "RescaleType": "US",
      "Rows": 832,
      "SAR": 0.05211657638203,
      "SamplesPerPixel": 1,
      "ScanOptions": "FS",
      "ScanningSequence": "EP",
      "SequenceName": "epfid2d1_104",
      "SequenceVariant": [
        "SK",
        "SS"
],
      "SeriesDescription": "func_task-mario_run-05",
      "SeriesNumber": 23,
      "SeriesTime": "173136.016000",
      "SliceLocation": -35.173055508496,
      "SliceThickness": 2.0,
      "SmallestImagePixelValue": 0,
      "SoftwareVersions": "syngo MR E11",
      "SpacingBetweenSlices": 2.0000000668345,
      "SpecificCharacterSet": "ISO_IR 100",
      "StudyID": "1",
      "StudyTime": "163253.021000",
      "TransmitCoilName": "Body",
      "VariableFlipAngleFlag": "N",
      "WindowCenterWidthExplanation": "Algo1",
      "dBdt": 0.0},
    "slices": {}
  },
  "time": {
    "samples": {
      "AcquisitionNumber": [1, 2, 3, 4, 5, 6, 7, 8, 9, 10, 11, 12, 13, 14, 15, 16, 17, 18, 19, 20, 21, 22, 23, 24, 25, 26, 27, 28, 29, 30, 31, 32, 33, 34, 35, 36, 37, 38, 39, 40, 41, 42, 43, 44, 45, 46, 47, 48, 49, 50, 51, 52, 53, 54, 55, 56, 57, 58, 59, 60, 61, 62, 63, 64, 65, 66, 67, 68, 69, 70, 71, 72, 73, 74, 75, 76, 77, 78, 79, 80, 81, 82, 83, 84, 85, 86, 87, 88, 89, 90, 91, 92, 93, 94, 95, 96, 97, 98, 99, 100, 101, 102, 103, 104, 105, 106, 107, 108, 109, 110, 111, 112, 113, 114, 115, 116, 117, 118, 119, 120, 121, 122, 123, 124, 125, 126, 127, 128, 129, 130, 131, 132, 133, 134, 135, 136, 137, 138, 139, 140, 141, 142, 143, 144, 145, 146, 147, 148, 149, 150, 151, 152, 153, 154, 155, 156, 157, 158, 159, 160, 161, 162, 163, 164, 165, 166, 167, 168, 169, 170, 171, 172, 173, 174, 175, 176, 177, 178, 179, 180, 181, 182, 183, 184, 185, 186, 187, 188, 189, 190, 191, 192, 193, 194, 195, 196, 197, 198, 199, 200, 201, 202, 203, 204, 205, 206, 207, 208, 209, 210, 211, 212, 213, 214, 215, 216, 217, 218, 219, 220, 221, 222, 223, 224, 225, 226, 227, 228, 229, 230, 231, 232, 233, 234, 235, 236, 237, 238, 239, 240, 241, 242, 243, 244, 245, 246, 247, 248, 249, 250, 251, 252, 253, 254, 255, 256, 257, 258, 259, 260, 261, 262, 263, 264, 265, 266, 267, 268, 269, 270, 271, 272, 273, 274, 275, 276, 277, 278, 279, 280, 281, 282, 283, 284, 285, 286, 287, 288, 289, 290, 291, 292, 293, 294, 295, 296, 297, 298, 299, 300, 301, 302, 303, 304, 305, 306, 307, 308, 309, 310, 311, 312, 313, 314, 315, 316, 317, 318, 319, 320, 321, 322, 323, 324, 325, 326, 327, 328, 329, 330, 331, 332, 333, 334, 335, 336, 337, 338, 339, 340, 341, 342, 343, 344, 345, 346, 347, 348, 349, 350, 351, 352, 353, 354, 355, 356, 357, 358, 359, 360, 361, 362, 363, 364, 365, 366, 367, 368, 369, 370, 371, 372, 373, 374, 375, 376, 377, 378, 379, 380, 381, 382, 383, 384, 385, 386, 387, 388, 389, 390, 391, 392, 393, 394, 395, 396, 397, 398, 399, 400, 401, 402, 403, 404, 405, 406, 407, 408, 409, 410, 411, 412, 413, 414, 415, 416, 417, 418, 419, 420, 421, 422, 423, 424, 425, 426, 427, 428, 429, 430, 431, 432, 433, 434, 435, 436, 437, 438, 439, 440, 441, 442, 443, 444, 445, 446, 447, 448, 449, 450, 451, 452, 453, 454, 455, 456, 457, 458, 459, 460, 461, 462, 463, 464, 465, 466, 467, 468, 469, 470, 471],
      "AcquisitionTime": ["173003.512500", "173005.002500", "173006.492500", "173007.982500", "173009.472500", "173010.962500", "173012.452500", "173013.942500", "173015.432500", "173016.922500", "173018.412500", "173019.902500", "173021.392500", "173022.882500", "173024.372500", "173025.862500", "173027.352500", "173028.842500", "173030.332500", "173031.822500", "173033.312500", "173034.802500", "173036.292500", "173037.782500", "173039.272500", "173040.762500", "173042.252500", "173043.742500", "173045.232500", "173046.722500", "173048.212500", "173049.702500", "173051.192500", "173052.682500", "173054.172500", "173055.662500", "173057.152500", "173058.642500", "173100.132500", "173101.622500", "173103.112500", "173104.602500", "173106.092500", "173107.582500", "173109.072500", "173110.562500", "173112.052500", "173113.542500", "173115.032500", "173116.522500", "173118.012500", "173119.502500", "173120.992500", "173122.482500", "173123.972500", "173125.462500", "173126.952500", "173128.442500", "173129.932500", "173131.422500", "173132.912500", "173134.402500", "173135.892500", "173137.382500", "173138.872500", "173140.362500", "173141.852500", "173143.342500", "173144.832500", "173146.322500", "173147.812500", "173149.302500", "173150.792500", "173152.282500", "173153.772500", "173155.262500", "173156.752500", "173158.242500", "173159.732500", "173201.222500", "173202.712500", "173204.202500", "173205.692500", "173207.182500", "173208.672500", "173210.162500", "173211.652500", "173213.142500", "173214.632500", "173216.122500", "173217.612500", "173219.102500", "173220.592500", "173222.082500", "173223.572500", "173225.062500", "173226.552500", "173228.042500", "173229.532500", "173231.022500", "173232.512500", "173234.002500", "173235.492500", "173236.982500", "173238.472500", "173239.962500", "173241.452500", "173242.942500", "173244.432500", "173245.922500", "173247.412500", "173248.902500", "173250.392500", "173251.882500", "173253.372500", "173254.862500", "173256.352500", "173257.842500", "173259.332500", "173300.822500", "173302.312500", "173303.802500", "173305.292500", "173306.782500", "173308.272500", "173309.762500", "173311.252500", "173312.742500", "173314.232500", "173315.722500", "173317.212500", "173318.702500", "173320.192500", "173321.682500", "173323.172500", "173324.662500", "173326.152500", "173327.642500", "173329.132500", "173330.622500", "173332.112500", "173333.602500", "173335.092500", "173336.582500", "173338.072500", "173339.562500", "173341.052500", "173342.542500", "173344.032500", "173345.522500", "173347.012500", "173348.502500", "173349.992500", "173351.482500", "173352.972500", "173354.462500", "173355.952500", "173357.442500", "173358.932500", "173400.422500", "173401.912500", "173403.402500", "173404.892500", "173406.382500", "173407.872500", "173409.362500", "173410.852500", "173412.342500", "173413.832500", "173415.322500", "173416.812500", "173418.302500", "173419.792500", "173421.282500", "173422.772500", "173424.262500", "173425.752500", "173427.242500", "173428.732500", "173430.222500", "173431.712500", "173433.202500", "173434.692500", "173436.182500", "173437.672500", "173439.162500", "173440.652500", "173442.142500", "173443.632500", "173445.122500", "173446.612500", "173448.102500", "173449.592500", "173451.082500", "173452.572500", "173454.062500", "173455.552500", "173457.042500", "173458.532500", "173500.022500", "173501.512500", "173503.002500", "173504.492500", "173505.982500", "173507.472500", "173508.962500", "173510.452500", "173511.942500", "173513.432500", "173514.922500", "173516.412500", "173517.902500", "173519.392500", "173520.882500", "173522.372500", "173523.862500", "173525.352500", "173526.842500", "173528.332500", "173529.822500", "173531.312500", "173532.802500", "173534.292500", "173535.782500", "173537.272500", "173538.762500", "173540.252500", "173541.742500", "173543.232500", "173544.722500", "173546.212500", "173547.702500", "173549.192500", "173550.682500", "173552.172500", "173553.662500", "173555.152500", "173556.642500", "173558.132500", "173559.622500", "173601.112500", "173602.602500", "173604.092500", "173605.582500", "173607.072500", "173608.562500", "173610.052500", "173611.542500", "173613.032500", "173614.522500", "173616.012500", "173617.502500", "173618.992500", "173620.482500", "173621.972500", "173623.462500", "173624.952500", "173626.442500", "173627.932500", "173629.422500", "173630.912500", "173632.402500", "173633.892500", "173635.382500", "173636.872500", "173638.362500", "173639.852500", "173641.342500", "173642.832500", "173644.322500", "173645.812500", "173647.302500", "173648.792500", "173650.282500", "173651.772500", "173653.262500", "173654.752500", "173656.242500", "173657.732500", "173659.222500", "173700.712500", "173702.202500", "173703.692500", "173705.182500", "173706.672500", "173708.162500", "173709.652500", "173711.142500", "173712.632500", "173714.122500", "173715.612500", "173717.102500", "173718.592500", "173720.082500", "173721.572500", "173723.062500", "173724.552500", "173726.042500", "173727.532500", "173729.022500", "173730.512500", "173732.002500", "173733.492500", "173734.982500", "173736.472500", "173737.962500", "173739.452500", "173740.942500", "173742.432500", "173743.922500", "173745.412500", "173746.902500", "173748.392500", "173749.882500", "173751.372500", "173752.862500", "173754.352500", "173755.842500", "173757.332500", "173758.822500", "173800.312500", "173801.802500", "173803.292500", "173804.782500", "173806.272500", "173807.762500", "173809.252500", "173810.742500", "173812.232500", "173813.722500", "173815.212500", "173816.702500", "173818.192500", "173819.682500", "173821.172500", "173822.662500", "173824.152500", "173825.642500", "173827.132500", "173828.622500", "173830.112500", "173831.602500", "173833.092500", "173834.582500", "173836.072500", "173837.562500", "173839.052500", "173840.542500", "173842.032500", "173843.522500", "173845.012500", "173846.502500", "173847.992500", "173849.482500", "173850.972500", "173852.462500", "173853.952500", "173855.442500", "173856.932500", "173858.422500", "173859.912500", "173901.402500", "173902.892500", "173904.382500", "173905.872500", "173907.362500", "173908.852500", "173910.342500", "173911.832500", "173913.322500", "173914.812500", "173916.302500", "173917.792500", "173919.282500", "173920.772500", "173922.262500", "173923.752500", "173925.242500", "173926.732500", "173928.222500", "173929.712500", "173931.202500", "173932.692500", "173934.182500", "173935.672500", "173937.162500", "173938.652500", "173940.142500", "173941.632500", "173943.122500", "173944.612500", "173946.102500", "173947.592500", "173949.082500", "173950.572500", "173952.062500", "173953.552500", "173955.042500", "173956.532500", "173958.022500", "173959.512500", "174001.002500", "174002.492500", "174003.982500", "174005.472500", "174006.962500", "174008.452500", "174009.942500", "174011.432500", "174012.922500", "174014.412500", "174015.902500", "174017.392500", "174018.882500", "174020.372500", "174021.862500", "174023.352500", "174024.842500", "174026.332500", "174027.822500", "174029.312500", "174030.802500", "174032.292500", "174033.782500", "174035.272500", "174036.762500", "174038.252500", "174039.742500", "174041.232500", "174042.722500", "174044.212500", "174045.702500", "174047.192500", "174048.682500", "174050.172500", "174051.662500", "174053.152500", "174054.642500", "174056.132500", "174057.622500", "174059.112500", "174100.602500", "174102.092500", "174103.582500", "174105.072500", "174106.562500", "174108.052500", "174109.542500", "174111.032500", "174112.522500", "174114.012500", "174115.502500", "174116.992500", "174118.482500", "174119.972500", "174121.462500", "174122.952500", "174124.442500", "174125.932500", "174127.422500", "174128.912500", "174130.402500", "174131.892500", "174133.382500", "174134.872500", "174136.362500", "174137.852500", "174139.342500", "174140.832500", "174142.322500", "174143.812500"],
      "ContentTime": ["173136.018000", "173136.021000", "173136.024000", "173136.026000", "173136.029000", "173136.031000", "173136.034000", "173136.036000", "173136.039000", "173136.042000", "173136.044000", "173136.047000", "173136.049000", "173136.052000", "173136.054000", "173136.057000", "173136.059000", "173136.062000", "173136.065000", "173136.067000", "173136.070000", "173136.072000", "173136.075000", "173136.078000", "173136.080000", "173136.083000", "173136.085000", "173136.088000", "173136.090000", "173136.093000", "173136.096000", "173136.098000", "173136.101000", "173136.103000", "173136.106000", "173136.108000", "173136.111000", "173136.114000", "173136.116000", "173155.891000", "173155.893000", "173155.896000", "173155.899000", "173155.902000", "173155.904000", "173155.907000", "173155.909000", "173155.912000", "173155.915000", "173155.917000", "173155.920000", "173155.922000", "173155.925000", "173155.928000", "173155.930000", "173155.933000", "173155.935000", "173155.938000", "173155.941000", "173215.889000", "173215.892000", "173215.894000", "173215.897000", "173215.900000", "173215.902000", "173215.905000", "173215.907000", "173215.910000", "173215.912000", "173215.915000", "173215.918000", "173215.920000", "173215.923000", "173215.926000", "173215.928000", "173215.931000", "173215.933000", "173215.936000", "173215.938000", "173235.910000", "173235.912000", "173235.915000", "173235.918000", "173235.920000", "173235.923000", "173235.925000", "173235.928000", "173235.930000", "173235.933000", "173235.935000", "173235.938000", "173235.941000", "173235.943000", "173235.946000", "173235.948000", "173235.951000", "173235.953000", "173235.956000", "173235.959000", "173315.913000", "173315.916000", "173315.918000", "173315.921000", "173315.924000", "173315.926000", "173315.929000", "173315.931000", "173315.934000", "173315.941000", "173315.944000", "173315.946000", "173315.949000", "173315.952000", "173315.954000", "173315.957000", "173315.959000", "173315.962000", "173315.964000", "173315.967000", "173315.969000", "173315.972000", "173315.974000", "173315.977000", "173315.979000", "173315.982000", "173315.985000", "173315.987000", "173315.990000", "173355.903000", "173355.906000", "173355.908000", "173355.911000", "173355.913000", "173355.916000", "173355.919000", "173355.921000", "173355.924000", "173355.926000", "173355.929000", "173355.931000", "173355.934000", "173355.937000", "173355.939000", "173355.942000", "173355.944000", "173355.947000", "173355.949000", "173355.952000", "173355.954000", "173355.957000", "173355.960000", "173355.962000", "173355.965000", "173355.967000", "173355.970000", "173435.917000", "173435.920000", "173435.923000", "173435.925000", "173435.928000", "173435.930000", "173435.933000", "173435.936000", "173435.938000", "173435.941000", "173435.943000", "173435.946000", "173435.948000", "173435.951000", "173435.954000", "173435.956000", "173435.959000", "173435.961000", "173435.964000", "173435.966000", "173435.969000", "173435.971000", "173435.974000", "173435.977000", "173435.979000", "173435.982000", "173435.984000", "173515.936000", "173515.939000", "173515.942000", "173515.944000", "173515.947000", "173515.949000", "173515.952000", "173515.954000", "173515.957000", "173515.960000", "173515.962000", "173515.965000", "173515.967000", "173515.970000", "173515.973000", "173515.975000", "173515.978000", "173515.980000", "173515.983000", "173515.985000", "173515.988000", "173515.991000", "173515.993000", "173515.996000", "173515.998000", "173516.002000", "173516.004000", "173555.921000", "173555.924000", "173555.926000", "173555.929000", "173555.931000", "173555.934000", "173555.936000", "173555.939000", "173555.942000", "173555.944000", "173555.947000", "173555.949000", "173555.952000", "173555.954000", "173555.957000", "173555.959000", "173555.962000", "173555.965000", "173555.967000", "173555.970000", "173555.972000", "173555.975000", "173555.977000", "173555.980000", "173555.982000", "173555.985000", "173636.107000", "173636.110000", "173636.112000", "173636.122000", "173636.124000", "173636.128000", "173636.132000", "173636.135000", "173636.137000", "173636.140000", "173636.142000", "173636.145000", "173636.147000", "173636.150000", "173636.152000", "173636.155000", "173636.158000", "173636.160000", "173636.163000", "173636.165000", "173636.168000", "173636.170000", "173636.173000", "173636.176000", "173636.178000", "173636.181000", "173636.183000", "173715.919000", "173715.922000", "173715.931000", "173715.934000", "173715.937000", "173715.939000", "173715.942000", "173715.944000", "173715.947000", "173715.949000", "173715.952000", "173715.954000", "173715.957000", "173715.960000", "173715.962000", "173715.965000", "173715.967000", "173715.970000", "173715.972000", "173715.975000", "173715.977000", "173715.980000", "173715.983000", "173715.985000", "173715.988000", "173715.990000", "173715.993000", "173735.871000", "173735.874000", "173735.877000", "173735.879000", "173735.892000", "173735.894000", "173735.897000", "173735.899000", "173735.902000", "173735.904000", "173735.907000", "173735.909000", "173735.912000", "173735.914000", "173815.908000", "173815.911000", "173815.914000", "173815.916000", "173815.919000", "173815.922000", "173815.924000", "173815.927000", "173815.929000", "173815.932000", "173815.934000", "173815.937000", "173815.940000", "173815.942000", "173815.945000", "173815.948000", "173815.950000", "173815.954000", "173815.957000", "173815.960000", "173815.963000", "173815.965000", "173815.968000", "173815.971000", "173815.973000", "173815.976000", "173856.345000", "173856.348000", "173856.350000", "173856.353000", "173856.356000", "173856.358000", "173856.361000", "173856.363000", "173856.366000", "173856.368000", "173856.371000", "173856.374000", "173856.376000", "173856.379000", "173856.381000", "173856.384000", "173856.387000", "173856.389000", "173856.392000", "173856.394000", "173856.397000", "173856.399000", "173856.402000", "173856.405000", "173856.407000", "173856.410000", "173856.412000", "173935.914000", "173935.916000", "173935.919000", "173935.921000", "173935.924000", "173935.927000", "173935.929000", "173935.932000", "173935.935000", "173935.937000", "173935.940000", "173935.942000", "173935.945000", "173935.947000", "173935.950000", "173935.952000", "173935.955000", "173935.958000", "173935.960000", "173935.963000", "173935.965000", "173935.968000", "173935.970000", "173935.973000", "173935.976000", "173935.978000", "173935.981000", "174015.922000", "174015.925000", "174015.927000", "174015.930000", "174015.933000", "174015.935000", "174015.938000", "174015.940000", "174015.943000", "174015.945000", "174015.948000", "174015.951000", "174015.953000", "174015.956000", "174015.958000", "174015.961000", "174015.964000", "174015.966000", "174015.969000", "174015.971000", "174015.974000", "174015.976000", "174015.979000", "174015.982000", "174015.984000", "174015.987000", "174015.989000", "174056.165000", "174056.168000", "174056.170000", "174056.173000", "174056.175000", "174056.186000", "174056.189000", "174056.191000", "174056.194000", "174056.197000", "174056.199000", "174056.202000", "174056.204000", "174056.207000", "174056.210000", "174056.212000", "174056.215000", "174056.217000", "174056.220000", "174056.222000", "174056.225000", "174056.228000", "174056.230000", "174056.233000", "174056.235000", "174056.238000", "174056.241000", "174135.951000", "174135.954000", "174135.956000", "174135.962000", "174135.965000", "174135.967000", "174135.970000", "174135.972000", "174135.975000", "174135.977000", "174135.980000", "174135.983000", "174135.985000", "174135.988000", "174135.990000", "174135.993000", "174135.995000", "174135.998000", "174136.001000", "174136.004000", "174136.007000", "174136.009000", "174136.012000", "174136.014000", "174136.017000", "174136.020000", "174136.022000", "174147.432000", "174147.435000", "174147.438000", "174147.440000", "174147.443000", "174147.445000", "174147.448000"],
