{
  "AcquisitionMatrixPE": 104,
  "AcquisitionNumber": 1,
  "AcquisitionTime": "16:38:30.142500",
  "BandwidthPerPixelPhaseEncode": 17.17,
  "BaseResolution": 104,
  "BodyPartExamined": "BRAIN",
  "CoilCombinationMethod": "Sum of Squares",
  "ConsistencyInfo": "N4_VE11C_LATEST_20160120",
  "ConversionSoftware": "dcm2niix",
  "ConversionSoftwareVersion": "v1.0.20211006",
  "DerivedVendorReportedEchoSpacing": 0.000560011,
  "DeviceSerialNumber": "167006",
  "DwellTime": 2.1e-06,
  "EchoTime": 0.037,
  "EchoTrainLength": 104,
  "EffectiveEchoSpacing": 0.000560011,
  "FlipAngle": 52,
  "HeudiconvVersion": "0.5.3.post569+g418601f",
  "ImageComments": "Unaliased MB4/PE3/LB",
  "ImageOrientationPatientDICOM": [0.99979, -0.0143606, 0.0145977, 0.0186733, 0.931946, -0.362115],
  "ImageOrientationText": "Tra>Cor(-21.2)>Sag(0.5)",
  "ImageType": [
    "ORIGINAL",
    "PRIMARY",
    "M",
    "MB",
    "ND",
    "MOSAIC"
],
  "ImagingFrequency": 123.259,
  "InPlanePhaseEncodingDirectionDICOM": "COL",
  "InstitutionAddress": "Chemin Queen-Mary 4565,Montreal,District,CA,H3W 1W5",
  "InstitutionName": "IUGM",
  "InstitutionalDepartmentName": "Department",
  "MRAcquisitionType": "2D",
  "MagneticFieldStrength": 3,
  "Manufacturer": "Siemens",
  "ManufacturersModelName": "Prisma_fit",
  "MatrixCoilMode": "SENSE",
  "Modality": "MR",
  "MultibandAccelerationFactor": 4,
  "PartialFourier": 1,
  "PatientPosition": "HFS",
  "PercentPhaseFOV": 100,
  "PercentSampling": 100,
  "PhaseEncodingDirection": "j",
  "PhaseEncodingSteps": 104,
  "PhaseResolution": 1,
  "PixelBandwidth": 2290,
  "ProcedureStepDescription": "games^mario",
  "ProtocolName": "func_task-mario_run-01",
  "PulseSequenceDetails": "%CustomerSeq%\\cmrr_mbep2d_bold",
  "ReceiveCoilActiveElements": "HC1-7;NC1,2",
  "ReceiveCoilName": "HeadNeck_64",
  "ReconMatrixPE": 104,
  "RepetitionTime": 1.49,
  "SAR": 0.0521166,
  "ScanOptions": "FS",
  "ScanningSequence": "EP",
  "SequenceName": "epfid2d1_104",
  "SequenceVariant": "SK\\SS",
  "SeriesDescription": "func_task-mario_run-01",
  "SeriesNumber": 10,
  "ShimSetting": [604, -7265, -8822, 369, -17, -335, 25, 39],
  "SliceThickness": 2,
  "SliceTiming": [0, 0.7825, 0.0975, 0.8825, 0.195, 0.98, 0.2925, 1.0775, 0.3925, 1.175, 0.49, 1.2725, 0.5875, 1.3725, 0.685, 0, 0.7825, 0.0975, 0.8825, 0.195, 0.98, 0.2925, 1.0775, 0.3925, 1.175, 0.49, 1.2725, 0.5875, 1.3725, 0.685, 0, 0.7825, 0.0975, 0.8825, 0.195, 0.98, 0.2925, 1.0775, 0.3925, 1.175, 0.49, 1.2725, 0.5875, 1.3725, 0.685, 0, 0.7825, 0.0975, 0.8825, 0.195, 0.98, 0.2925, 1.0775, 0.3925, 1.175, 0.49, 1.2725, 0.5875, 1.3725, 0.685],
  "SoftwareVersions": "syngo MR E11",
  "SpacingBetweenSlices": 2,
  "StationName": "MRC35049",
  "TaskName": "mario",
  "TotalReadoutTime": 0.0576811,
  "TxRefAmp": 270.581,
  "WipMemBlock": "4df06a7f-bb5e-43b3-a9ab-64f707c9e040||Sequence: R016 ve11c/master r/e634e98; Dec 19 2017 11:00:25 by eja",
  "dcmmeta_affine": [
    [-1.9995806217193604, 0.03734656795859337, 0.016808195039629936, 102.09883117675781],
    [0.028721211478114128, 1.8638925552368164, -0.7246237397193909, -64.01957702636719],
    [0.02919543907046318, 0.7242303490638733, 1.864038109779358, -63.546077728271484],
    [0.0, 0.0, 0.0, 1.0]
],
  "dcmmeta_reorient_transform": [
    [0.0, -1.0, 0.0, 103.0],
    [1.0, 0.0, 0.0, 0.0],
    [0.0, 0.0, 1.0, 0.0],
    [0.0, 0.0, 0.0, 1.0]
],
  "dcmmeta_shape": [104, 104, 60, 463],
  "dcmmeta_slice_dim": 2,
  "dcmmeta_version": 0.6,
  "global": {
    "const": {
      "AcquisitionMatrix": [104, 0, 0, 104],
      "AngioFlag": "N",
      "BitsAllocated": 16,
      "BitsStored": 16,
      "BodyPartExamined": "BRAIN",
      "Columns": 832,
      "EchoNumbers": 1,
      "EchoTime": 37.0,
      "EchoTrainLength": 104,
      "FlipAngle": 52.0,
      "HighBit": 15,
      "ImageOrientationPatient": [0.99979031781325, -0.0143606058918, 0.01459771918147, 0.01867328474854, 0.93194629644197, -0.3621151874539],
      "ImagePositionPatient": [-847.38702709526, -795.96374616735, 264.0423686094],
      "ImageType": [
        "ORIGINAL",
        "PRIMARY",
        "M",
        "MB",
        "ND",
        "MOSAIC"
],
      "ImagedNucleus": "1H",
      "ImagingFrequency": 123.258773,
      "InPlanePhaseEncodingDirection": "COL",
      "MRAcquisitionType": "2D",
      "MagneticFieldStrength": 3.0,
      "Manufacturer": "SIEMENS",
      "ManufacturerModelName": "Prisma_fit",
      "Modality": "MR",
      "NumberOfAverages": 1.0,
      "NumberOfPhaseEncodingSteps": 104,
      "PercentPhaseFieldOfView": 100.0,
      "PercentSampling": 100.0,
      "PerformedProcedureStepStartTime": "163253.085000",
      "PhotometricInterpretation": "MONOCHROME2",
      "PixelBandwidth": 2290.0,
      "PixelRepresentation": 0,
      "PixelSpacing": [2.0, 2.0],
      "ProtocolName": "func_task-mario_run-01",
      "RepetitionTime": 1490.0,
      "Rows": 832,
      "SAR": 0.05211657638203,
      "SamplesPerPixel": 1,
      "ScanOptions": "FS",
      "ScanningSequence": "EP",
      "SequenceName": "epfid2d1_104",
      "SequenceVariant": [
        "SK",
        "SS"
],
      "SeriesDescription": "func_task-mario_run-01",
      "SeriesNumber": 10,
      "SeriesTime": "163944.928000",
      "SliceLocation": -35.173055508496,
      "SliceThickness": 2.0,
      "SmallestImagePixelValue": 0,
      "SoftwareVersions": "syngo MR E11",
      "SpacingBetweenSlices": 2.0000000668345,
      "SpecificCharacterSet": "ISO_IR 100",
      "StudyID": "1",
      "StudyTime": "163253.021000",
      "TransmitCoilName": "Body",
      "VariableFlipAngleFlag": "N",
      "WindowCenterWidthExplanation": "Algo1",
      "dBdt": 0.0},
    "slices": {}
  },
  "time": {
    "samples": {
      "AcquisitionNumber": [1, 2, 3, 4, 5, 6, 7, 8, 9, 10, 11, 12, 13, 14, 15, 16, 17, 18, 19, 20, 21, 22, 23, 24, 25, 26, 27, 28, 29, 30, 31, 32, 33, 34, 35, 36, 37, 38, 39, 40, 41, 42, 43, 44, 45, 46, 47, 48, 49, 50, 51, 52, 53, 54, 55, 56, 57, 58, 59, 60, 61, 62, 63, 64, 65, 66, 67, 68, 69, 70, 71, 72, 73, 74, 75, 76, 77, 78, 79, 80, 81, 82, 83, 84, 85, 86, 87, 88, 89, 90, 91, 92, 93, 94, 95, 96, 97, 98, 99, 100, 101, 102, 103, 104, 105, 106, 107, 108, 109, 110, 111, 112, 113, 114, 115, 116, 117, 118, 119, 120, 121, 122, 123, 124, 125, 126, 127, 128, 129, 130, 131, 132, 133, 134, 135, 136, 137, 138, 139, 140, 141, 142, 143, 144, 145, 146, 147, 148, 149, 150, 151, 152, 153, 154, 155, 156, 157, 158, 159, 160, 161, 162, 163, 164, 165, 166, 167, 168, 169, 170, 171, 172, 173, 174, 175, 176, 177, 178, 179, 180, 181, 182, 183, 184, 185, 186, 187, 188, 189, 190, 191, 192, 193, 194, 195, 196, 197, 198, 199, 200, 201, 202, 203, 204, 205, 206, 207, 208, 209, 210, 211, 212, 213, 214, 215, 216, 217, 218, 219, 220, 221, 222, 223, 224, 225, 226, 227, 228, 229, 230, 231, 232, 233, 234, 235, 236, 237, 238, 239, 240, 241, 242, 243, 244, 245, 246, 247, 248, 249, 250, 251, 252, 253, 254, 255, 256, 257, 258, 259, 260, 261, 262, 263, 264, 265, 266, 267, 268, 269, 270, 271, 272, 273, 274, 275, 276, 277, 278, 279, 280, 281, 282, 283, 284, 285, 286, 287, 288, 289, 290, 291, 292, 293, 294, 295, 296, 297, 298, 299, 300, 301, 302, 303, 304, 305, 306, 307, 308, 309, 310, 311, 312, 313, 314, 315, 316, 317, 318, 319, 320, 321, 322, 323, 324, 325, 326, 327, 328, 329, 330, 331, 332, 333, 334, 335, 336, 337, 338, 339, 340, 341, 342, 343, 344, 345, 346, 347, 348, 349, 350, 351, 352, 353, 354, 355, 356, 357, 358, 359, 360, 361, 362, 363, 364, 365, 366, 367, 368, 369, 370, 371, 372, 373, 374, 375, 376, 377, 378, 379, 380, 381, 382, 383, 384, 385, 386, 387, 388, 389, 390, 391, 392, 393, 394, 395, 396, 397, 398, 399, 400, 401, 402, 403, 404, 405, 406, 407, 408, 409, 410, 411, 412, 413, 414, 415, 416, 417, 418, 419, 420, 421, 422, 423, 424, 425, 426, 427, 428, 429, 430, 431, 432, 433, 434, 435, 436, 437, 438, 439, 440, 441, 442, 443, 444, 445, 446, 447, 448, 449, 450, 451, 452, 453, 454, 455, 456, 457, 458, 459, 460, 461, 462, 463],
      "AcquisitionTime": ["163830.142500", "163831.632500", "163833.122500", "163834.612500", "163836.102500", "163837.592500", "163839.082500", "163840.572500", "163842.062500", "163843.552500", "163845.042500", "163846.532500", "163848.022500", "163849.512500", "163851.002500", "163852.492500", "163853.982500", "163855.472500", "163856.962500", "163858.452500", "163859.942500", "163901.432500", "163902.922500", "163904.412500", "163905.902500", "163907.392500", "163908.882500", "163910.372500", "163911.862500", "163913.352500", "163914.842500", "163916.332500", "163917.822500", "163919.312500", "163920.802500", "163922.292500", "163923.782500", "163925.272500", "163926.762500", "163928.252500", "163929.742500", "163931.232500", "163932.722500", "163934.212500", "163935.702500", "163937.192500", "163938.682500", "163940.172500", "163941.662500", "163943.152500", "163944.642500", "163946.132500", "163947.622500", "163949.112500", "163950.602500", "163952.092500", "163953.582500", "163955.072500", "163956.562500", "163958.052500", "163959.542500", "164001.032500", "164002.522500", "164004.012500", "164005.502500", "164006.992500", "164008.482500", "164009.972500", "164011.462500", "164012.952500", "164014.442500", "164015.932500", "164017.422500", "164018.912500", "164020.402500", "164021.892500", "164023.382500", "164024.872500", "164026.362500", "164027.852500", "164029.342500", "164030.832500", "164032.322500", "164033.812500", "164035.302500", "164036.792500", "164038.282500", "164039.772500", "164041.262500", "164042.752500", "164044.242500", "164045.732500", "164047.222500", "164048.712500", "164050.202500", "164051.692500", "164053.182500", "164054.672500", "164056.162500", "164057.652500", "164059.142500", "164100.632500", "164102.122500", "164103.612500", "164105.102500", "164106.592500", "164108.082500", "164109.572500", "164111.062500", "164112.552500", "164114.042500", "164115.532500", "164117.022500", "164118.512500", "164120.002500", "164121.492500", "164122.982500", "164124.472500", "164125.962500", "164127.452500", "164128.942500", "164130.432500", "164131.922500", "164133.412500", "164134.902500", "164136.392500", "164137.882500", "164139.372500", "164140.862500", "164142.352500", "164143.842500", "164145.332500", "164146.822500", "164148.312500", "164149.802500", "164151.292500", "164152.782500", "164154.272500", "164155.762500", "164157.252500", "164158.742500", "164200.232500", "164201.722500", "164203.212500", "164204.702500", "164206.192500", "164207.682500", "164209.172500", "164210.662500", "164212.152500", "164213.642500", "164215.132500", "164216.622500", "164218.112500", "164219.602500", "164221.092500", "164222.582500", "164224.072500", "164225.562500", "164227.052500", "164228.542500", "164230.032500", "164231.522500", "164233.012500", "164234.502500", "164235.992500", "164237.482500", "164238.972500", "164240.462500", "164241.952500", "164243.442500", "164244.932500", "164246.422500", "164247.912500", "164249.402500", "164250.892500", "164252.382500", "164253.872500", "164255.362500", "164256.852500", "164258.342500", "164259.832500", "164301.322500", "164302.812500", "164304.302500", "164305.792500", "164307.282500", "164308.772500", "164310.262500", "164311.752500", "164313.242500", "164314.732500", "164316.222500", "164317.712500", "164319.202500", "164320.692500", "164322.182500", "164323.672500", "164325.162500", "164326.652500", "164328.142500", "164329.632500", "164331.122500", "164332.612500", "164334.102500", "164335.592500", "164337.082500", "164338.572500", "164340.062500", "164341.552500", "164343.042500", "164344.532500", "164346.022500", "164347.512500", "164349.002500", "164350.492500", "164351.982500", "164353.472500", "164354.962500", "164356.452500", "164357.942500", "164359.432500", "164400.922500", "164402.412500", "164403.902500", "164405.392500", "164406.882500", "164408.372500", "164409.862500", "164411.352500", "164412.842500", "164414.332500", "164415.822500", "164417.312500", "164418.802500", "164420.292500", "164421.782500", "164423.272500", "164424.762500", "164426.252500", "164427.742500", "164429.232500", "164430.722500", "164432.212500", "164433.702500", "164435.192500", "164436.682500", "164438.172500", "164439.662500", "164441.152500", "164442.642500", "164444.132500", "164445.622500", "164447.112500", "164448.602500", "164450.092500", "164451.582500", "164453.072500", "164454.562500", "164456.052500", "164457.542500", "164459.032500", "164500.522500", "164502.012500", "164503.502500", "164504.992500", "164506.482500", "164507.972500", "164509.462500", "164510.952500", "164512.442500", "164513.932500", "164515.422500", "164516.912500", "164518.402500", "164519.892500", "164521.382500", "164522.872500", "164524.362500", "164525.852500", "164527.342500", "164528.832500", "164530.322500", "164531.812500", "164533.302500", "164534.792500", "164536.282500", "164537.772500", "164539.262500", "164540.752500", "164542.242500", "164543.732500", "164545.222500", "164546.712500", "164548.202500", "164549.692500", "164551.182500", "164552.672500", "164554.162500", "164555.652500", "164557.142500", "164558.632500", "164600.122500", "164601.612500", "164603.102500", "164604.592500", "164606.082500", "164607.572500", "164609.062500", "164610.552500", "164612.042500", "164613.532500", "164615.022500", "164616.512500", "164618.002500", "164619.492500", "164620.982500", "164622.472500", "164623.962500", "164625.452500", "164626.942500", "164628.432500", "164629.922500", "164631.412500", "164632.902500", "164634.392500", "164635.882500", "164637.372500", "164638.862500", "164640.352500", "164641.842500", "164643.332500", "164644.822500", "164646.312500", "164647.802500", "164649.292500", "164650.782500", "164652.272500", "164653.762500", "164655.252500", "164656.742500", "164658.232500", "164659.722500", "164701.212500", "164702.702500", "164704.192500", "164705.682500", "164707.172500", "164708.662500", "164710.152500", "164711.642500", "164713.132500", "164714.622500", "164716.112500", "164717.602500", "164719.092500", "164720.582500", "164722.072500", "164723.562500", "164725.052500", "164726.542500", "164728.032500", "164729.522500", "164731.012500", "164732.502500", "164733.992500", "164735.482500", "164736.972500", "164738.462500", "164739.952500", "164741.442500", "164742.932500", "164744.422500", "164745.912500", "164747.402500", "164748.892500", "164750.382500", "164751.872500", "164753.362500", "164754.852500", "164756.342500", "164757.832500", "164759.322500", "164800.812500", "164802.302500", "164803.792500", "164805.282500", "164806.772500", "164808.262500", "164809.752500", "164811.242500", "164812.732500", "164814.222500", "164815.712500", "164817.202500", "164818.692500", "164820.182500", "164821.672500", "164823.162500", "164824.652500", "164826.142500", "164827.632500", "164829.122500", "164830.612500", "164832.102500", "164833.592500", "164835.082500", "164836.572500", "164838.062500", "164839.552500", "164841.042500", "164842.532500", "164844.022500", "164845.512500", "164847.002500", "164848.492500", "164849.982500", "164851.472500", "164852.962500", "164854.452500", "164855.942500", "164857.432500", "164858.922500", "164900.412500", "164901.902500", "164903.392500", "164904.882500", "164906.372500", "164907.862500", "164909.352500", "164910.842500", "164912.332500", "164913.822500", "164915.312500", "164916.802500", "164918.292500", "164919.782500", "164921.272500", "164922.762500", "164924.252500", "164925.742500", "164927.232500", "164928.722500", "164930.212500", "164931.702500", "164933.192500", "164934.682500", "164936.172500", "164937.662500", "164939.152500", "164940.642500", "164942.132500", "164943.622500", "164945.112500", "164946.602500", "164948.092500", "164949.582500", "164951.072500", "164952.562500", "164954.052500", "164955.542500", "164957.032500", "164958.522500"],
      "ContentTime": ["163944.931000", "163944.935000", "163944.945000", "163944.948000", "163944.951000", "163944.955000", "163944.958000", "163944.962000", "163944.965000", "163944.968000", "163944.972000", "163944.975000", "163944.978000", "163944.986000", "163944.996000", "163944.999000", "163945.002000", "163945.006000", "163945.009000", "163945.012000", "163945.016000", "164004.929000", "164004.933000", "164004.936000", "164004.940000", "164004.943000", "164004.946000", "164004.950000", "164004.953000", "164004.956000", "164004.960000", "164004.963000", "164004.967000", "164004.970000", "164004.973000", "164004.977000", "164004.980000", "164004.984000", "164004.987000", "164004.990000", "164004.994000", "164024.929000", "164024.933000", "164024.936000", "164024.940000", "164024.943000", "164024.947000", "164024.950000", "164024.953000", "164024.957000", "164024.960000", "164024.963000", "164024.967000", "164024.970000", "164024.974000", "164024.977000", "164024.980000", "164024.984000", "164024.987000", "164024.990000", "164024.994000", "164044.928000", "164044.932000", "164044.935000", "164044.939000", "164044.942000", "164044.945000", "164044.949000", "164044.952000", "164044.955000", "164044.959000", "164044.962000", "164044.966000", "164044.969000", "164044.972000", "164044.976000", "164044.979000", "164044.983000", "164044.986000", "164044.989000", "164044.993000", "164104.928000", "164104.932000", "164104.935000", "164104.939000", "164104.942000", "164104.945000", "164104.949000", "164104.952000", "164104.956000", "164104.959000", "164104.962000", "164104.966000", "164104.969000", "164104.972000", "164104.976000", "164104.979000", "164104.982000", "164104.986000", "164104.989000", "164104.993000", "164144.928000", "164144.932000", "164144.935000", "164144.939000", "164144.942000", "164144.945000", "164144.949000", "164144.952000", "164144.956000", "164144.959000", "164144.963000", "164144.966000", "164144.969000", "164144.973000", "164144.976000", "164144.979000", "164144.983000", "164144.986000", "164144.990000", "164144.993000", "164144.996000", "164145.001000", "164145.004000", "164145.008000", "164145.011000", "164145.014000", "164145.018000", "164145.021000", "164145.025000", "164224.929000", "164224.933000", "164224.936000", "164224.940000", "164224.943000", "164224.947000", "164224.950000", "164224.953000", "164224.957000", "164224.960000", "164224.964000", "164224.967000", "164224.970000", "164224.974000", "164224.977000", "164224.980000", "164224.984000", "164224.987000", "164224.991000", "164224.994000", "164224.997000", "164225.002000", "164225.005000", "164225.008000", "164225.012000", "164225.015000", "164225.019000", "164304.928000", "164305.002000", "164305.005000", "164305.009000", "164305.012000", "164305.015000", "164305.019000", "164305.022000", "164305.026000", "164305.029000", "164305.032000", "164305.036000", "164305.039000", "164305.043000", "164305.046000", "164305.049000", "164305.053000", "164305.056000", "164305.060000", "164305.063000", "164305.066000", "164305.070000", "164305.073000", "164305.077000", "164305.080000", "164305.083000", "164305.087000", "164344.928000", "164344.935000", "164344.939000", "164344.942000", "164344.946000", "164344.949000", "164344.952000", "164344.956000", "164344.959000", "164344.963000", "164344.966000", "164344.969000", "164344.973000", "164344.976000", "164344.979000", "164344.983000", "164344.986000", "164345.001000", "164345.004000", "164345.007000", "164345.014000", "164345.018000", "164345.021000", "164345.025000", "164345.028000", "164345.031000", "164345.035000", "164424.929000", "164424.933000", "164424.937000", "164424.940000", "164424.944000", "164424.947000", "164424.950000", "164424.954000", "164424.957000", "164424.960000", "164424.964000", "164424.967000", "164424.971000", "164424.974000", "164424.977000", "164424.981000", "164424.984000", "164424.988000", "164424.991000", "164424.995000", "164424.998000", "164425.001000", "164425.005000", "164425.008000", "164425.012000", "164425.015000", "164425.019000", "164504.929000", "164504.933000", "164504.937000", "164504.940000", "164504.943000", "164504.947000", "164504.950000", "164504.954000", "164504.957000", "164504.960000", "164504.964000", "164504.967000", "164504.970000", "164504.974000", "164504.977000", "164504.981000", "164504.984000", "164504.988000", "164504.991000", "164504.994000", "164504.997000", "164505.002000", "164505.007000", "164505.011000", "164505.014000", "164505.018000", "164544.928000", "164544.932000", "164544.935000", "164544.939000", "164544.942000", "164544.946000", "164544.949000", "164544.952000", "164544.956000", "164544.959000", "164544.963000", "164544.966000", "164544.970000", "164544.973000", "164544.976000", "164544.980000", "164544.983000", "164544.986000", "164544.990000", "164544.993000", "164544.997000", "164545.001000", "164545.004000", "164545.008000", "164545.011000", "164545.015000", "164545.018000", "164624.928000", "164624.932000", "164624.948000", "164624.951000", "164624.955000", "164624.958000", "164624.962000", "164624.965000", "164624.968000", "164624.972000", "164624.975000", "164624.978000", "164624.982000", "164624.985000", "164624.989000", "164624.992000", "164624.995000", "164625.000000", "164625.003000", "164625.007000", "164625.010000", "164625.013000", "164625.017000", "164625.020000", "164625.023000", "164625.027000", "164625.031000", "164704.929000", "164704.933000", "164704.937000", "164704.940000", "164704.944000", "164704.947000", "164704.950000", "164704.959000", "164704.963000", "164704.966000", "164704.970000", "164704.973000", "164704.976000", "164704.980000", "164704.983000", "164704.987000", "164704.990000", "164704.993000", "164704.997000", "164705.000000", "164705.004000", "164705.007000", "164705.010000", "164705.014000", "164705.017000", "164705.021000", "164705.024000", "164724.929000", "164724.933000", "164724.937000", "164724.940000", "164724.943000", "164724.947000", "164724.950000", "164724.954000", "164724.957000", "164724.961000", "164724.964000", "164724.967000", "164724.971000", "164804.928000", "164804.932000", "164804.935000", "164804.939000", "164804.942000", "164804.946000", "164804.949000", "164804.952000", "164804.956000", "164804.960000", "164804.963000", "164804.966000", "164804.970000", "164804.973000", "164804.976000", "164804.980000", "164804.983000", "164804.987000", "164804.990000", "164804.993000", "164804.997000", "164805.001000", "164805.004000", "164805.008000", "164805.011000", "164805.015000", "164805.018000", "164844.928000", "164844.946000", "164844.950000", "164844.953000", "164844.956000", "164844.960000", "164844.963000", "164844.967000", "164844.970000", "164844.973000", "164844.977000", "164844.980000", "164844.984000", "164844.987000", "164844.990000", "164844.994000", "164844.997000", "164845.001000", "164845.004000", "164845.007000", "164845.011000", "164845.014000", "164845.018000", "164845.021000", "164845.024000", "164845.028000", "164845.031000", "164924.929000", "164924.933000", "164924.936000", "164924.940000", "164924.943000", "164924.947000", "164924.950000", "164924.953000", "164924.957000", "164924.960000", "164924.964000", "164924.967000", "164924.971000", "164924.974000", "164924.977000", "164924.981000", "164924.984000", "164924.988000", "164924.991000", "164924.994000", "164924.998000", "164925.001000", "164925.004000", "164925.008000", "164925.011000", "164925.015000", "164925.018000", "165000.781000", "165000.785000", "165000.789000", "165000.792000", "165000.796000", "165000.799000", "165000.803000", "165000.806000", "165000.809000", "165000.813000", "165000.816000", "165000.820000", "165000.823000", "165000.826000", "165000.830000", "165000.833000", "165000.837000", "165000.840000", "165000.844000", "165000.847000", "165000.850000", "165000.853000", "165000.857000", "165000.860000"],
