{
  "AcquisitionMatrixPE": 104,
  "AcquisitionNumber": 1,
  "AcquisitionTime": "16:38:30.142500",
  "BandwidthPerPixelPhaseEncode": 17.17,
  "BaseResolution": 104,
  "BodyPartExamined": "BRAIN",
  "CoilCombinationMethod": "Sum of Squares",
  "ConsistencyInfo": "N4_VE11C_LATEST_20160120",
  "ConversionSoftware": "dcm2niix",
  "ConversionSoftwareVersion": "v1.0.20211006",
  "DerivedVendorReportedEchoSpacing": 0.000560011,
  "DeviceSerialNumber": "167006",
  "DwellTime": 2.1e-06,
  "EchoTime": 0.037,
  "EchoTime1": 0.037,
  "EchoTime2": 0.001,
  "EchoTrainLength": 104,
  "EffectiveEchoSpacing": 0.000560011,
  "FlipAngle": 52,
  "HeudiconvVersion": "0.5.3.post569+g418601f",
  "ImageComments": "Unaliased MB4/PE3/LB",
  "ImageOrientationPatientDICOM": [0.99979, -0.0143606, 0.0145977, 0.0186733, 0.931946, -0.362115],
  "ImageOrientationText": "Tra>Cor(-21.2)>Sag(0.5)",
  "ImageType": [
    "ORIGINAL",
    "PRIMARY",
    "P",
    "MB",
    "ND",
    "MOSAIC",
    "PHASE"
],
  "ImagingFrequency": 123.259,
  "InPlanePhaseEncodingDirectionDICOM": "COL",
  "InstitutionAddress": "Chemin Queen-Mary 4565,Montreal,District,CA,H3W 1W5",
  "InstitutionName": "IUGM",
  "InstitutionalDepartmentName": "Department",
  "MRAcquisitionType": "2D",
  "MagneticFieldStrength": 3,
  "Manufacturer": "Siemens",
  "ManufacturersModelName": "Prisma_fit",
  "MatrixCoilMode": "SENSE",
  "Modality": "MR",
  "MultibandAccelerationFactor": 4,
  "PartialFourier": 1,
  "PatientPosition": "HFS",
  "PercentPhaseFOV": 100,
  "PercentSampling": 100,
  "PhaseEncodingDirection": "j",
  "PhaseEncodingSteps": 104,
  "PhaseResolution": 1,
  "PixelBandwidth": 2290,
  "ProcedureStepDescription": "games^mario",
  "ProtocolName": "func_task-mario_run-01",
  "PulseSequenceDetails": "%CustomerSeq%\\cmrr_mbep2d_bold",
  "ReceiveCoilActiveElements": "HC1-7;NC1,2",
  "ReceiveCoilName": "HeadNeck_64",
  "ReconMatrixPE": 104,
  "RepetitionTime": 1.49,
  "SAR": 0.0521166,
  "ScanOptions": "FS",
  "ScanningSequence": "EP",
  "SequenceName": "epfid2d1_104",
  "SequenceVariant": "SK\\SS",
  "SeriesDescription": "func_task-mario_run-01",
  "SeriesNumber": 11,
  "ShimSetting": [604, -7265, -8822, 369, -17, -335, 25, 39],
  "SliceThickness": 2,
  "SliceTiming": [0, 0.7825, 0.0975, 0.8825, 0.195, 0.98, 0.2925, 1.0775, 0.3925, 1.175, 0.49, 1.2725, 0.5875, 1.3725, 0.685, 0, 0.7825, 0.0975, 0.8825, 0.195, 0.98, 0.2925, 1.0775, 0.3925, 1.175, 0.49, 1.2725, 0.5875, 1.3725, 0.685, 0, 0.7825, 0.0975, 0.8825, 0.195, 0.98, 0.2925, 1.0775, 0.3925, 1.175, 0.49, 1.2725, 0.5875, 1.3725, 0.685, 0, 0.7825, 0.0975, 0.8825, 0.195, 0.98, 0.2925, 1.0775, 0.3925, 1.175, 0.49, 1.2725, 0.5875, 1.3725, 0.685],
  "SoftwareVersions": "syngo MR E11",
  "SpacingBetweenSlices": 2,
  "StationName": "MRC35049",
  "TaskName": "mario",
  "TotalReadoutTime": 0.0576811,
  "TxRefAmp": 270.581,
  "WipMemBlock": "4df06a7f-bb5e-43b3-a9ab-64f707c9e040||Sequence: R016 ve11c/master r/e634e98; Dec 19 2017 11:00:25 by eja",
  "dcmmeta_affine": [
    [-1.9995806217193604, 0.03734656795859337, 0.016808195039629936, 102.09883117675781],
    [0.028721211478114128, 1.8638925552368164, -0.7246237397193909, -64.01957702636719],
    [0.02919543907046318, 0.7242303490638733, 1.864038109779358, -63.546077728271484],
    [0.0, 0.0, 0.0, 1.0]
],
  "dcmmeta_reorient_transform": [
    [0.0, -1.0, 0.0, 103.0],
    [1.0, 0.0, 0.0, 0.0],
    [0.0, 0.0, 1.0, 0.0],
    [0.0, 0.0, 0.0, 1.0]
],
  "dcmmeta_shape": [104, 104, 60, 463],
  "dcmmeta_slice_dim": 2,
  "dcmmeta_version": 0.6,
  "global": {
    "const": {
      "AcquisitionMatrix": [104, 0, 0, 104],
      "AngioFlag": "N",
      "BitsAllocated": 16,
      "BitsStored": 16,
      "BodyPartExamined": "BRAIN",
      "Columns": 832,
      "EchoNumbers": 1,
      "EchoTime": 37.0,
      "EchoTrainLength": 104,
      "FlipAngle": 52.0,
      "HighBit": 15,
      "ImageOrientationPatient": [0.99979031781325, -0.0143606058918, 0.01459771918147, 0.01867328474854, 0.93194629644197, -0.3621151874539],
      "ImagePositionPatient": [-847.38702709526, -795.96374616735, 264.0423686094],
      "ImageType": [
        "ORIGINAL",
        "PRIMARY",
        "P",
        "MB",
        "ND",
        "MOSAIC"
],
      "ImagedNucleus": "1H",
      "ImagingFrequency": 123.258773,
      "InPlanePhaseEncodingDirection": "COL",
      "LargestImagePixelValue": 4095,
      "MRAcquisitionType": "2D",
      "MagneticFieldStrength": 3.0,
      "Manufacturer": "SIEMENS",
      "ManufacturerModelName": "Prisma_fit",
      "Modality": "MR",
      "NumberOfAverages": 1.0,
      "NumberOfPhaseEncodingSteps": 104,
      "PercentPhaseFieldOfView": 100.0,
      "PercentSampling": 100.0,
      "PerformedProcedureStepStartTime": "163253.085000",
      "PhotometricInterpretation": "MONOCHROME2",
      "PixelBandwidth": 2290.0,
      "PixelRepresentation": 0,
      "PixelSpacing": [2.0, 2.0],
      "ProtocolName": "func_task-mario_run-01",
      "RepetitionTime": 1490.0,
      "RescaleIntercept": -4096.0,
      "RescaleSlope": 2.0,
      "RescaleType": "US",
      "Rows": 832,
      "SAR": 0.05211657638203,
      "SamplesPerPixel": 1,
      "ScanOptions": "FS",
      "ScanningSequence": "EP",
      "SequenceName": "epfid2d1_104",
      "SequenceVariant": [
        "SK",
        "SS"
],
      "SeriesDescription": "func_task-mario_run-01",
      "SeriesNumber": 11,
      "SeriesTime": "163945.054000",
      "SliceLocation": -35.173055508496,
      "SliceThickness": 2.0,
      "SmallestImagePixelValue": 0,
      "SoftwareVersions": "syngo MR E11",
      "SpacingBetweenSlices": 2.0000000668345,
      "SpecificCharacterSet": "ISO_IR 100",
      "StudyID": "1",
      "StudyTime": "163253.021000",
      "TransmitCoilName": "Body",
      "VariableFlipAngleFlag": "N",
      "WindowCenterWidthExplanation": "Algo1",
      "dBdt": 0.0},
    "slices": {}
  },
  "time": {
    "samples": {
      "AcquisitionNumber": [1, 2, 3, 4, 5, 6, 7, 8, 9, 10, 11, 12, 13, 14, 15, 16, 17, 18, 19, 20, 21, 22, 23, 24, 25, 26, 27, 28, 29, 30, 31, 32, 33, 34, 35, 36, 37, 38, 39, 40, 41, 42, 43, 44, 45, 46, 47, 48, 49, 50, 51, 52, 53, 54, 55, 56, 57, 58, 59, 60, 61, 62, 63, 64, 65, 66, 67, 68, 69, 70, 71, 72, 73, 74, 75, 76, 77, 78, 79, 80, 81, 82, 83, 84, 85, 86, 87, 88, 89, 90, 91, 92, 93, 94, 95, 96, 97, 98, 99, 100, 101, 102, 103, 104, 105, 106, 107, 108, 109, 110, 111, 112, 113, 114, 115, 116, 117, 118, 119, 120, 121, 122, 123, 124, 125, 126, 127, 128, 129, 130, 131, 132, 133, 134, 135, 136, 137, 138, 139, 140, 141, 142, 143, 144, 145, 146, 147, 148, 149, 150, 151, 152, 153, 154, 155, 156, 157, 158, 159, 160, 161, 162, 163, 164, 165, 166, 167, 168, 169, 170, 171, 172, 173, 174, 175, 176, 177, 178, 179, 180, 181, 182, 183, 184, 185, 186, 187, 188, 189, 190, 191, 192, 193, 194, 195, 196, 197, 198, 199, 200, 201, 202, 203, 204, 205, 206, 207, 208, 209, 210, 211, 212, 213, 214, 215, 216, 217, 218, 219, 220, 221, 222, 223, 224, 225, 226, 227, 228, 229, 230, 231, 232, 233, 234, 235, 236, 237, 238, 239, 240, 241, 242, 243, 244, 245, 246, 247, 248, 249, 250, 251, 252, 253, 254, 255, 256, 257, 258, 259, 260, 261, 262, 263, 264, 265, 266, 267, 268, 269, 270, 271, 272, 273, 274, 275, 276, 277, 278, 279, 280, 281, 282, 283, 284, 285, 286, 287, 288, 289, 290, 291, 292, 293, 294, 295, 296, 297, 298, 299, 300, 301, 302, 303, 304, 305, 306, 307, 308, 309, 310, 311, 312, 313, 314, 315, 316, 317, 318, 319, 320, 321, 322, 323, 324, 325, 326, 327, 328, 329, 330, 331, 332, 333, 334, 335, 336, 337, 338, 339, 340, 341, 342, 343, 344, 345, 346, 347, 348, 349, 350, 351, 352, 353, 354, 355, 356, 357, 358, 359, 360, 361, 362, 363, 364, 365, 366, 367, 368, 369, 370, 371, 372, 373, 374, 375, 376, 377, 378, 379, 380, 381, 382, 383, 384, 385, 386, 387, 388, 389, 390, 391, 392, 393, 394, 395, 396, 397, 398, 399, 400, 401, 402, 403, 404, 405, 406, 407, 408, 409, 410, 411, 412, 413, 414, 415, 416, 417, 418, 419, 420, 421, 422, 423, 424, 425, 426, 427, 428, 429, 430, 431, 432, 433, 434, 435, 436, 437, 438, 439, 440, 441, 442, 443, 444, 445, 446, 447, 448, 449, 450, 451, 452, 453, 454, 455, 456, 457, 458, 459, 460, 461, 462, 463],
      "AcquisitionTime": ["163830.142500", "163831.632500", "163833.122500", "163834.612500", "163836.102500", "163837.592500", "163839.082500", "163840.572500", "163842.062500", "163843.552500", "163845.042500", "163846.532500", "163848.022500", "163849.512500", "163851.002500", "163852.492500", "163853.982500", "163855.472500", "163856.962500", "163858.452500", "163859.942500", "163901.432500", "163902.922500", "163904.412500", "163905.902500", "163907.392500", "163908.882500", "163910.372500", "163911.862500", "163913.352500", "163914.842500", "163916.332500", "163917.822500", "163919.312500", "163920.802500", "163922.292500", "163923.782500", "163925.272500", "163926.762500", "163928.252500", "163929.742500", "163931.232500", "163932.722500", "163934.212500", "163935.702500", "163937.192500", "163938.682500", "163940.172500", "163941.662500", "163943.152500", "163944.642500", "163946.132500", "163947.622500", "163949.112500", "163950.602500", "163952.092500", "163953.582500", "163955.072500", "163956.562500", "163958.052500", "163959.542500", "164001.032500", "164002.522500", "164004.012500", "164005.502500", "164006.992500", "164008.482500", "164009.972500", "164011.462500", "164012.952500", "164014.442500", "164015.932500", "164017.422500", "164018.912500", "164020.402500", "164021.892500", "164023.382500", "164024.872500", "164026.362500", "164027.852500", "164029.342500", "164030.832500", "164032.322500", "164033.812500", "164035.302500", "164036.792500", "164038.282500", "164039.772500", "164041.262500", "164042.752500", "164044.242500", "164045.732500", "164047.222500", "164048.712500", "164050.202500", "164051.692500", "164053.182500", "164054.672500", "164056.162500", "164057.652500", "164059.142500", "164100.632500", "164102.122500", "164103.612500", "164105.102500", "164106.592500", "164108.082500", "164109.572500", "164111.062500", "164112.552500", "164114.042500", "164115.532500", "164117.022500", "164118.512500", "164120.002500", "164121.492500", "164122.982500", "164124.472500", "164125.962500", "164127.452500", "164128.942500", "164130.432500", "164131.922500", "164133.412500", "164134.902500", "164136.392500", "164137.882500", "164139.372500", "164140.862500", "164142.352500", "164143.842500", "164145.332500", "164146.822500", "164148.312500", "164149.802500", "164151.292500", "164152.782500", "164154.272500", "164155.762500", "164157.252500", "164158.742500", "164200.232500", "164201.722500", "164203.212500", "164204.702500", "164206.192500", "164207.682500", "164209.172500", "164210.662500", "164212.152500", "164213.642500", "164215.132500", "164216.622500", "164218.112500", "164219.602500", "164221.092500", "164222.582500", "164224.072500", "164225.562500", "164227.052500", "164228.542500", "164230.032500", "164231.522500", "164233.012500", "164234.502500", "164235.992500", "164237.482500", "164238.972500", "164240.462500", "164241.952500", "164243.442500", "164244.932500", "164246.422500", "164247.912500", "164249.402500", "164250.892500", "164252.382500", "164253.872500", "164255.362500", "164256.852500", "164258.342500", "164259.832500", "164301.322500", "164302.812500", "164304.302500", "164305.792500", "164307.282500", "164308.772500", "164310.262500", "164311.752500", "164313.242500", "164314.732500", "164316.222500", "164317.712500", "164319.202500", "164320.692500", "164322.182500", "164323.672500", "164325.162500", "164326.652500", "164328.142500", "164329.632500", "164331.122500", "164332.612500", "164334.102500", "164335.592500", "164337.082500", "164338.572500", "164340.062500", "164341.552500", "164343.042500", "164344.532500", "164346.022500", "164347.512500", "164349.002500", "164350.492500", "164351.982500", "164353.472500", "164354.962500", "164356.452500", "164357.942500", "164359.432500", "164400.922500", "164402.412500", "164403.902500", "164405.392500", "164406.882500", "164408.372500", "164409.862500", "164411.352500", "164412.842500", "164414.332500", "164415.822500", "164417.312500", "164418.802500", "164420.292500", "164421.782500", "164423.272500", "164424.762500", "164426.252500", "164427.742500", "164429.232500", "164430.722500", "164432.212500", "164433.702500", "164435.192500", "164436.682500", "164438.172500", "164439.662500", "164441.152500", "164442.642500", "164444.132500", "164445.622500", "164447.112500", "164448.602500", "164450.092500", "164451.582500", "164453.072500", "164454.562500", "164456.052500", "164457.542500", "164459.032500", "164500.522500", "164502.012500", "164503.502500", "164504.992500", "164506.482500", "164507.972500", "164509.462500", "164510.952500", "164512.442500", "164513.932500", "164515.422500", "164516.912500", "164518.402500", "164519.892500", "164521.382500", "164522.872500", "164524.362500", "164525.852500", "164527.342500", "164528.832500", "164530.322500", "164531.812500", "164533.302500", "164534.792500", "164536.282500", "164537.772500", "164539.262500", "164540.752500", "164542.242500", "164543.732500", "164545.222500", "164546.712500", "164548.202500", "164549.692500", "164551.182500", "164552.672500", "164554.162500", "164555.652500", "164557.142500", "164558.632500", "164600.122500", "164601.612500", "164603.102500", "164604.592500", "164606.082500", "164607.572500", "164609.062500", "164610.552500", "164612.042500", "164613.532500", "164615.022500", "164616.512500", "164618.002500", "164619.492500", "164620.982500", "164622.472500", "164623.962500", "164625.452500", "164626.942500", "164628.432500", "164629.922500", "164631.412500", "164632.902500", "164634.392500", "164635.882500", "164637.372500", "164638.862500", "164640.352500", "164641.842500", "164643.332500", "164644.822500", "164646.312500", "164647.802500", "164649.292500", "164650.782500", "164652.272500", "164653.762500", "164655.252500", "164656.742500", "164658.232500", "164659.722500", "164701.212500", "164702.702500", "164704.192500", "164705.682500", "164707.172500", "164708.662500", "164710.152500", "164711.642500", "164713.132500", "164714.622500", "164716.112500", "164717.602500", "164719.092500", "164720.582500", "164722.072500", "164723.562500", "164725.052500", "164726.542500", "164728.032500", "164729.522500", "164731.012500", "164732.502500", "164733.992500", "164735.482500", "164736.972500", "164738.462500", "164739.952500", "164741.442500", "164742.932500", "164744.422500", "164745.912500", "164747.402500", "164748.892500", "164750.382500", "164751.872500", "164753.362500", "164754.852500", "164756.342500", "164757.832500", "164759.322500", "164800.812500", "164802.302500", "164803.792500", "164805.282500", "164806.772500", "164808.262500", "164809.752500", "164811.242500", "164812.732500", "164814.222500", "164815.712500", "164817.202500", "164818.692500", "164820.182500", "164821.672500", "164823.162500", "164824.652500", "164826.142500", "164827.632500", "164829.122500", "164830.612500", "164832.102500", "164833.592500", "164835.082500", "164836.572500", "164838.062500", "164839.552500", "164841.042500", "164842.532500", "164844.022500", "164845.512500", "164847.002500", "164848.492500", "164849.982500", "164851.472500", "164852.962500", "164854.452500", "164855.942500", "164857.432500", "164858.922500", "164900.412500", "164901.902500", "164903.392500", "164904.882500", "164906.372500", "164907.862500", "164909.352500", "164910.842500", "164912.332500", "164913.822500", "164915.312500", "164916.802500", "164918.292500", "164919.782500", "164921.272500", "164922.762500", "164924.252500", "164925.742500", "164927.232500", "164928.722500", "164930.212500", "164931.702500", "164933.192500", "164934.682500", "164936.172500", "164937.662500", "164939.152500", "164940.642500", "164942.132500", "164943.622500", "164945.112500", "164946.602500", "164948.092500", "164949.582500", "164951.072500", "164952.562500", "164954.052500", "164955.542500", "164957.032500", "164958.522500"],
      "ContentTime": ["163945.056000", "163945.059000", "163945.062000", "163945.064000", "163945.067000", "163945.069000", "163945.072000", "163945.074000", "163945.077000", "163945.080000", "163945.082000", "163945.085000", "163945.088000", "163945.090000", "163945.093000", "163945.095000", "163945.098000", "163945.110000", "163945.112000", "163945.115000", "163945.118000", "164005.042000", "164005.045000", "164005.048000", "164005.050000", "164005.053000", "164005.055000", "164005.058000", "164005.060000", "164005.063000", "164005.065000", "164005.068000", "164005.071000", "164005.073000", "164005.076000", "164005.078000", "164005.081000", "164005.084000", "164005.086000", "164005.089000", "164005.092000", "164025.030000", "164025.032000", "164025.035000", "164025.038000", "164025.040000", "164025.043000", "164025.045000", "164025.048000", "164025.050000", "164025.053000", "164025.056000", "164025.058000", "164025.061000", "164025.063000", "164025.066000", "164025.068000", "164025.071000", "164025.073000", "164025.076000", "164025.078000", "164045.040000", "164045.043000", "164045.046000", "164045.048000", "164045.051000", "164045.053000", "164045.056000", "164045.058000", "164045.061000", "164045.064000", "164045.066000", "164045.069000", "164045.071000", "164045.074000", "164045.076000", "164045.079000", "164045.082000", "164045.084000", "164045.087000", "164045.089000", "164105.033000", "164105.036000", "164105.052000", "164105.055000", "164105.057000", "164105.060000", "164105.062000", "164105.065000", "164105.067000", "164105.070000", "164105.073000", "164105.075000", "164105.078000", "164105.080000", "164105.083000", "164105.086000", "164105.088000", "164105.091000", "164105.093000", "164105.096000", "164145.087000", "164145.090000", "164145.092000", "164145.095000", "164145.097000", "164145.100000", "164145.103000", "164145.105000", "164145.108000", "164145.110000", "164145.113000", "164145.116000", "164145.118000", "164145.121000", "164145.123000", "164145.126000", "164145.128000", "164145.131000", "164145.134000", "164145.136000", "164145.139000", "164145.141000", "164145.144000", "164145.146000", "164145.149000", "164145.159000", "164145.161000", "164145.164000", "164145.166000", "164225.067000", "164225.070000", "164225.072000", "164225.075000", "164225.077000", "164225.080000", "164225.083000", "164225.085000", "164225.088000", "164225.090000", "164225.093000", "164225.095000", "164225.098000", "164225.101000", "164225.103000", "164225.106000", "164225.108000", "164225.111000", "164225.113000", "164225.116000", "164225.118000", "164225.121000", "164225.124000", "164225.126000", "164225.129000", "164225.131000", "164225.134000", "164305.137000", "164305.140000", "164305.142000", "164305.152000", "164305.154000", "164305.157000", "164305.159000", "164305.162000", "164305.165000", "164305.167000", "164305.170000", "164305.172000", "164305.175000", "164305.177000", "164305.180000", "164305.183000", "164305.185000", "164305.188000", "164305.190000", "164305.193000", "164305.195000", "164305.198000", "164305.200000", "164305.203000", "164305.206000", "164305.208000", "164305.211000", "164345.088000", "164345.090000", "164345.093000", "164345.095000", "164345.098000", "164345.101000", "164345.103000", "164345.106000", "164345.108000", "164345.111000", "164345.113000", "164345.116000", "164345.118000", "164345.121000", "164345.124000", "164345.126000", "164345.129000", "164345.131000", "164345.134000", "164345.137000", "164345.139000", "164345.142000", "164345.144000", "164345.147000", "164345.149000", "164345.152000", "164345.154000", "164425.073000", "164425.076000", "164425.079000", "164425.090000", "164425.093000", "164425.095000", "164425.098000", "164425.100000", "164425.103000", "164425.105000", "164425.108000", "164425.111000", "164425.113000", "164425.116000", "164425.118000", "164425.121000", "164425.124000", "164425.126000", "164425.129000", "164425.131000", "164425.134000", "164425.136000", "164425.139000", "164425.142000", "164425.144000", "164425.147000", "164505.075000", "164505.078000", "164505.081000", "164505.083000", "164505.086000", "164505.088000", "164505.091000", "164505.094000", "164505.096000", "164505.099000", "164505.101000", "164505.104000", "164505.107000", "164505.109000", "164505.112000", "164505.114000", "164505.117000", "164505.119000", "164505.122000", "164505.125000", "164505.127000", "164505.131000", "164505.134000", "164505.137000", "164505.139000", "164505.142000", "164505.145000", "164545.071000", "164545.074000", "164545.076000", "164545.079000", "164545.082000", "164545.084000", "164545.087000", "164545.089000", "164545.092000", "164545.094000", "164545.097000", "164545.100000", "164545.102000", "164545.105000", "164545.107000", "164545.110000", "164545.112000", "164545.115000", "164545.118000", "164545.120000", "164545.123000", "164545.125000", "164545.128000", "164545.130000", "164545.133000", "164545.136000", "164545.138000", "164625.090000", "164625.092000", "164625.095000", "164625.098000", "164625.100000", "164625.103000", "164625.105000", "164625.108000", "164625.110000", "164625.113000", "164625.115000", "164625.118000", "164625.121000", "164625.123000", "164625.126000", "164625.128000", "164625.131000", "164625.133000", "164625.136000", "164625.139000", "164625.141000", "164625.144000", "164625.146000", "164625.149000", "164625.151000", "164625.154000", "164625.156000", "164705.064000", "164705.067000", "164705.069000", "164705.072000", "164705.074000", "164705.077000", "164705.080000", "164705.082000", "164705.085000", "164705.088000", "164705.090000", "164705.093000", "164705.095000", "164705.098000", "164705.101000", "164705.103000", "164705.106000", "164705.108000", "164705.111000", "164705.113000", "164705.116000", "164705.119000", "164705.121000", "164705.124000", "164705.126000", "164705.129000", "164705.132000", "164725.001000", "164725.003000", "164725.006000", "164725.008000", "164725.011000", "164725.014000", "164725.016000", "164725.019000", "164725.021000", "164725.024000", "164725.027000", "164725.029000", "164725.032000", "164805.065000", "164805.068000", "164805.071000", "164805.073000", "164805.076000", "164805.078000", "164805.081000", "164805.083000", "164805.086000", "164805.089000", "164805.091000", "164805.094000", "164805.096000", "164805.099000", "164805.102000", "164805.104000", "164805.107000", "164805.109000", "164805.112000", "164805.114000", "164805.117000", "164805.120000", "164805.122000", "164805.125000", "164805.127000", "164805.130000", "164805.133000", "164845.097000", "164845.099000", "164845.102000", "164845.105000", "164845.107000", "164845.110000", "164845.112000", "164845.115000", "164845.118000", "164845.120000", "164845.123000", "164845.125000", "164845.128000", "164845.130000", "164845.133000", "164845.136000", "164845.138000", "164845.141000", "164845.143000", "164845.146000", "164845.149000", "164845.151000", "164845.154000", "164845.156000", "164845.159000", "164845.161000", "164845.164000", "164925.077000", "164925.080000", "164925.082000", "164925.085000", "164925.087000", "164925.090000", "164925.093000", "164925.095000", "164925.098000", "164925.100000", "164925.103000", "164925.105000", "164925.108000", "164925.111000", "164925.113000", "164925.116000", "164925.118000", "164925.121000", "164925.124000", "164925.126000", "164925.129000", "164925.131000", "164925.134000", "164925.136000", "164925.139000", "164925.142000", "164925.144000", "165000.904000", "165000.907000", "165000.910000", "165000.912000", "165000.915000", "165000.918000", "165000.920000", "165000.923000", "165000.925000", "165000.928000", "165000.930000", "165000.933000", "165000.936000", "165000.938000", "165000.941000", "165000.943000", "165000.946000", "165000.949000", "165000.951000", "165000.954000", "165000.956000", "165000.959000", "165000.962000", "165000.964000"],
