{
  "AcquisitionMatrixPE": 104,
  "AcquisitionNumber": 1,
  "AcquisitionTime": "17:17:16.690000",
  "BandwidthPerPixelPhaseEncode": 17.17,
  "BaseResolution": 104,
  "BodyPartExamined": "BRAIN",
  "CoilCombinationMethod": "Sum of Squares",
  "ConsistencyInfo": "N4_VE11C_LATEST_20160120",
  "ConversionSoftware": "dcm2niix",
  "ConversionSoftwareVersion": "v1.0.20211006",
  "DerivedVendorReportedEchoSpacing": 0.000560011,
  "DeviceSerialNumber": "167006",
  "DwellTime": 2.1e-06,
  "EchoTime": 0.037,
  "EchoTime1": 0.037,
  "EchoTime2": 0.001,
  "EchoTrainLength": 104,
  "EffectiveEchoSpacing": 0.000560011,
  "FlipAngle": 52,
  "HeudiconvVersion": "0.5.3.post569+g418601f",
  "ImageComments": "Unaliased MB4/PE3/LB",
  "ImageOrientationPatientDICOM": [0.99979, -0.0143606, 0.0145977, 0.0186733, 0.931946, -0.362115],
  "ImageOrientationText": "Tra>Cor(-21.2)>Sag(0.5)",
  "ImageType": [
    "ORIGINAL",
    "PRIMARY",
    "P",
    "MB",
    "ND",
    "MOSAIC",
    "PHASE"
],
  "ImagingFrequency": 123.259,
  "InPlanePhaseEncodingDirectionDICOM": "COL",
  "InstitutionAddress": "Chemin Queen-Mary 4565,Montreal,District,CA,H3W 1W5",
  "InstitutionName": "IUGM",
  "InstitutionalDepartmentName": "Department",
  "MRAcquisitionType": "2D",
  "MagneticFieldStrength": 3,
  "Manufacturer": "Siemens",
  "ManufacturersModelName": "Prisma_fit",
  "MatrixCoilMode": "SENSE",
  "Modality": "MR",
  "MultibandAccelerationFactor": 4,
  "PartialFourier": 1,
  "PatientPosition": "HFS",
  "PercentPhaseFOV": 100,
  "PercentSampling": 100,
  "PhaseEncodingDirection": "j",
  "PhaseEncodingSteps": 104,
  "PhaseResolution": 1,
  "PixelBandwidth": 2290,
  "ProcedureStepDescription": "games^mario",
  "ProtocolName": "func_task-mario_run-04",
  "PulseSequenceDetails": "%CustomerSeq%\\cmrr_mbep2d_bold",
  "ReceiveCoilActiveElements": "HC1-7;NC1,2",
  "ReceiveCoilName": "HeadNeck_64",
  "ReconMatrixPE": 104,
  "RepetitionTime": 1.49,
  "SAR": 0.0521166,
  "ScanOptions": "FS",
  "ScanningSequence": "EP",
  "SequenceName": "epfid2d1_104",
  "SequenceVariant": "SK\\SS",
  "SeriesDescription": "func_task-mario_run-04",
  "SeriesNumber": 20,
  "ShimSetting": [604, -7265, -8822, 369, -17, -335, 25, 39],
  "SliceThickness": 2,
  "SliceTiming": [0, 0.785, 0.0975, 0.8825, 0.195, 0.98, 0.295, 1.0775, 0.3925, 1.175, 0.49, 1.275, 0.5875, 1.3725, 0.685, 0, 0.785, 0.0975, 0.8825, 0.195, 0.98, 0.295, 1.0775, 0.3925, 1.175, 0.49, 1.275, 0.5875, 1.3725, 0.685, 0, 0.785, 0.0975, 0.8825, 0.195, 0.98, 0.295, 1.0775, 0.3925, 1.175, 0.49, 1.275, 0.5875, 1.3725, 0.685, 0, 0.785, 0.0975, 0.8825, 0.195, 0.98, 0.295, 1.0775, 0.3925, 1.175, 0.49, 1.275, 0.5875, 1.3725, 0.685],
  "SoftwareVersions": "syngo MR E11",
  "SpacingBetweenSlices": 2,
  "StationName": "MRC35049",
  "TaskName": "mario",
  "TotalReadoutTime": 0.0576811,
  "TxRefAmp": 270.581,
  "WipMemBlock": "2c572aa7-4b7d-42ac-9ff4-fb3848e6f3e1||Sequence: R016 ve11c/master r/e634e98; Dec 19 2017 11:00:25 by eja",
  "dcmmeta_affine": [
    [-1.9995806217193604, 0.03734656795859337, 0.016808195039629936, 102.09883117675781],
    [0.028721211478114128, 1.8638925552368164, -0.7246237397193909, -64.01957702636719],
    [0.02919543907046318, 0.7242303490638733, 1.864038109779358, -63.546077728271484],
    [0.0, 0.0, 0.0, 1.0]
],
  "dcmmeta_reorient_transform": [
    [0.0, -1.0, 0.0, 103.0],
    [1.0, 0.0, 0.0, 0.0],
    [0.0, 0.0, 1.0, 0.0],
    [0.0, 0.0, 0.0, 1.0]
],
  "dcmmeta_shape": [104, 104, 60, 423],
  "dcmmeta_slice_dim": 2,
  "dcmmeta_version": 0.6,
  "global": {
    "const": {
      "AcquisitionMatrix": [104, 0, 0, 104],
      "AngioFlag": "N",
      "BitsAllocated": 16,
      "BitsStored": 16,
      "BodyPartExamined": "BRAIN",
      "Columns": 832,
      "EchoNumbers": 1,
      "EchoTime": 37.0,
      "EchoTrainLength": 104,
      "FlipAngle": 52.0,
      "HighBit": 15,
      "ImageOrientationPatient": [0.99979031781325, -0.0143606058918, 0.01459771918147, 0.01867328474854, 0.93194629644197, -0.3621151874539],
      "ImagePositionPatient": [-847.38702709526, -795.96374616735, 264.0423686094],
      "ImageType": [
        "ORIGINAL",
        "PRIMARY",
        "P",
        "MB",
        "ND",
        "MOSAIC"
],
      "ImagedNucleus": "1H",
      "ImagingFrequency": 123.25879,
      "InPlanePhaseEncodingDirection": "COL",
      "LargestImagePixelValue": 4095,
      "MRAcquisitionType": "2D",
      "MagneticFieldStrength": 3.0,
      "Manufacturer": "SIEMENS",
      "ManufacturerModelName": "Prisma_fit",
      "Modality": "MR",
      "NumberOfAverages": 1.0,
      "NumberOfPhaseEncodingSteps": 104,
      "PercentPhaseFieldOfView": 100.0,
      "PercentSampling": 100.0,
      "PerformedProcedureStepStartTime": "163253.085000",
      "PhotometricInterpretation": "MONOCHROME2",
      "PixelBandwidth": 2290.0,
      "PixelRepresentation": 0,
      "PixelSpacing": [2.0, 2.0],
      "ProtocolName": "func_task-mario_run-04",
      "RepetitionTime": 1490.0,
      "RescaleIntercept": -4096.0,
      "RescaleSlope": 2.0,
      "RescaleType": "US",
      "Rows": 832,
      "SAR": 0.05211657638203,
      "SamplesPerPixel": 1,
      "ScanOptions": "FS",
      "ScanningSequence": "EP",
      "SequenceName": "epfid2d1_104",
      "SequenceVariant": [
        "SK",
        "SS"
],
      "SeriesDescription": "func_task-mario_run-04",
      "SeriesNumber": 20,
      "SeriesTime": "171825.053000",
      "SliceLocation": -35.173055508496,
      "SliceThickness": 2.0,
      "SmallestImagePixelValue": 0,
      "SoftwareVersions": "syngo MR E11",
      "SpacingBetweenSlices": 2.0000000668345,
      "SpecificCharacterSet": "ISO_IR 100",
      "StudyID": "1",
      "StudyTime": "163253.021000",
      "TransmitCoilName": "Body",
      "VariableFlipAngleFlag": "N",
      "WindowCenterWidthExplanation": "Algo1",
      "dBdt": 0.0},
    "slices": {}
  },
  "time": {
    "samples": {
      "AcquisitionNumber": [1, 2, 3, 4, 5, 6, 7, 8, 9, 10, 11, 12, 13, 14, 15, 16, 17, 18, 19, 20, 21, 22, 23, 24, 25, 26, 27, 28, 29, 30, 31, 32, 33, 34, 35, 36, 37, 38, 39, 40, 41, 42, 43, 44, 45, 46, 47, 48, 49, 50, 51, 52, 53, 54, 55, 56, 57, 58, 59, 60, 61, 62, 63, 64, 65, 66, 67, 68, 69, 70, 71, 72, 73, 74, 75, 76, 77, 78, 79, 80, 81, 82, 83, 84, 85, 86, 87, 88, 89, 90, 91, 92, 93, 94, 95, 96, 97, 98, 99, 100, 101, 102, 103, 104, 105, 106, 107, 108, 109, 110, 111, 112, 113, 114, 115, 116, 117, 118, 119, 120, 121, 122, 123, 124, 125, 126, 127, 128, 129, 130, 131, 132, 133, 134, 135, 136, 137, 138, 139, 140, 141, 142, 143, 144, 145, 146, 147, 148, 149, 150, 151, 152, 153, 154, 155, 156, 157, 158, 159, 160, 161, 162, 163, 164, 165, 166, 167, 168, 169, 170, 171, 172, 173, 174, 175, 176, 177, 178, 179, 180, 181, 182, 183, 184, 185, 186, 187, 188, 189, 190, 191, 192, 193, 194, 195, 196, 197, 198, 199, 200, 201, 202, 203, 204, 205, 206, 207, 208, 209, 210, 211, 212, 213, 214, 215, 216, 217, 218, 219, 220, 221, 222, 223, 224, 225, 226, 227, 228, 229, 230, 231, 232, 233, 234, 235, 236, 237, 238, 239, 240, 241, 242, 243, 244, 245, 246, 247, 248, 249, 250, 251, 252, 253, 254, 255, 256, 257, 258, 259, 260, 261, 262, 263, 264, 265, 266, 267, 268, 269, 270, 271, 272, 273, 274, 275, 276, 277, 278, 279, 280, 281, 282, 283, 284, 285, 286, 287, 288, 289, 290, 291, 292, 293, 294, 295, 296, 297, 298, 299, 300, 301, 302, 303, 304, 305, 306, 307, 308, 309, 310, 311, 312, 313, 314, 315, 316, 317, 318, 319, 320, 321, 322, 323, 324, 325, 326, 327, 328, 329, 330, 331, 332, 333, 334, 335, 336, 337, 338, 339, 340, 341, 342, 343, 344, 345, 346, 347, 348, 349, 350, 351, 352, 353, 354, 355, 356, 357, 358, 359, 360, 361, 362, 363, 364, 365, 366, 367, 368, 369, 370, 371, 372, 373, 374, 375, 376, 377, 378, 379, 380, 381, 382, 383, 384, 385, 386, 387, 388, 389, 390, 391, 392, 393, 394, 395, 396, 397, 398, 399, 400, 401, 402, 403, 404, 405, 406, 407, 408, 409, 410, 411, 412, 413, 414, 415, 416, 417, 418, 419, 420, 421, 422, 423],
      "AcquisitionTime": ["171716.690000", "171718.180000", "171719.670000", "171721.160000", "171722.650000", "171724.140000", "171725.630000", "171727.120000", "171728.610000", "171730.100000", "171731.590000", "171733.080000", "171734.570000", "171736.060000", "171737.550000", "171739.040000", "171740.530000", "171742.020000", "171743.510000", "171745.000000", "171746.490000", "171747.980000", "171749.470000", "171750.960000", "171752.450000", "171753.940000", "171755.430000", "171756.920000", "171758.410000", "171759.900000", "171801.390000", "171802.880000", "171804.370000", "171805.860000", "171807.350000", "171808.840000", "171810.330000", "171811.820000", "171813.310000", "171814.800000", "171816.290000", "171817.780000", "171819.270000", "171820.760000", "171822.250000", "171823.740000", "171825.230000", "171826.720000", "171828.210000", "171829.700000", "171831.190000", "171832.680000", "171834.170000", "171835.660000", "171837.150000", "171838.640000", "171840.130000", "171841.620000", "171843.110000", "171844.600000", "171846.090000", "171847.580000", "171849.070000", "171850.560000", "171852.050000", "171853.540000", "171855.030000", "171856.520000", "171858.010000", "171859.500000", "171900.990000", "171902.480000", "171903.970000", "171905.460000", "171906.950000", "171908.440000", "171909.930000", "171911.420000", "171912.910000", "171914.400000", "171915.890000", "171917.380000", "171918.870000", "171920.360000", "171921.850000", "171923.340000", "171924.830000", "171926.320000", "171927.810000", "171929.300000", "171930.790000", "171932.280000", "171933.770000", "171935.260000", "171936.750000", "171938.240000", "171939.730000", "171941.220000", "171942.710000", "171944.200000", "171945.690000", "171947.180000", "171948.670000", "171950.160000", "171951.650000", "171953.140000", "171954.630000", "171956.120000", "171957.610000", "171959.100000", "172000.590000", "172002.080000", "172003.570000", "172005.060000", "172006.550000", "172008.040000", "172009.530000", "172011.020000", "172012.510000", "172014.000000", "172015.490000", "172016.980000", "172018.470000", "172019.960000", "172021.450000", "172022.940000", "172024.430000", "172025.920000", "172027.410000", "172028.900000", "172030.390000", "172031.880000", "172033.370000", "172034.860000", "172036.350000", "172037.840000", "172039.330000", "172040.820000", "172042.310000", "172043.800000", "172045.290000", "172046.780000", "172048.270000", "172049.760000", "172051.250000", "172052.740000", "172054.230000", "172055.720000", "172057.210000", "172058.700000", "172100.190000", "172101.680000", "172103.170000", "172104.660000", "172106.150000", "172107.640000", "172109.130000", "172110.620000", "172112.110000", "172113.600000", "172115.090000", "172116.580000", "172118.070000", "172119.560000", "172121.050000", "172122.540000", "172124.030000", "172125.520000", "172127.010000", "172128.500000", "172129.990000", "172131.480000", "172132.970000", "172134.460000", "172135.950000", "172137.440000", "172138.930000", "172140.420000", "172141.910000", "172143.400000", "172144.890000", "172146.380000", "172147.870000", "172149.360000", "172150.850000", "172152.340000", "172153.830000", "172155.320000", "172156.810000", "172158.300000", "172159.790000", "172201.280000", "172202.770000", "172204.260000", "172205.750000", "172207.240000", "172208.730000", "172210.220000", "172211.710000", "172213.200000", "172214.690000", "172216.180000", "172217.670000", "172219.160000", "172220.650000", "172222.140000", "172223.630000", "172225.120000", "172226.610000", "172228.100000", "172229.590000", "172231.080000", "172232.570000", "172234.060000", "172235.550000", "172237.040000", "172238.530000", "172240.020000", "172241.510000", "172243.000000", "172244.490000", "172245.980000", "172247.470000", "172248.960000", "172250.450000", "172251.940000", "172253.430000", "172254.920000", "172256.410000", "172257.900000", "172259.390000", "172300.880000", "172302.370000", "172303.860000", "172305.350000", "172306.840000", "172308.330000", "172309.820000", "172311.310000", "172312.800000", "172314.290000", "172315.780000", "172317.270000", "172318.760000", "172320.250000", "172321.740000", "172323.230000", "172324.720000", "172326.210000", "172327.700000", "172329.190000", "172330.680000", "172332.170000", "172333.660000", "172335.150000", "172336.640000", "172338.130000", "172339.620000", "172341.110000", "172342.600000", "172344.090000", "172345.580000", "172347.070000", "172348.560000", "172350.050000", "172351.540000", "172353.030000", "172354.520000", "172356.010000", "172357.500000", "172358.990000", "172400.480000", "172401.970000", "172403.460000", "172404.950000", "172406.440000", "172407.930000", "172409.420000", "172410.910000", "172412.400000", "172413.890000", "172415.380000", "172416.870000", "172418.360000", "172419.850000", "172421.340000", "172422.830000", "172424.320000", "172425.810000", "172427.300000", "172428.790000", "172430.280000", "172431.770000", "172433.260000", "172434.750000", "172436.240000", "172437.730000", "172439.220000", "172440.710000", "172442.200000", "172443.690000", "172445.180000", "172446.670000", "172448.160000", "172449.650000", "172451.140000", "172452.630000", "172454.120000", "172455.610000", "172457.100000", "172458.590000", "172500.080000", "172501.570000", "172503.060000", "172504.550000", "172506.040000", "172507.530000", "172509.020000", "172510.510000", "172512.000000", "172513.490000", "172514.980000", "172516.470000", "172517.960000", "172519.450000", "172520.940000", "172522.430000", "172523.920000", "172525.410000", "172526.900000", "172528.390000", "172529.880000", "172531.370000", "172532.860000", "172534.350000", "172535.840000", "172537.330000", "172538.820000", "172540.310000", "172541.800000", "172543.290000", "172544.780000", "172546.270000", "172547.760000", "172549.250000", "172550.740000", "172552.230000", "172553.720000", "172555.210000", "172556.700000", "172558.190000", "172559.680000", "172601.170000", "172602.660000", "172604.150000", "172605.640000", "172607.130000", "172608.620000", "172610.110000", "172611.600000", "172613.090000", "172614.580000", "172616.070000", "172617.560000", "172619.050000", "172620.540000", "172622.030000", "172623.520000", "172625.010000", "172626.500000", "172627.990000", "172629.480000", "172630.970000", "172632.460000", "172633.950000", "172635.440000", "172636.930000", "172638.420000", "172639.910000", "172641.400000", "172642.890000", "172644.380000", "172645.870000", "172647.360000", "172648.850000", "172650.340000", "172651.830000", "172653.320000", "172654.810000", "172656.300000", "172657.790000", "172659.280000", "172700.770000", "172702.260000", "172703.750000", "172705.240000", "172706.730000", "172708.220000", "172709.710000", "172711.200000", "172712.690000", "172714.180000", "172715.670000", "172717.160000", "172718.650000", "172720.140000", "172721.630000", "172723.120000", "172724.610000", "172726.100000", "172727.590000", "172729.080000", "172730.570000", "172732.060000", "172733.550000", "172735.040000", "172736.530000", "172738.020000", "172739.510000", "172741.000000", "172742.490000", "172743.980000", "172745.470000"],
      "ContentTime": ["171825.055000", "171825.058000", "171825.060000", "171825.063000", "171825.066000", "171825.068000", "171825.071000", "171825.073000", "171825.076000", "171825.078000", "171825.081000", "171825.083000", "171825.086000", "171825.088000", "171825.091000", "171845.052000", "171845.055000", "171845.057000", "171845.060000", "171845.063000", "171845.073000", "171845.076000", "171845.078000", "171845.081000", "171845.083000", "171845.086000", "171845.088000", "171845.091000", "171845.093000", "171845.096000", "171845.098000", "171845.101000", "171845.104000", "171845.106000", "171845.109000", "171845.111000", "171905.035000", "171905.038000", "171905.040000", "171905.043000", "171905.046000", "171905.048000", "171905.051000", "171905.053000", "171905.056000", "171905.058000", "171905.061000", "171905.063000", "171905.066000", "171905.069000", "171905.071000", "171905.074000", "171905.077000", "171905.080000", "171905.082000", "171905.085000", "171925.039000", "171925.042000", "171925.045000", "171925.047000", "171925.050000", "171925.053000", "171925.055000", "171925.058000", "171925.061000", "171925.063000", "171925.066000", "171925.068000", "171925.071000", "171925.073000", "171925.076000", "171925.078000", "171925.081000", "171925.084000", "171925.086000", "171925.089000", "171945.039000", "171945.041000", "171945.044000", "171945.047000", "171945.049000", "171945.052000", "171945.054000", "171945.057000", "171945.060000", "171945.062000", "171945.065000", "171945.067000", "171945.070000", "171945.072000", "171945.075000", "171945.078000", "171945.080000", "171945.083000", "171945.085000", "171945.088000", "172025.075000", "172025.078000", "172025.080000", "172025.089000", "172025.092000", "172025.094000", "172025.097000", "172025.099000", "172025.102000", "172025.104000", "172025.107000", "172025.110000", "172025.112000", "172025.115000", "172025.117000", "172025.123000", "172025.126000", "172025.129000", "172025.131000", "172025.134000", "172025.136000", "172025.139000", "172025.141000", "172025.144000", "172025.147000", "172025.149000", "172025.152000", "172025.155000", "172025.157000", "172105.071000", "172105.075000", "172105.077000", "172105.080000", "172105.083000", "172105.085000", "172105.088000", "172105.090000", "172105.093000", "172105.096000", "172105.098000", "172105.101000", "172105.103000", "172105.106000", "172105.108000", "172105.111000", "172105.114000", "172105.116000", "172105.119000", "172105.121000", "172105.124000", "172105.126000", "172105.129000", "172105.132000", "172105.134000", "172105.137000", "172105.139000", "172145.079000", "172145.082000", "172145.085000", "172145.087000", "172145.090000", "172145.093000", "172145.095000", "172145.098000", "172145.100000", "172145.103000", "172145.105000", "172145.108000", "172145.110000", "172145.113000", "172145.116000", "172145.118000", "172145.121000", "172145.123000", "172145.126000", "172145.128000", "172145.131000", "172145.134000", "172145.136000", "172145.139000", "172145.141000", "172145.144000", "172145.147000", "172225.071000", "172225.074000", "172225.076000", "172225.079000", "172225.081000", "172225.084000", "172225.086000", "172225.089000", "172225.092000", "172225.094000", "172225.097000", "172225.100000", "172225.102000", "172225.105000", "172225.107000", "172225.110000", "172225.113000", "172225.115000", "172225.118000", "172225.120000", "172225.123000", "172225.125000", "172225.128000", "172225.131000", "172225.133000", "172225.136000", "172225.138000", "172305.063000", "172305.065000", "172305.068000", "172305.071000", "172305.073000", "172305.076000", "172305.079000", "172305.081000", "172305.084000", "172305.086000", "172305.089000", "172305.091000", "172305.094000", "172305.097000", "172305.099000", "172305.102000", "172305.104000", "172305.107000", "172305.109000", "172305.112000", "172305.115000", "172305.117000", "172305.120000", "172305.122000", "172305.125000", "172305.128000", "172305.130000", "172345.093000", "172345.096000", "172345.098000", "172345.101000", "172345.104000", "172345.106000", "172345.109000", "172345.112000", "172345.114000", "172345.117000", "172345.119000", "172345.122000", "172345.124000", "172345.127000", "172345.130000", "172345.132000", "172345.135000", "172345.137000", "172345.140000", "172345.142000", "172345.145000", "172345.148000", "172345.150000", "172345.161000", "172345.163000", "172345.166000", "172345.168000", "172425.066000", "172425.069000", "172425.072000", "172425.074000", "172425.077000", "172425.085000", "172425.088000", "172425.090000", "172425.093000", "172425.096000", "172425.098000", "172425.101000", "172425.103000", "172425.106000", "172425.108000", "172425.111000", "172425.114000", "172425.116000", "172425.119000", "172425.121000", "172425.124000", "172425.127000", "172425.129000", "172425.132000", "172425.134000", "172425.137000", "172425.139000", "172505.074000", "172505.077000", "172505.080000", "172505.084000", "172505.087000", "172505.090000", "172505.092000", "172505.095000", "172505.098000", "172505.100000", "172505.103000", "172505.106000", "172505.109000", "172505.112000", "172505.114000", "172505.117000", "172505.119000", "172505.122000", "172505.124000", "172505.127000", "172505.130000", "172505.132000", "172505.135000", "172505.137000", "172505.140000", "172505.143000", "172545.070000", "172545.073000", "172545.076000", "172545.078000", "172545.081000", "172545.084000", "172545.086000", "172545.089000", "172545.091000", "172545.094000", "172545.096000", "172545.099000", "172545.102000", "172545.104000", "172545.107000", "172545.109000", "172545.112000", "172545.114000", "172545.117000", "172545.120000", "172545.122000", "172545.125000", "172545.127000", "172545.130000", "172545.132000", "172545.135000", "172545.137000", "172625.554000", "172625.557000", "172625.559000", "172625.562000", "172625.565000", "172625.567000", "172625.570000", "172625.573000", "172625.575000", "172625.578000", "172625.580000", "172625.583000", "172625.586000", "172625.588000", "172625.591000", "172625.593000", "172625.596000", "172625.599000", "172625.601000", "172625.604000", "172625.606000", "172625.609000", "172625.611000", "172625.614000", "172625.617000", "172625.620000", "172625.622000", "172705.145000", "172705.147000", "172705.150000", "172705.162000", "172705.165000", "172705.167000", "172705.170000", "172705.173000", "172705.175000", "172705.178000", "172705.180000", "172705.183000", "172705.186000", "172705.188000", "172705.191000", "172705.193000", "172705.196000", "172705.199000", "172705.201000", "172705.204000", "172705.207000", "172705.209000", "172705.212000", "172705.215000", "172705.217000", "172705.220000", "172705.222000", "172725.006000", "172725.009000", "172725.011000", "172725.014000", "172725.017000", "172725.020000", "172725.023000", "172725.026000", "172725.028000", "172725.031000", "172725.033000", "172725.036000", "172725.039000", "172747.834000", "172747.837000", "172747.840000", "172747.842000", "172747.845000", "172747.848000", "172747.850000", "172747.853000", "172747.855000", "172747.858000", "172747.861000", "172747.863000", "172747.866000", "172747.868000", "172747.871000", "172747.873000"],
      "InstanceCreationTime": ["171825.055000", "171825.058000", "171825.060000", "171825.063000", "171825.066000", "171825.068000", "171825.071000", "171825.073000", "171825.076000", "171825.078000", "171825.081000", "171825.083000", "171825.086000", "171825.088000", "171825.091000", "171845.052000", "171845.055000", "171845.057000", "171845.060000", "171845.063000", "171845.073000", "171845.076000", "171845.078000", "171845.081000", "171845.083000", "171845.086000", "171845.088000", "171845.091000", "171845.093000", "171845.096000", "171845.098000", "171845.101000", "171845.104000", "171845.106000", "171845.109000", "171845.111000", "171905.035000", "171905.038000", "171905.040000", "171905.043000", "171905.046000", "171905.048000", "171905.051000", "171905.053000", "171905.056000", "171905.058000", "171905.061000", "171905.063000", "171905.066000", "171905.069000", "171905.071000", "171905.074000", "171905.077000", "171905.080000", "171905.082000", "171905.085000", "171925.039000", "171925.042000", "171925.045000", "171925.047000", "171925.050000", "171925.053000", "171925.055000", "171925.058000", "171925.061000", "171925.063000", "171925.066000", "171925.068000", "171925.071000", "171925.073000", "171925.076000", "171925.078000", "171925.081000", "171925.084000", "171925.086000", "171925.089000", "171945.039000", "171945.041000", "171945.044000", "171945.047000", "171945.049000", "171945.052000", "171945.054000", "171945.057000", "171945.060000", "171945.062000", "171945.065000", "171945.067000", "171945.070000", "171945.072000", "171945.075000", "171945.078000", "171945.080000", "171945.083000", "171945.085000", "171945.088000", "172025.075000", "172025.078000", "172025.080000", "172025.089000", "172025.092000", "172025.094000", "172025.097000", "172025.099000", "172025.102000", "172025.104000", "172025.107000", "172025.110000", "172025.112000", "172025.115000", "172025.117000", "172025.123000", "172025.126000", "172025.129000", "172025.131000", "172025.134000", "172025.136000", "172025.139000", "172025.141000", "172025.144000", "172025.147000", "172025.149000", "172025.152000", "172025.155000", "172025.157000", "172105.071000", "172105.075000", "172105.077000", "172105.080000", "172105.083000", "172105.085000", "172105.088000", "172105.090000", "172105.093000", "172105.096000", "172105.098000", "172105.101000", "172105.103000", "172105.106000", "172105.108000", "172105.111000", "172105.114000", "172105.116000", "172105.119000", "172105.121000", "172105.124000", "172105.126000", "172105.129000", "172105.132000", "172105.134000", "172105.137000", "172105.139000", "172145.079000", "172145.082000", "172145.085000", "172145.087000", "172145.090000", "172145.093000", "172145.095000", "172145.098000", "172145.100000", "172145.103000", "172145.105000", "172145.108000", "172145.110000", "172145.113000", "172145.116000", "172145.118000", "172145.121000", "172145.123000", "172145.126000", "172145.128000", "172145.131000", "172145.134000", "172145.136000", "172145.139000", "172145.141000", "172145.144000", "172145.147000", "172225.071000", "172225.074000", "172225.076000", "172225.079000", "172225.081000", "172225.084000", "172225.086000", "172225.089000", "172225.092000", "172225.094000", "172225.097000", "172225.100000", "172225.102000", "172225.105000", "172225.107000", "172225.110000", "172225.113000", "172225.115000", "172225.118000", "172225.120000", "172225.123000", "172225.125000", "172225.128000", "172225.131000", "172225.133000", "172225.136000", "172225.138000", "172305.063000", "172305.065000", "172305.068000", "172305.071000", "172305.073000", "172305.076000", "172305.079000", "172305.081000", "172305.084000", "172305.086000", "172305.089000", "172305.091000", "172305.094000", "172305.097000", "172305.099000", "172305.102000", "172305.104000", "172305.107000", "172305.109000", "172305.112000", "172305.115000", "172305.117000", "172305.120000", "172305.122000", "172305.125000", "172305.128000", "172305.130000", "172345.093000", "172345.096000", "172345.098000", "172345.101000", "172345.104000", "172345.106000", "172345.109000", "172345.112000", "172345.114000", "172345.117000", "172345.119000", "172345.122000", "172345.124000", "172345.127000", "172345.130000", "172345.132000", "172345.135000", "172345.137000", "172345.140000", "172345.142000", "172345.145000", "172345.148000", "172345.150000", "172345.161000", "172345.163000", "172345.166000", "172345.168000", "172425.066000", "172425.069000", "172425.072000", "172425.074000", "172425.077000", "172425.085000", "172425.088000", "172425.090000", "172425.093000", "172425.096000", "172425.098000", "172425.101000", "172425.103000", "172425.106000", "172425.108000", "172425.111000", "172425.114000", "172425.116000", "172425.119000", "172425.121000", "172425.124000", "172425.127000", "172425.129000", "172425.132000", "172425.134000", "172425.137000", "172425.139000", "172505.074000", "172505.077000", "172505.080000", "172505.084000", "172505.087000", "172505.090000", "172505.092000", "172505.095000", "172505.098000", "172505.100000", "172505.103000", "172505.106000", "172505.109000", "172505.112000", "172505.114000", "172505.117000", "172505.119000", "172505.122000", "172505.124000", "172505.127000", "172505.130000", "172505.132000", "172505.135000", "172505.137000", "172505.140000", "172505.143000", "172545.070000", "172545.073000", "172545.076000", "172545.078000", "172545.081000", "172545.084000", "172545.086000", "172545.089000", "172545.091000", "172545.094000", "172545.096000", "172545.099000", "172545.102000", "172545.104000", "172545.107000", "172545.109000", "172545.112000", "172545.114000", "172545.117000", "172545.120000", "172545.122000", "172545.125000", "172545.127000", "172545.130000", "172545.132000", "172545.135000", "172545.137000", "172625.554000", "172625.557000", "172625.559000", "172625.562000", "172625.565000", "172625.567000", "172625.570000", "172625.573000", "172625.575000", "172625.578000", "172625.580000", "172625.583000", "172625.586000", "172625.588000", "172625.591000", "172625.593000", "172625.596000", "172625.599000", "172625.601000", "172625.604000", "172625.606000", "172625.609000", "172625.611000", "172625.614000", "172625.617000", "172625.620000", "172625.622000", "172705.145000", "172705.147000", "172705.150000", "172705.162000", "172705.165000", "172705.167000", "172705.170000", "172705.173000", "172705.175000", "172705.178000", "172705.180000", "172705.183000", "172705.186000", "172705.188000", "172705.191000", "172705.193000", "172705.196000", "172705.199000", "172705.201000", "172705.204000", "172705.207000", "172705.209000", "172705.212000", "172705.215000", "172705.217000", "172705.220000", "172705.222000", "172725.006000", "172725.009000", "172725.011000", "172725.014000", "172725.017000", "172725.020000", "172725.023000", "172725.026000", "172725.028000", "172725.031000", "172725.033000", "172725.036000", "172725.039000", "172747.834000", "172747.837000", "172747.840000", "172747.842000", "172747.845000", "172747.848000", "172747.850000", "172747.853000", "172747.855000", "172747.858000", "172747.861000", "172747.863000", "172747.866000", "172747.868000", "172747.871000", "172747.873000"],
