{
  "AcquisitionMatrixPE": 104,
  "AcquisitionNumber": 1,
  "AcquisitionTime": "16:52:39.387500",
  "BandwidthPerPixelPhaseEncode": 17.17,
  "BaseResolution": 104,
  "BodyPartExamined": "BRAIN",
  "CoilCombinationMethod": "Sum of Squares",
  "ConsistencyInfo": "N4_VE11C_LATEST_20160120",
  "ConversionSoftware": "dcm2niix",
  "ConversionSoftwareVersion": "v1.0.20211006",
  "DerivedVendorReportedEchoSpacing": 0.000560011,
  "DeviceSerialNumber": "167006",
  "DwellTime": 2.1e-06,
  "EchoTime": 0.037,
  "EchoTime1": 0.037,
  "EchoTime2": 0.001,
  "EchoTrainLength": 104,
  "EffectiveEchoSpacing": 0.000560011,
  "FlipAngle": 52,
  "HeudiconvVersion": "0.5.3.post569+g418601f",
  "ImageComments": "Unaliased MB4/PE3/LB",
  "ImageOrientationPatientDICOM": [0.99979, -0.0143606, 0.0145977, 0.0186733, 0.931946, -0.362115],
  "ImageOrientationText": "Tra>Cor(-21.2)>Sag(0.5)",
  "ImageType": [
    "ORIGINAL",
    "PRIMARY",
    "P",
    "MB",
    "ND",
    "MOSAIC",
    "PHASE"
],
  "ImagingFrequency": 123.259,
  "InPlanePhaseEncodingDirectionDICOM": "COL",
  "InstitutionAddress": "Chemin Queen-Mary 4565,Montreal,District,CA,H3W 1W5",
  "InstitutionName": "IUGM",
  "InstitutionalDepartmentName": "Department",
  "MRAcquisitionType": "2D",
  "MagneticFieldStrength": 3,
  "Manufacturer": "Siemens",
  "ManufacturersModelName": "Prisma_fit",
  "MatrixCoilMode": "SENSE",
  "Modality": "MR",
  "MultibandAccelerationFactor": 4,
  "PartialFourier": 1,
  "PatientPosition": "HFS",
  "PercentPhaseFOV": 100,
  "PercentSampling": 100,
  "PhaseEncodingDirection": "j",
  "PhaseEncodingSteps": 104,
  "PhaseResolution": 1,
  "PixelBandwidth": 2290,
  "ProcedureStepDescription": "games^mario",
  "ProtocolName": "func_task-mario_run-02",
  "PulseSequenceDetails": "%CustomerSeq%\\cmrr_mbep2d_bold",
  "ReceiveCoilActiveElements": "HC1-7;NC1,2",
  "ReceiveCoilName": "HeadNeck_64",
  "ReconMatrixPE": 104,
  "RepetitionTime": 1.49,
  "SAR": 0.0521166,
  "ScanOptions": "FS",
  "ScanningSequence": "EP",
  "SequenceName": "epfid2d1_104",
  "SequenceVariant": "SK\\SS",
  "SeriesDescription": "func_task-mario_run-02",
  "SeriesNumber": 14,
  "ShimSetting": [604, -7265, -8822, 369, -17, -335, 25, 39],
  "SliceThickness": 2,
  "SliceTiming": [0, 0.785, 0.0975, 0.8825, 0.195, 0.98, 0.295, 1.0775, 0.3925, 1.175, 0.49, 1.275, 0.5875, 1.3725, 0.685, 0, 0.785, 0.0975, 0.8825, 0.195, 0.98, 0.295, 1.0775, 0.3925, 1.175, 0.49, 1.275, 0.5875, 1.3725, 0.685, 0, 0.785, 0.0975, 0.8825, 0.195, 0.98, 0.295, 1.0775, 0.3925, 1.175, 0.49, 1.275, 0.5875, 1.3725, 0.685, 0, 0.785, 0.0975, 0.8825, 0.195, 0.98, 0.295, 1.0775, 0.3925, 1.175, 0.49, 1.275, 0.5875, 1.3725, 0.685],
  "SoftwareVersions": "syngo MR E11",
  "SpacingBetweenSlices": 2,
  "StationName": "MRC35049",
  "TaskName": "mario",
  "TotalReadoutTime": 0.0576811,
  "TxRefAmp": 270.581,
  "WipMemBlock": "1bd30a95-dfd9-4a52-babd-a5faf9a04501||Sequence: R016 ve11c/master r/e634e98; Dec 19 2017 11:00:25 by eja",
  "dcmmeta_affine": [
    [-1.9995806217193604, 0.03734656795859337, 0.016808195039629936, 102.09883117675781],
    [0.028721211478114128, 1.8638925552368164, -0.7246237397193909, -64.01957702636719],
    [0.02919543907046318, 0.7242303490638733, 1.864038109779358, -63.546077728271484],
    [0.0, 0.0, 0.0, 1.0]
],
  "dcmmeta_reorient_transform": [
    [0.0, -1.0, 0.0, 103.0],
    [1.0, 0.0, 0.0, 0.0],
    [0.0, 0.0, 1.0, 0.0],
    [0.0, 0.0, 0.0, 1.0]
],
  "dcmmeta_shape": [104, 104, 60, 427],
  "dcmmeta_slice_dim": 2,
  "dcmmeta_version": 0.6,
  "global": {
    "const": {
      "AcquisitionMatrix": [104, 0, 0, 104],
      "AngioFlag": "N",
      "BitsAllocated": 16,
      "BitsStored": 16,
      "BodyPartExamined": "BRAIN",
      "Columns": 832,
      "EchoNumbers": 1,
      "EchoTime": 37.0,
      "EchoTrainLength": 104,
      "FlipAngle": 52.0,
      "HighBit": 15,
      "ImageOrientationPatient": [0.99979031781325, -0.0143606058918, 0.01459771918147, 0.01867328474854, 0.93194629644197, -0.3621151874539],
      "ImagePositionPatient": [-847.38702709526, -795.96374616735, 264.0423686094],
      "ImageType": [
        "ORIGINAL",
        "PRIMARY",
        "P",
        "MB",
        "ND",
        "MOSAIC"
],
      "ImagedNucleus": "1H",
      "ImagingFrequency": 123.258784,
      "InPlanePhaseEncodingDirection": "COL",
      "LargestImagePixelValue": 4095,
      "MRAcquisitionType": "2D",
      "MagneticFieldStrength": 3.0,
      "Manufacturer": "SIEMENS",
      "ManufacturerModelName": "Prisma_fit",
      "Modality": "MR",
      "NumberOfAverages": 1.0,
      "NumberOfPhaseEncodingSteps": 104,
      "PercentPhaseFieldOfView": 100.0,
      "PercentSampling": 100.0,
      "PerformedProcedureStepStartTime": "163253.085000",
      "PhotometricInterpretation": "MONOCHROME2",
      "PixelBandwidth": 2290.0,
      "PixelRepresentation": 0,
      "PixelSpacing": [2.0, 2.0],
      "ProtocolName": "func_task-mario_run-02",
      "RepetitionTime": 1490.0,
      "RescaleIntercept": -4096.0,
      "RescaleSlope": 2.0,
      "RescaleType": "US",
      "Rows": 832,
      "SAR": 0.05211657638203,
      "SamplesPerPixel": 1,
      "ScanOptions": "FS",
      "ScanningSequence": "EP",
      "SequenceName": "epfid2d1_104",
      "SequenceVariant": [
        "SK",
        "SS"
],
      "SeriesDescription": "func_task-mario_run-02",
      "SeriesNumber": 14,
      "SeriesTime": "165355.944000",
      "SliceLocation": -35.173055508496,
      "SliceThickness": 2.0,
      "SmallestImagePixelValue": 0,
      "SoftwareVersions": "syngo MR E11",
      "SpacingBetweenSlices": 2.0000000668345,
      "SpecificCharacterSet": "ISO_IR 100",
      "StudyID": "1",
      "StudyTime": "163253.021000",
      "TransmitCoilName": "Body",
      "VariableFlipAngleFlag": "N",
      "WindowCenterWidthExplanation": "Algo1",
      "dBdt": 0.0},
    "slices": {}
  },
  "time": {
    "samples": {
      "AcquisitionNumber": [1, 2, 3, 4, 5, 6, 7, 8, 9, 10, 11, 12, 13, 14, 15, 16, 17, 18, 19, 20, 21, 22, 23, 24, 25, 26, 27, 28, 29, 30, 31, 32, 33, 34, 35, 36, 37, 38, 39, 40, 41, 42, 43, 44, 45, 46, 47, 48, 49, 50, 51, 52, 53, 54, 55, 56, 57, 58, 59, 60, 61, 62, 63, 64, 65, 66, 67, 68, 69, 70, 71, 72, 73, 74, 75, 76, 77, 78, 79, 80, 81, 82, 83, 84, 85, 86, 87, 88, 89, 90, 91, 92, 93, 94, 95, 96, 97, 98, 99, 100, 101, 102, 103, 104, 105, 106, 107, 108, 109, 110, 111, 112, 113, 114, 115, 116, 117, 118, 119, 120, 121, 122, 123, 124, 125, 126, 127, 128, 129, 130, 131, 132, 133, 134, 135, 136, 137, 138, 139, 140, 141, 142, 143, 144, 145, 146, 147, 148, 149, 150, 151, 152, 153, 154, 155, 156, 157, 158, 159, 160, 161, 162, 163, 164, 165, 166, 167, 168, 169, 170, 171, 172, 173, 174, 175, 176, 177, 178, 179, 180, 181, 182, 183, 184, 185, 186, 187, 188, 189, 190, 191, 192, 193, 194, 195, 196, 197, 198, 199, 200, 201, 202, 203, 204, 205, 206, 207, 208, 209, 210, 211, 212, 213, 214, 215, 216, 217, 218, 219, 220, 221, 222, 223, 224, 225, 226, 227, 228, 229, 230, 231, 232, 233, 234, 235, 236, 237, 238, 239, 240, 241, 242, 243, 244, 245, 246, 247, 248, 249, 250, 251, 252, 253, 254, 255, 256, 257, 258, 259, 260, 261, 262, 263, 264, 265, 266, 267, 268, 269, 270, 271, 272, 273, 274, 275, 276, 277, 278, 279, 280, 281, 282, 283, 284, 285, 286, 287, 288, 289, 290, 291, 292, 293, 294, 295, 296, 297, 298, 299, 300, 301, 302, 303, 304, 305, 306, 307, 308, 309, 310, 311, 312, 313, 314, 315, 316, 317, 318, 319, 320, 321, 322, 323, 324, 325, 326, 327, 328, 329, 330, 331, 332, 333, 334, 335, 336, 337, 338, 339, 340, 341, 342, 343, 344, 345, 346, 347, 348, 349, 350, 351, 352, 353, 354, 355, 356, 357, 358, 359, 360, 361, 362, 363, 364, 365, 366, 367, 368, 369, 370, 371, 372, 373, 374, 375, 376, 377, 378, 379, 380, 381, 382, 383, 384, 385, 386, 387, 388, 389, 390, 391, 392, 393, 394, 395, 396, 397, 398, 399, 400, 401, 402, 403, 404, 405, 406, 407, 408, 409, 410, 411, 412, 413, 414, 415, 416, 417, 418, 419, 420, 421, 422, 423, 424, 425, 426, 427],
      "AcquisitionTime": ["165239.387500", "165240.877500", "165242.367500", "165243.857500", "165245.347500", "165246.837500", "165248.327500", "165249.817500", "165251.307500", "165252.797500", "165254.287500", "165255.777500", "165257.267500", "165258.757500", "165300.247500", "165301.737500", "165303.227500", "165304.717500", "165306.207500", "165307.697500", "165309.187500", "165310.677500", "165312.167500", "165313.657500", "165315.147500", "165316.637500", "165318.127500", "165319.617500", "165321.107500", "165322.597500", "165324.087500", "165325.577500", "165327.067500", "165328.557500", "165330.047500", "165331.537500", "165333.027500", "165334.517500", "165336.007500", "165337.497500", "165338.987500", "165340.477500", "165341.967500", "165343.457500", "165344.947500", "165346.437500", "165347.927500", "165349.417500", "165350.907500", "165352.397500", "165353.887500", "165355.377500", "165356.867500", "165358.357500", "165359.847500", "165401.337500", "165402.827500", "165404.317500", "165405.807500", "165407.297500", "165408.787500", "165410.277500", "165411.767500", "165413.257500", "165414.747500", "165416.237500", "165417.727500", "165419.217500", "165420.707500", "165422.197500", "165423.687500", "165425.177500", "165426.667500", "165428.157500", "165429.647500", "165431.137500", "165432.627500", "165434.117500", "165435.607500", "165437.097500", "165438.587500", "165440.077500", "165441.567500", "165443.057500", "165444.547500", "165446.037500", "165447.527500", "165449.017500", "165450.507500", "165451.997500", "165453.487500", "165454.977500", "165456.467500", "165457.957500", "165459.447500", "165500.937500", "165502.427500", "165503.917500", "165505.407500", "165506.897500", "165508.387500", "165509.877500", "165511.367500", "165512.857500", "165514.347500", "165515.837500", "165517.327500", "165518.817500", "165520.307500", "165521.797500", "165523.287500", "165524.777500", "165526.267500", "165527.757500", "165529.247500", "165530.737500", "165532.227500", "165533.717500", "165535.207500", "165536.697500", "165538.187500", "165539.677500", "165541.167500", "165542.657500", "165544.147500", "165545.637500", "165547.127500", "165548.617500", "165550.107500", "165551.597500", "165553.087500", "165554.577500", "165556.067500", "165557.557500", "165559.047500", "165600.537500", "165602.027500", "165603.517500", "165605.007500", "165606.497500", "165607.987500", "165609.477500", "165610.967500", "165612.457500", "165613.947500", "165615.437500", "165616.927500", "165618.417500", "165619.907500", "165621.397500", "165622.887500", "165624.377500", "165625.867500", "165627.357500", "165628.847500", "165630.337500", "165631.827500", "165633.317500", "165634.807500", "165636.297500", "165637.787500", "165639.277500", "165640.767500", "165642.257500", "165643.747500", "165645.237500", "165646.727500", "165648.217500", "165649.707500", "165651.197500", "165652.687500", "165654.177500", "165655.667500", "165657.157500", "165658.647500", "165700.137500", "165701.627500", "165703.117500", "165704.607500", "165706.097500", "165707.587500", "165709.077500", "165710.567500", "165712.057500", "165713.547500", "165715.037500", "165716.527500", "165718.017500", "165719.507500", "165720.997500", "165722.487500", "165723.977500", "165725.467500", "165726.957500", "165728.447500", "165729.937500", "165731.427500", "165732.917500", "165734.407500", "165735.897500", "165737.387500", "165738.877500", "165740.367500", "165741.857500", "165743.347500", "165744.837500", "165746.327500", "165747.817500", "165749.307500", "165750.797500", "165752.287500", "165753.777500", "165755.267500", "165756.757500", "165758.247500", "165759.737500", "165801.227500", "165802.717500", "165804.207500", "165805.697500", "165807.187500", "165808.677500", "165810.167500", "165811.657500", "165813.147500", "165814.637500", "165816.127500", "165817.617500", "165819.107500", "165820.597500", "165822.087500", "165823.577500", "165825.067500", "165826.557500", "165828.047500", "165829.537500", "165831.027500", "165832.517500", "165834.007500", "165835.497500", "165836.987500", "165838.477500", "165839.967500", "165841.457500", "165842.947500", "165844.437500", "165845.927500", "165847.417500", "165848.907500", "165850.397500", "165851.887500", "165853.377500", "165854.867500", "165856.357500", "165857.847500", "165859.337500", "165900.827500", "165902.317500", "165903.807500", "165905.297500", "165906.787500", "165908.277500", "165909.767500", "165911.257500", "165912.747500", "165914.237500", "165915.727500", "165917.217500", "165918.707500", "165920.197500", "165921.687500", "165923.177500", "165924.667500", "165926.157500", "165927.647500", "165929.137500", "165930.627500", "165932.117500", "165933.607500", "165935.097500", "165936.587500", "165938.077500", "165939.567500", "165941.057500", "165942.547500", "165944.037500", "165945.527500", "165947.017500", "165948.507500", "165949.997500", "165951.487500", "165952.977500", "165954.467500", "165955.957500", "165957.447500", "165958.937500", "170000.427500", "170001.917500", "170003.407500", "170004.897500", "170006.387500", "170007.877500", "170009.367500", "170010.857500", "170012.347500", "170013.837500", "170015.327500", "170016.817500", "170018.307500", "170019.797500", "170021.287500", "170022.777500", "170024.267500", "170025.757500", "170027.247500", "170028.737500", "170030.227500", "170031.717500", "170033.207500", "170034.697500", "170036.187500", "170037.677500", "170039.167500", "170040.657500", "170042.147500", "170043.637500", "170045.127500", "170046.617500", "170048.107500", "170049.597500", "170051.087500", "170052.577500", "170054.067500", "170055.557500", "170057.047500", "170058.537500", "170100.027500", "170101.517500", "170103.007500", "170104.497500", "170105.987500", "170107.477500", "170108.967500", "170110.457500", "170111.947500", "170113.437500", "170114.927500", "170116.417500", "170117.907500", "170119.397500", "170120.887500", "170122.377500", "170123.867500", "170125.357500", "170126.847500", "170128.337500", "170129.827500", "170131.317500", "170132.807500", "170134.297500", "170135.787500", "170137.277500", "170138.767500", "170140.257500", "170141.747500", "170143.237500", "170144.727500", "170146.217500", "170147.707500", "170149.197500", "170150.687500", "170152.177500", "170153.667500", "170155.157500", "170156.647500", "170158.137500", "170159.627500", "170201.117500", "170202.607500", "170204.097500", "170205.587500", "170207.077500", "170208.567500", "170210.057500", "170211.547500", "170213.037500", "170214.527500", "170216.017500", "170217.507500", "170218.997500", "170220.487500", "170221.977500", "170223.467500", "170224.957500", "170226.447500", "170227.937500", "170229.427500", "170230.917500", "170232.407500", "170233.897500", "170235.387500", "170236.877500", "170238.367500", "170239.857500", "170241.347500", "170242.837500", "170244.327500", "170245.817500", "170247.307500", "170248.797500", "170250.287500", "170251.777500", "170253.267500", "170254.757500", "170256.247500", "170257.737500", "170259.227500", "170300.717500", "170302.207500", "170303.697500", "170305.187500", "170306.677500", "170308.167500", "170309.657500", "170311.147500", "170312.637500", "170314.127500"],
      "ContentTime": ["165355.946000", "165355.948000", "165355.951000", "165355.954000", "165355.962000", "165355.965000", "165355.967000", "165355.970000", "165355.973000", "165355.975000", "165355.978000", "165355.980000", "165355.983000", "165355.985000", "165355.988000", "165355.990000", "165355.993000", "165355.995000", "165355.998000", "165356.002000", "165356.004000", "165356.007000", "165356.009000", "165415.897000", "165415.900000", "165415.902000", "165415.905000", "165415.918000", "165415.921000", "165415.923000", "165415.926000", "165415.928000", "165415.931000", "165415.934000", "165415.936000", "165415.939000", "165415.941000", "165415.944000", "165415.946000", "165415.949000", "165415.951000", "165415.954000", "165415.956000", "165415.959000", "165435.890000", "165435.893000", "165435.895000", "165435.898000", "165435.901000", "165435.903000", "165435.906000", "165435.908000", "165435.911000", "165435.913000", "165435.916000", "165435.918000", "165435.921000", "165435.924000", "165435.934000", "165435.937000", "165435.940000", "165435.942000", "165435.945000", "165435.947000", "165455.879000", "165455.882000", "165455.884000", "165455.887000", "165455.890000", "165455.892000", "165455.895000", "165455.897000", "165455.900000", "165455.902000", "165455.905000", "165455.907000", "165455.910000", "165455.913000", "165455.915000", "165455.918000", "165455.920000", "165455.923000", "165455.925000", "165455.928000", "165515.906000", "165515.909000", "165515.912000", "165515.914000", "165515.917000", "165515.919000", "165515.922000", "165515.924000", "165515.927000", "165515.930000", "165515.932000", "165515.935000", "165515.937000", "165515.940000", "165515.942000", "165515.945000", "165515.948000", "165515.950000", "165515.953000", "165515.955000", "165555.937000", "165555.939000", "165555.951000", "165555.953000", "165555.956000", "165555.958000", "165555.961000", "165555.963000", "165555.966000", "165555.969000", "165555.971000", "165555.974000", "165555.976000", "165555.979000", "165555.981000", "165555.984000", "165555.986000", "165555.989000", "165555.992000", "165555.994000", "165555.997000", "165556.000000", "165556.003000", "165556.005000", "165556.008000", "165556.011000", "165556.013000", "165635.915000", "165635.918000", "165635.921000", "165635.923000", "165635.926000", "165635.928000", "165635.931000", "165635.934000", "165635.936000", "165635.939000", "165635.941000", "165635.944000", "165635.946000", "165635.949000", "165635.951000", "165635.954000", "165635.957000", "165635.959000", "165635.962000", "165635.964000", "165635.967000", "165635.969000", "165635.972000", "165635.974000", "165635.977000", "165635.979000", "165635.982000", "165715.918000", "165715.921000", "165715.924000", "165715.926000", "165715.929000", "165715.931000", "165715.934000", "165715.936000", "165715.939000", "165715.941000", "165715.944000", "165715.946000", "165715.949000", "165715.952000", "165715.954000", "165715.957000", "165715.959000", "165715.962000", "165715.964000", "165715.967000", "165715.969000", "165715.972000", "165715.974000", "165715.977000", "165715.979000", "165715.982000", "165715.985000", "165735.853000", "165735.856000", "165735.859000", "165735.861000", "165735.864000", "165735.866000", "165735.869000", "165735.871000", "165735.874000", "165735.876000", "165735.879000", "165735.881000", "165735.884000", "165815.918000", "165815.921000", "165815.924000", "165815.926000", "165815.929000", "165815.931000", "165815.934000", "165815.937000", "165815.939000", "165815.942000", "165815.944000", "165815.947000", "165815.949000", "165815.952000", "165815.955000", "165815.957000", "165815.960000", "165815.962000", "165815.965000", "165815.967000", "165815.970000", "165815.973000", "165815.975000", "165815.978000", "165815.980000", "165815.983000", "165815.985000", "165855.903000", "165855.906000", "165855.908000", "165855.911000", "165855.914000", "165855.916000", "165855.919000", "165855.921000", "165855.924000", "165855.926000", "165855.929000", "165855.932000", "165855.934000", "165855.937000", "165855.939000", "165855.942000", "165855.944000", "165855.947000", "165855.949000", "165855.952000", "165855.954000", "165855.957000", "165855.959000", "165855.962000", "165855.965000", "165855.967000", "165855.970000", "165935.968000", "165935.971000", "165935.973000", "165935.976000", "165935.978000", "165935.981000", "165935.984000", "165935.986000", "165935.989000", "165935.991000", "165935.994000", "165935.996000", "165936.000000", "165936.003000", "165936.005000", "165936.008000", "165936.010000", "165936.013000", "165936.016000", "165936.018000", "165936.021000", "165936.023000", "165936.026000", "165936.028000", "165936.031000", "165936.033000", "165936.036000", "170015.965000", "170015.968000", "170015.971000", "170015.973000", "170015.976000", "170015.979000", "170015.981000", "170015.984000", "170015.987000", "170015.989000", "170015.992000", "170015.995000", "170015.997000", "170016.001000", "170016.004000", "170016.006000", "170016.009000", "170016.011000", "170016.014000", "170016.017000", "170016.019000", "170016.022000", "170016.024000", "170016.027000", "170016.030000", "170016.033000", "170016.036000", "170055.915000", "170055.918000", "170055.920000", "170055.923000", "170055.926000", "170055.928000", "170055.931000", "170055.933000", "170055.936000", "170055.938000", "170055.941000", "170055.944000", "170055.946000", "170055.949000", "170055.951000", "170055.954000", "170055.956000", "170055.959000", "170055.962000", "170055.964000", "170055.967000", "170055.969000", "170055.972000", "170055.975000", "170055.977000", "170055.980000", "170135.912000", "170135.915000", "170135.918000", "170135.920000", "170135.923000", "170135.926000", "170135.928000", "170135.931000", "170135.933000", "170135.936000", "170135.939000", "170135.941000", "170135.944000", "170135.947000", "170135.949000", "170135.952000", "170135.954000", "170135.957000", "170135.959000", "170135.962000", "170135.965000", "170135.969000", "170135.971000", "170135.974000", "170135.976000", "170135.979000", "170135.982000", "170215.920000", "170215.923000", "170215.926000", "170215.928000", "170215.931000", "170215.933000", "170215.936000", "170215.939000", "170215.941000", "170215.944000", "170215.946000", "170215.949000", "170215.952000", "170215.954000", "170215.957000", "170215.959000", "170215.962000", "170215.964000", "170215.967000", "170215.969000", "170215.972000", "170215.975000", "170215.977000", "170215.980000", "170215.982000", "170215.985000", "170215.987000", "170255.917000", "170255.920000", "170255.922000", "170255.925000", "170255.927000", "170255.930000", "170255.933000", "170255.935000", "170255.938000", "170255.940000", "170255.943000", "170255.946000", "170255.948000", "170255.951000", "170255.953000", "170255.956000", "170255.958000", "170255.961000", "170255.964000", "170255.966000", "170255.969000", "170255.971000", "170255.974000", "170255.976000", "170255.979000", "170255.982000", "170255.984000", "170316.530000", "170316.533000", "170316.535000", "170316.538000", "170316.540000", "170316.543000", "170316.545000", "170316.548000", "170316.551000", "170316.553000", "170316.556000", "170316.558000", "170316.561000", "170316.563000"],
      "InstanceCreationTime": ["165355.946000", "165355.948000", "165355.951000", "165355.954000", "165355.962000", "165355.965000", "165355.967000", "165355.970000", "165355.973000", "165355.975000", "165355.978000", "165355.980000", "165355.983000", "165355.985000", "165355.988000", "165355.990000", "165355.993000", "165355.995000", "165355.998000", "165356.002000", "165356.004000", "165356.007000", "165356.009000", "165415.897000", "165415.900000", "165415.902000", "165415.905000", "165415.918000", "165415.921000", "165415.923000", "165415.926000", "165415.928000", "165415.931000", "165415.934000", "165415.936000", "165415.939000", "165415.941000", "165415.944000", "165415.946000", "165415.949000", "165415.951000", "165415.954000", "165415.956000", "165415.959000", "165435.890000", "165435.893000", "165435.895000", "165435.898000", "165435.901000", "165435.903000", "165435.906000", "165435.908000", "165435.911000", "165435.913000", "165435.916000", "165435.918000", "165435.921000", "165435.924000", "165435.934000", "165435.937000", "165435.940000", "165435.942000", "165435.945000", "165435.947000", "165455.879000", "165455.882000", "165455.884000", "165455.887000", "165455.890000", "165455.892000", "165455.895000", "165455.897000", "165455.900000", "165455.902000", "165455.905000", "165455.907000", "165455.910000", "165455.913000", "165455.915000", "165455.918000", "165455.920000", "165455.923000", "165455.925000", "165455.928000", "165515.906000", "165515.909000", "165515.912000", "165515.914000", "165515.917000", "165515.919000", "165515.922000", "165515.924000", "165515.927000", "165515.930000", "165515.932000", "165515.935000", "165515.937000", "165515.940000", "165515.942000", "165515.945000", "165515.948000", "165515.950000", "165515.953000", "165515.955000", "165555.937000", "165555.939000", "165555.951000", "165555.953000", "165555.956000", "165555.958000", "165555.961000", "165555.963000", "165555.966000", "165555.969000", "165555.971000", "165555.974000", "165555.976000", "165555.979000", "165555.981000", "165555.984000", "165555.986000", "165555.989000", "165555.992000", "165555.994000", "165555.997000", "165556.000000", "165556.003000", "165556.005000", "165556.008000", "165556.011000", "165556.013000", "165635.915000", "165635.918000", "165635.921000", "165635.923000", "165635.926000", "165635.928000", "165635.931000", "165635.934000", "165635.936000", "165635.939000", "165635.941000", "165635.944000", "165635.946000", "165635.949000", "165635.951000", "165635.954000", "165635.957000", "165635.959000", "165635.962000", "165635.964000", "165635.967000", "165635.969000", "165635.972000", "165635.974000", "165635.977000", "165635.979000", "165635.982000", "165715.918000", "165715.921000", "165715.924000", "165715.926000", "165715.929000", "165715.931000", "165715.934000", "165715.936000", "165715.939000", "165715.941000", "165715.944000", "165715.946000", "165715.949000", "165715.952000", "165715.954000", "165715.957000", "165715.959000", "165715.962000", "165715.964000", "165715.967000", "165715.969000", "165715.972000", "165715.974000", "165715.977000", "165715.979000", "165715.982000", "165715.985000", "165735.853000", "165735.856000", "165735.859000", "165735.861000", "165735.864000", "165735.866000", "165735.869000", "165735.871000", "165735.874000", "165735.876000", "165735.879000", "165735.881000", "165735.884000", "165815.918000", "165815.921000", "165815.924000", "165815.926000", "165815.929000", "165815.931000", "165815.934000", "165815.937000", "165815.939000", "165815.942000", "165815.944000", "165815.947000", "165815.949000", "165815.952000", "165815.955000", "165815.957000", "165815.960000", "165815.962000", "165815.965000", "165815.967000", "165815.970000", "165815.973000", "165815.975000", "165815.978000", "165815.980000", "165815.983000", "165815.985000", "165855.903000", "165855.906000", "165855.908000", "165855.911000", "165855.914000", "165855.916000", "165855.919000", "165855.921000", "165855.924000", "165855.926000", "165855.929000", "165855.932000", "165855.934000", "165855.937000", "165855.939000", "165855.942000", "165855.944000", "165855.947000", "165855.949000", "165855.952000", "165855.954000", "165855.957000", "165855.959000", "165855.962000", "165855.965000", "165855.967000", "165855.970000", "165935.968000", "165935.971000", "165935.973000", "165935.976000", "165935.978000", "165935.981000", "165935.984000", "165935.986000", "165935.989000", "165935.991000", "165935.994000", "165935.996000", "165936.000000", "165936.003000", "165936.005000", "165936.008000", "165936.010000", "165936.013000", "165936.016000", "165936.018000", "165936.021000", "165936.023000", "165936.026000", "165936.028000", "165936.031000", "165936.033000", "165936.036000", "170015.965000", "170015.968000", "170015.971000", "170015.973000", "170015.976000", "170015.979000", "170015.981000", "170015.984000", "170015.987000", "170015.989000", "170015.992000", "170015.995000", "170015.997000", "170016.001000", "170016.004000", "170016.006000", "170016.009000", "170016.011000", "170016.014000", "170016.017000", "170016.019000", "170016.022000", "170016.024000", "170016.027000", "170016.030000", "170016.033000", "170016.036000", "170055.915000", "170055.918000", "170055.920000", "170055.923000", "170055.926000", "170055.928000", "170055.931000", "170055.933000", "170055.936000", "170055.938000", "170055.941000", "170055.944000", "170055.946000", "170055.949000", "170055.951000", "170055.954000", "170055.956000", "170055.959000", "170055.962000", "170055.964000", "170055.967000", "170055.969000", "170055.972000", "170055.975000", "170055.977000", "170055.980000", "170135.912000", "170135.915000", "170135.918000", "170135.920000", "170135.923000", "170135.926000", "170135.928000", "170135.931000", "170135.933000", "170135.936000", "170135.939000", "170135.941000", "170135.944000", "170135.947000", "170135.949000", "170135.952000", "170135.954000", "170135.957000", "170135.959000", "170135.962000", "170135.965000", "170135.969000", "170135.971000", "170135.974000", "170135.976000", "170135.979000", "170135.982000", "170215.920000", "170215.923000", "170215.926000", "170215.928000", "170215.931000", "170215.933000", "170215.936000", "170215.939000", "170215.941000", "170215.944000", "170215.946000", "170215.949000", "170215.952000", "170215.954000", "170215.957000", "170215.959000", "170215.962000", "170215.964000", "170215.967000", "170215.969000", "170215.972000", "170215.975000", "170215.977000", "170215.980000", "170215.982000", "170215.985000", "170215.987000", "170255.917000", "170255.920000", "170255.922000", "170255.925000", "170255.927000", "170255.930000", "170255.933000", "170255.935000", "170255.938000", "170255.940000", "170255.943000", "170255.946000", "170255.948000", "170255.951000", "170255.953000", "170255.956000", "170255.958000", "170255.961000", "170255.964000", "170255.966000", "170255.969000", "170255.971000", "170255.974000", "170255.976000", "170255.979000", "170255.982000", "170255.984000", "170316.530000", "170316.533000", "170316.535000", "170316.538000", "170316.540000", "170316.543000", "170316.545000", "170316.548000", "170316.551000", "170316.553000", "170316.556000", "170316.558000", "170316.561000", "170316.563000"],
