{
  "AcquisitionMatrixPE": 104,
  "AcquisitionNumber": 1,
  "AcquisitionTime": "17:30:3.512500",
  "BandwidthPerPixelPhaseEncode": 17.17,
  "BaseResolution": 104,
  "BodyPartExamined": "BRAIN",
  "CoilCombinationMethod": "Sum of Squares",
  "ConsistencyInfo": "N4_VE11C_LATEST_20160120",
  "ConversionSoftware": "dcm2niix",
  "ConversionSoftwareVersion": "v1.0.20211006",
  "DerivedVendorReportedEchoSpacing": 0.000560011,
  "DeviceSerialNumber": "167006",
  "DwellTime": 2.1e-06,
  "EchoTime": 0.037,
  "EchoTrainLength": 104,
  "EffectiveEchoSpacing": 0.000560011,
  "FlipAngle": 52,
  "HeudiconvVersion": "0.5.3.post569+g418601f",
  "ImageComments": "Unaliased MB4/PE3/LB",
  "ImageOrientationPatientDICOM": [0.99979, -0.0143606, 0.0145977, 0.0186733, 0.931946, -0.362115],
  "ImageOrientationText": "Tra>Cor(-21.2)>Sag(0.5)",
  "ImageType": [
    "ORIGINAL",
    "PRIMARY",
    "M",
    "MB",
    "ND",
    "MOSAIC"
],
  "ImagingFrequency": 123.259,
  "InPlanePhaseEncodingDirectionDICOM": "COL",
  "InstitutionAddress": "Chemin Queen-Mary 4565,Montreal,District,CA,H3W 1W5",
  "InstitutionName": "IUGM",
  "InstitutionalDepartmentName": "Department",
  "MRAcquisitionType": "2D",
  "MagneticFieldStrength": 3,
  "Manufacturer": "Siemens",
  "ManufacturersModelName": "Prisma_fit",
  "MatrixCoilMode": "SENSE",
  "Modality": "MR",
  "MultibandAccelerationFactor": 4,
  "PartialFourier": 1,
  "PatientPosition": "HFS",
  "PercentPhaseFOV": 100,
  "PercentSampling": 100,
  "PhaseEncodingDirection": "j",
  "PhaseEncodingSteps": 104,
  "PhaseResolution": 1,
  "PixelBandwidth": 2290,
  "ProcedureStepDescription": "games^mario",
  "ProtocolName": "func_task-mario_run-05",
  "PulseSequenceDetails": "%CustomerSeq%\\cmrr_mbep2d_bold",
  "ReceiveCoilActiveElements": "HC1-7;NC1,2",
  "ReceiveCoilName": "HeadNeck_64",
  "ReconMatrixPE": 104,
  "RepetitionTime": 1.49,
  "SAR": 0.0521166,
  "ScanOptions": "FS",
  "ScanningSequence": "EP",
  "SequenceName": "epfid2d1_104",
  "SequenceVariant": "SK\\SS",
  "SeriesDescription": "func_task-mario_run-05",
  "SeriesNumber": 22,
  "ShimSetting": [604, -7265, -8822, 369, -17, -335, 25, 39],
  "SliceThickness": 2,
  "SliceTiming": [0, 0.785, 0.0975, 0.8825, 0.1975, 0.98, 0.295, 1.0775, 0.3925, 1.1775, 0.49, 1.275, 0.5875, 1.3725, 0.6875, 0, 0.785, 0.0975, 0.8825, 0.1975, 0.98, 0.295, 1.0775, 0.3925, 1.1775, 0.49, 1.275, 0.5875, 1.3725, 0.6875, 0, 0.785, 0.0975, 0.8825, 0.1975, 0.98, 0.295, 1.0775, 0.3925, 1.1775, 0.49, 1.275, 0.5875, 1.3725, 0.6875, 0, 0.785, 0.0975, 0.8825, 0.1975, 0.98, 0.295, 1.0775, 0.3925, 1.1775, 0.49, 1.275, 0.5875, 1.3725, 0.6875],
  "SoftwareVersions": "syngo MR E11",
  "SpacingBetweenSlices": 2,
  "StationName": "MRC35049",
  "TaskName": "mario",
  "TotalReadoutTime": 0.0576811,
  "TxRefAmp": 270.581,
  "WipMemBlock": "dc241899-cd8d-4451-9260-05fb5a0833ee||Sequence: R016 ve11c/master r/e634e98; Dec 19 2017 11:00:25 by eja",
  "dcmmeta_affine": [
    [-1.9995806217193604, 0.03734656795859337, 0.016808195039629936, 102.09883117675781],
    [0.028721211478114128, 1.8638925552368164, -0.7246237397193909, -64.01957702636719],
    [0.02919543907046318, 0.7242303490638733, 1.864038109779358, -63.546077728271484],
    [0.0, 0.0, 0.0, 1.0]
],
  "dcmmeta_reorient_transform": [
    [0.0, -1.0, 0.0, 103.0],
    [1.0, 0.0, 0.0, 0.0],
    [0.0, 0.0, 1.0, 0.0],
    [0.0, 0.0, 0.0, 1.0]
],
  "dcmmeta_shape": [104, 104, 60, 471],
  "dcmmeta_slice_dim": 2,
  "dcmmeta_version": 0.6,
  "global": {
    "const": {
      "AcquisitionMatrix": [104, 0, 0, 104],
      "AngioFlag": "N",
      "BitsAllocated": 16,
      "BitsStored": 16,
      "BodyPartExamined": "BRAIN",
      "Columns": 832,
      "EchoNumbers": 1,
      "EchoTime": 37.0,
      "EchoTrainLength": 104,
      "FlipAngle": 52.0,
      "HighBit": 15,
      "ImageOrientationPatient": [0.99979031781325, -0.0143606058918, 0.01459771918147, 0.01867328474854, 0.93194629644197, -0.3621151874539],
      "ImagePositionPatient": [-847.38702709526, -795.96374616735, 264.0423686094],
      "ImageType": [
        "ORIGINAL",
        "PRIMARY",
        "M",
        "MB",
        "ND",
        "MOSAIC"
],
      "ImagedNucleus": "1H",
      "ImagingFrequency": 123.258792,
      "InPlanePhaseEncodingDirection": "COL",
      "MRAcquisitionType": "2D",
      "MagneticFieldStrength": 3.0,
      "Manufacturer": "SIEMENS",
      "ManufacturerModelName": "Prisma_fit",
      "Modality": "MR",
      "NumberOfAverages": 1.0,
      "NumberOfPhaseEncodingSteps": 104,
      "PercentPhaseFieldOfView": 100.0,
      "PercentSampling": 100.0,
      "PerformedProcedureStepStartTime": "163253.085000",
      "PhotometricInterpretation": "MONOCHROME2",
      "PixelBandwidth": 2290.0,
      "PixelRepresentation": 0,
      "PixelSpacing": [2.0, 2.0],
      "ProtocolName": "func_task-mario_run-05",
      "RepetitionTime": 1490.0,
      "Rows": 832,
      "SAR": 0.05211657638203,
      "SamplesPerPixel": 1,
      "ScanOptions": "FS",
      "ScanningSequence": "EP",
      "SequenceName": "epfid2d1_104",
      "SequenceVariant": [
        "SK",
        "SS"
],
      "SeriesDescription": "func_task-mario_run-05",
      "SeriesNumber": 22,
      "SeriesTime": "173135.811000",
      "SliceLocation": -35.173055508496,
      "SliceThickness": 2.0,
      "SmallestImagePixelValue": 0,
      "SoftwareVersions": "syngo MR E11",
      "SpacingBetweenSlices": 2.0000000668345,
      "SpecificCharacterSet": "ISO_IR 100",
      "StudyID": "1",
      "StudyTime": "163253.021000",
      "TransmitCoilName": "Body",
      "VariableFlipAngleFlag": "N",
      "WindowCenterWidthExplanation": "Algo1",
      "dBdt": 0.0},
    "slices": {}
  },
  "time": {
    "samples": {
      "AcquisitionNumber": [1, 2, 3, 4, 5, 6, 7, 8, 9, 10, 11, 12, 13, 14, 15, 16, 17, 18, 19, 20, 21, 22, 23, 24, 25, 26, 27, 28, 29, 30, 31, 32, 33, 34, 35, 36, 37, 38, 39, 40, 41, 42, 43, 44, 45, 46, 47, 48, 49, 50, 51, 52, 53, 54, 55, 56, 57, 58, 59, 60, 61, 62, 63, 64, 65, 66, 67, 68, 69, 70, 71, 72, 73, 74, 75, 76, 77, 78, 79, 80, 81, 82, 83, 84, 85, 86, 87, 88, 89, 90, 91, 92, 93, 94, 95, 96, 97, 98, 99, 100, 101, 102, 103, 104, 105, 106, 107, 108, 109, 110, 111, 112, 113, 114, 115, 116, 117, 118, 119, 120, 121, 122, 123, 124, 125, 126, 127, 128, 129, 130, 131, 132, 133, 134, 135, 136, 137, 138, 139, 140, 141, 142, 143, 144, 145, 146, 147, 148, 149, 150, 151, 152, 153, 154, 155, 156, 157, 158, 159, 160, 161, 162, 163, 164, 165, 166, 167, 168, 169, 170, 171, 172, 173, 174, 175, 176, 177, 178, 179, 180, 181, 182, 183, 184, 185, 186, 187, 188, 189, 190, 191, 192, 193, 194, 195, 196, 197, 198, 199, 200, 201, 202, 203, 204, 205, 206, 207, 208, 209, 210, 211, 212, 213, 214, 215, 216, 217, 218, 219, 220, 221, 222, 223, 224, 225, 226, 227, 228, 229, 230, 231, 232, 233, 234, 235, 236, 237, 238, 239, 240, 241, 242, 243, 244, 245, 246, 247, 248, 249, 250, 251, 252, 253, 254, 255, 256, 257, 258, 259, 260, 261, 262, 263, 264, 265, 266, 267, 268, 269, 270, 271, 272, 273, 274, 275, 276, 277, 278, 279, 280, 281, 282, 283, 284, 285, 286, 287, 288, 289, 290, 291, 292, 293, 294, 295, 296, 297, 298, 299, 300, 301, 302, 303, 304, 305, 306, 307, 308, 309, 310, 311, 312, 313, 314, 315, 316, 317, 318, 319, 320, 321, 322, 323, 324, 325, 326, 327, 328, 329, 330, 331, 332, 333, 334, 335, 336, 337, 338, 339, 340, 341, 342, 343, 344, 345, 346, 347, 348, 349, 350, 351, 352, 353, 354, 355, 356, 357, 358, 359, 360, 361, 362, 363, 364, 365, 366, 367, 368, 369, 370, 371, 372, 373, 374, 375, 376, 377, 378, 379, 380, 381, 382, 383, 384, 385, 386, 387, 388, 389, 390, 391, 392, 393, 394, 395, 396, 397, 398, 399, 400, 401, 402, 403, 404, 405, 406, 407, 408, 409, 410, 411, 412, 413, 414, 415, 416, 417, 418, 419, 420, 421, 422, 423, 424, 425, 426, 427, 428, 429, 430, 431, 432, 433, 434, 435, 436, 437, 438, 439, 440, 441, 442, 443, 444, 445, 446, 447, 448, 449, 450, 451, 452, 453, 454, 455, 456, 457, 458, 459, 460, 461, 462, 463, 464, 465, 466, 467, 468, 469, 470, 471],
      "AcquisitionTime": ["173003.512500", "173005.002500", "173006.492500", "173007.982500", "173009.472500", "173010.962500", "173012.452500", "173013.942500", "173015.432500", "173016.922500", "173018.412500", "173019.902500", "173021.392500", "173022.882500", "173024.372500", "173025.862500", "173027.352500", "173028.842500", "173030.332500", "173031.822500", "173033.312500", "173034.802500", "173036.292500", "173037.782500", "173039.272500", "173040.762500", "173042.252500", "173043.742500", "173045.232500", "173046.722500", "173048.212500", "173049.702500", "173051.192500", "173052.682500", "173054.172500", "173055.662500", "173057.152500", "173058.642500", "173100.132500", "173101.622500", "173103.112500", "173104.602500", "173106.092500", "173107.582500", "173109.072500", "173110.562500", "173112.052500", "173113.542500", "173115.032500", "173116.522500", "173118.012500", "173119.502500", "173120.992500", "173122.482500", "173123.972500", "173125.462500", "173126.952500", "173128.442500", "173129.932500", "173131.422500", "173132.912500", "173134.402500", "173135.892500", "173137.382500", "173138.872500", "173140.362500", "173141.852500", "173143.342500", "173144.832500", "173146.322500", "173147.812500", "173149.302500", "173150.792500", "173152.282500", "173153.772500", "173155.262500", "173156.752500", "173158.242500", "173159.732500", "173201.222500", "173202.712500", "173204.202500", "173205.692500", "173207.182500", "173208.672500", "173210.162500", "173211.652500", "173213.142500", "173214.632500", "173216.122500", "173217.612500", "173219.102500", "173220.592500", "173222.082500", "173223.572500", "173225.062500", "173226.552500", "173228.042500", "173229.532500", "173231.022500", "173232.512500", "173234.002500", "173235.492500", "173236.982500", "173238.472500", "173239.962500", "173241.452500", "173242.942500", "173244.432500", "173245.922500", "173247.412500", "173248.902500", "173250.392500", "173251.882500", "173253.372500", "173254.862500", "173256.352500", "173257.842500", "173259.332500", "173300.822500", "173302.312500", "173303.802500", "173305.292500", "173306.782500", "173308.272500", "173309.762500", "173311.252500", "173312.742500", "173314.232500", "173315.722500", "173317.212500", "173318.702500", "173320.192500", "173321.682500", "173323.172500", "173324.662500", "173326.152500", "173327.642500", "173329.132500", "173330.622500", "173332.112500", "173333.602500", "173335.092500", "173336.582500", "173338.072500", "173339.562500", "173341.052500", "173342.542500", "173344.032500", "173345.522500", "173347.012500", "173348.502500", "173349.992500", "173351.482500", "173352.972500", "173354.462500", "173355.952500", "173357.442500", "173358.932500", "173400.422500", "173401.912500", "173403.402500", "173404.892500", "173406.382500", "173407.872500", "173409.362500", "173410.852500", "173412.342500", "173413.832500", "173415.322500", "173416.812500", "173418.302500", "173419.792500", "173421.282500", "173422.772500", "173424.262500", "173425.752500", "173427.242500", "173428.732500", "173430.222500", "173431.712500", "173433.202500", "173434.692500", "173436.182500", "173437.672500", "173439.162500", "173440.652500", "173442.142500", "173443.632500", "173445.122500", "173446.612500", "173448.102500", "173449.592500", "173451.082500", "173452.572500", "173454.062500", "173455.552500", "173457.042500", "173458.532500", "173500.022500", "173501.512500", "173503.002500", "173504.492500", "173505.982500", "173507.472500", "173508.962500", "173510.452500", "173511.942500", "173513.432500", "173514.922500", "173516.412500", "173517.902500", "173519.392500", "173520.882500", "173522.372500", "173523.862500", "173525.352500", "173526.842500", "173528.332500", "173529.822500", "173531.312500", "173532.802500", "173534.292500", "173535.782500", "173537.272500", "173538.762500", "173540.252500", "173541.742500", "173543.232500", "173544.722500", "173546.212500", "173547.702500", "173549.192500", "173550.682500", "173552.172500", "173553.662500", "173555.152500", "173556.642500", "173558.132500", "173559.622500", "173601.112500", "173602.602500", "173604.092500", "173605.582500", "173607.072500", "173608.562500", "173610.052500", "173611.542500", "173613.032500", "173614.522500", "173616.012500", "173617.502500", "173618.992500", "173620.482500", "173621.972500", "173623.462500", "173624.952500", "173626.442500", "173627.932500", "173629.422500", "173630.912500", "173632.402500", "173633.892500", "173635.382500", "173636.872500", "173638.362500", "173639.852500", "173641.342500", "173642.832500", "173644.322500", "173645.812500", "173647.302500", "173648.792500", "173650.282500", "173651.772500", "173653.262500", "173654.752500", "173656.242500", "173657.732500", "173659.222500", "173700.712500", "173702.202500", "173703.692500", "173705.182500", "173706.672500", "173708.162500", "173709.652500", "173711.142500", "173712.632500", "173714.122500", "173715.612500", "173717.102500", "173718.592500", "173720.082500", "173721.572500", "173723.062500", "173724.552500", "173726.042500", "173727.532500", "173729.022500", "173730.512500", "173732.002500", "173733.492500", "173734.982500", "173736.472500", "173737.962500", "173739.452500", "173740.942500", "173742.432500", "173743.922500", "173745.412500", "173746.902500", "173748.392500", "173749.882500", "173751.372500", "173752.862500", "173754.352500", "173755.842500", "173757.332500", "173758.822500", "173800.312500", "173801.802500", "173803.292500", "173804.782500", "173806.272500", "173807.762500", "173809.252500", "173810.742500", "173812.232500", "173813.722500", "173815.212500", "173816.702500", "173818.192500", "173819.682500", "173821.172500", "173822.662500", "173824.152500", "173825.642500", "173827.132500", "173828.622500", "173830.112500", "173831.602500", "173833.092500", "173834.582500", "173836.072500", "173837.562500", "173839.052500", "173840.542500", "173842.032500", "173843.522500", "173845.012500", "173846.502500", "173847.992500", "173849.482500", "173850.972500", "173852.462500", "173853.952500", "173855.442500", "173856.932500", "173858.422500", "173859.912500", "173901.402500", "173902.892500", "173904.382500", "173905.872500", "173907.362500", "173908.852500", "173910.342500", "173911.832500", "173913.322500", "173914.812500", "173916.302500", "173917.792500", "173919.282500", "173920.772500", "173922.262500", "173923.752500", "173925.242500", "173926.732500", "173928.222500", "173929.712500", "173931.202500", "173932.692500", "173934.182500", "173935.672500", "173937.162500", "173938.652500", "173940.142500", "173941.632500", "173943.122500", "173944.612500", "173946.102500", "173947.592500", "173949.082500", "173950.572500", "173952.062500", "173953.552500", "173955.042500", "173956.532500", "173958.022500", "173959.512500", "174001.002500", "174002.492500", "174003.982500", "174005.472500", "174006.962500", "174008.452500", "174009.942500", "174011.432500", "174012.922500", "174014.412500", "174015.902500", "174017.392500", "174018.882500", "174020.372500", "174021.862500", "174023.352500", "174024.842500", "174026.332500", "174027.822500", "174029.312500", "174030.802500", "174032.292500", "174033.782500", "174035.272500", "174036.762500", "174038.252500", "174039.742500", "174041.232500", "174042.722500", "174044.212500", "174045.702500", "174047.192500", "174048.682500", "174050.172500", "174051.662500", "174053.152500", "174054.642500", "174056.132500", "174057.622500", "174059.112500", "174100.602500", "174102.092500", "174103.582500", "174105.072500", "174106.562500", "174108.052500", "174109.542500", "174111.032500", "174112.522500", "174114.012500", "174115.502500", "174116.992500", "174118.482500", "174119.972500", "174121.462500", "174122.952500", "174124.442500", "174125.932500", "174127.422500", "174128.912500", "174130.402500", "174131.892500", "174133.382500", "174134.872500", "174136.362500", "174137.852500", "174139.342500", "174140.832500", "174142.322500", "174143.812500"],
      "ContentTime": ["173135.814000", "173135.818000", "173135.828000", "173135.832000", "173135.835000", "173135.845000", "173135.848000", "173135.852000", "173135.855000", "173135.858000", "173135.862000", "173135.865000", "173135.868000", "173135.872000", "173135.875000", "173135.879000", "173135.882000", "173135.885000", "173135.889000", "173135.892000", "173135.895000", "173135.899000", "173135.902000", "173135.905000", "173135.909000", "173135.912000", "173135.915000", "173135.919000", "173135.922000", "173135.925000", "173135.929000", "173135.932000", "173135.936000", "173135.945000", "173135.948000", "173135.951000", "173135.955000", "173135.958000", "173135.962000", "173155.773000", "173155.777000", "173155.780000", "173155.784000", "173155.787000", "173155.798000", "173155.802000", "173155.805000", "173155.808000", "173155.812000", "173155.815000", "173155.819000", "173155.822000", "173155.825000", "173155.829000", "173155.832000", "173155.836000", "173155.839000", "173155.842000", "173155.846000", "173215.773000", "173215.777000", "173215.780000", "173215.784000", "173215.787000", "173215.790000", "173215.794000", "173215.797000", "173215.801000", "173215.804000", "173215.807000", "173215.811000", "173215.814000", "173215.817000", "173215.821000", "173215.824000", "173215.828000", "173215.831000", "173215.834000", "173215.838000", "173235.773000", "173235.777000", "173235.780000", "173235.784000", "173235.787000", "173235.791000", "173235.794000", "173235.797000", "173235.801000", "173235.804000", "173235.808000", "173235.811000", "173235.814000", "173235.817000", "173235.821000", "173235.842000", "173235.846000", "173235.849000", "173235.852000", "173235.856000", "173315.772000", "173315.776000", "173315.779000", "173315.783000", "173315.786000", "173315.789000", "173315.793000", "173315.796000", "173315.800000", "173315.803000", "173315.807000", "173315.810000", "173315.813000", "173315.817000", "173315.820000", "173315.824000", "173315.827000", "173315.830000", "173315.834000", "173315.837000", "173315.840000", "173315.844000", "173315.847000", "173315.851000", "173315.854000", "173315.857000", "173315.861000", "173315.864000", "173315.867000", "173355.772000", "173355.776000", "173355.779000", "173355.782000", "173355.786000", "173355.790000", "173355.793000", "173355.797000", "173355.800000", "173355.804000", "173355.807000", "173355.810000", "173355.814000", "173355.817000", "173355.821000", "173355.824000", "173355.828000", "173355.831000", "173355.834000", "173355.837000", "173355.841000", "173355.844000", "173355.848000", "173355.851000", "173355.855000", "173355.858000", "173355.861000", "173435.773000", "173435.777000", "173435.780000", "173435.784000", "173435.787000", "173435.790000", "173435.794000", "173435.797000", "173435.801000", "173435.804000", "173435.808000", "173435.811000", "173435.814000", "173435.818000", "173435.821000", "173435.825000", "173435.828000", "173435.831000", "173435.835000", "173435.838000", "173435.842000", "173435.845000", "173435.849000", "173435.852000", "173435.855000", "173435.858000", "173435.862000", "173515.772000", "173515.776000", "173515.779000", "173515.783000", "173515.786000", "173515.790000", "173515.793000", "173515.796000", "173515.800000", "173515.803000", "173515.807000", "173515.810000", "173515.829000", "173515.832000", "173515.836000", "173515.839000", "173515.843000", "173515.846000", "173515.849000", "173515.853000", "173515.856000", "173515.860000", "173515.863000", "173515.866000", "173515.878000", "173515.881000", "173515.884000", "173555.772000", "173555.776000", "173555.779000", "173555.783000", "173555.786000", "173555.789000", "173555.793000", "173555.796000", "173555.800000", "173555.803000", "173555.807000", "173555.810000", "173555.814000", "173555.817000", "173555.820000", "173555.824000", "173555.827000", "173555.830000", "173555.834000", "173555.838000", "173555.841000", "173555.844000", "173555.848000", "173555.851000", "173555.854000", "173555.858000", "173635.773000", "173635.941000", "173635.945000", "173635.948000", "173635.952000", "173635.955000", "173635.958000", "173635.962000", "173635.965000", "173635.968000", "173635.972000", "173635.975000", "173635.979000", "173635.982000", "173635.986000", "173635.990000", "173635.993000", "173635.996000", "173636.000000", "173636.003000", "173636.013000", "173636.016000", "173636.020000", "173636.023000", "173636.026000", "173636.030000", "173636.033000", "173715.773000", "173715.777000", "173715.781000", "173715.784000", "173715.788000", "173715.791000", "173715.794000", "173715.798000", "173715.801000", "173715.804000", "173715.808000", "173715.811000", "173715.815000", "173715.818000", "173715.822000", "173715.825000", "173715.829000", "173715.832000", "173715.835000", "173715.839000", "173715.842000", "173715.846000", "173715.849000", "173715.852000", "173715.856000", "173715.859000", "173715.862000", "173735.772000", "173735.784000", "173735.787000", "173735.791000", "173735.794000", "173735.797000", "173735.801000", "173735.804000", "173735.808000", "173735.811000", "173735.814000", "173735.818000", "173735.821000", "173735.824000", "173815.772000", "173815.776000", "173815.780000", "173815.783000", "173815.786000", "173815.790000", "173815.793000", "173815.796000", "173815.800000", "173815.803000", "173815.807000", "173815.810000", "173815.813000", "173815.817000", "173815.820000", "173815.824000", "173815.828000", "173815.831000", "173815.835000", "173815.838000", "173815.841000", "173815.845000", "173815.848000", "173815.852000", "173815.855000", "173815.858000", "173855.773000", "173855.777000", "173855.781000", "173855.784000", "173855.787000", "173855.791000", "173855.794000", "173855.798000", "173855.801000", "173855.804000", "173855.808000", "173855.811000", "173855.815000", "173855.818000", "173855.822000", "173855.825000", "173855.828000", "173855.832000", "173855.835000", "173855.839000", "173855.842000", "173855.845000", "173855.849000", "173855.852000", "173855.856000", "173855.859000", "173855.863000", "173935.773000", "173935.777000", "173935.780000", "173935.784000", "173935.789000", "173935.792000", "173935.796000", "173935.799000", "173935.803000", "173935.806000", "173935.809000", "173935.813000", "173935.816000", "173935.819000", "173935.823000", "173935.826000", "173935.830000", "173935.833000", "173935.837000", "173935.840000", "173935.844000", "173935.847000", "173935.850000", "173935.854000", "173935.857000", "173935.860000", "173935.872000", "174015.772000", "174015.784000", "174015.788000", "174015.791000", "174015.795000", "174015.798000", "174015.801000", "174015.805000", "174015.808000", "174015.811000", "174015.815000", "174015.818000", "174015.822000", "174015.825000", "174015.828000", "174015.832000", "174015.835000", "174015.838000", "174015.842000", "174015.845000", "174015.849000", "174015.852000", "174015.856000", "174015.859000", "174015.862000", "174015.865000", "174015.869000", "174055.772000", "174056.019000", "174056.023000", "174056.026000", "174056.030000", "174056.033000", "174056.037000", "174056.040000", "174056.043000", "174056.047000", "174056.050000", "174056.064000", "174056.067000", "174056.070000", "174056.074000", "174056.077000", "174056.081000", "174056.084000", "174056.087000", "174056.091000", "174056.094000", "174056.098000", "174056.101000", "174056.104000", "174056.108000", "174056.111000", "174056.114000", "174135.773000", "174135.813000", "174135.816000", "174135.820000", "174135.823000", "174135.826000", "174135.830000", "174135.833000", "174135.837000", "174135.840000", "174135.844000", "174135.847000", "174135.850000", "174135.854000", "174135.857000", "174135.861000", "174135.864000", "174135.867000", "174135.871000", "174135.874000", "174135.877000", "174135.881000", "174135.884000", "174135.888000", "174135.891000", "174135.894000", "174135.898000", "174147.351000", "174147.355000", "174147.365000", "174147.368000", "174147.371000", "174147.375000", "174147.378000"],
