{
  "AcquisitionMatrixPE": 104,
  "AcquisitionNumber": 1,
  "AcquisitionTime": "15:14:4.962500",
  "BandwidthPerPixelPhaseEncode": 17.17,
  "BaseResolution": 104,
  "BodyPartExamined": "BRAIN",
  "CoilString": "HC1-7;NC1_2",
  "ConsistencyInfo": "N4_VE11C_LATEST_20160120",
  "ConversionSoftware": "dcm2niix",
  "ConversionSoftwareVersion": "v1.0.20190902",
  "DerivedVendorReportedEchoSpacing": 0.000560011,
  "DeviceSerialNumber": "167006",
  "DwellTime": 2.1e-06,
  "EchoTime": 0.037,
  "EchoTrainLength": 104,
  "EffectiveEchoSpacing": 0.000560011,
  "FlipAngle": 52,
  "HeudiconvVersion": "0.10.0",
  "ImageComments": "Unaliased_MB4_PE3_LB",
  "ImageOrientationPatientDICOM": [0.995609, 0.0840014, 0.0413127, -0.0607196, 0.915389, -0.397964],
  "ImageType": [
    "ORIGINAL",
    "PRIMARY",
    "M",
    "MB",
    "ND",
    "MOSAIC"
],
  "ImagingFrequency": 123.259,
  "InPlanePhaseEncodingDirectionDICOM": "COL",
  "InstitutionAddress": "Chemin_Queen-Mary_4565_Montreal_District_CA_H3W_1W5",
  "InstitutionName": "IUGM",
  "InstitutionalDepartmentName": "Department",
  "MRAcquisitionType": "2D",
  "MagneticFieldStrength": 3,
  "Manufacturer": "Siemens",
  "ManufacturersModelName": "Prisma_fit",
  "Modality": "MR",
  "MultibandAccelerationFactor": 4,
  "PartialFourier": 1,
  "PatientPosition": "HFS",
  "PercentPhaseFOV": 100,
  "PhaseEncodingDirection": "j",
  "PhaseEncodingSteps": 104,
  "PhaseResolution": 1,
  "PixelBandwidth": 2290,
  "ProcedureStepDescription": "games_mario",
  "ProtocolName": "func_task-mario_run-01",
  "PulseSequenceDetails": "%CustomerSeq%_cmrr_mbep2d_bold",
  "ReceiveCoilActiveElements": "HC1-7;NC1,2",
  "ReceiveCoilName": "HeadNeck_64",
  "ReconMatrixPE": 104,
  "RepetitionTime": 1.49,
  "SAR": 0.0383711,
  "ScanOptions": "FS",
  "ScanningSequence": "EP",
  "SequenceName": "epfid2d1_104",
  "SequenceVariant": "SK_SS",
  "SeriesDescription": "func_task-mario_run-01",
  "SeriesNumber": 10,
  "ShimSetting": [632, -7180, -8829, 608, 89, 9, -74, 0],
  "SliceThickness": 2,
  "SliceTiming": [0, 0.7825, 0.0975, 0.88, 0.195, 0.98, 0.2925, 1.0775, 0.39, 1.175, 0.49, 1.2725, 0.5875, 1.37, 0.685, 0, 0.7825, 0.0975, 0.88, 0.195, 0.98, 0.2925, 1.0775, 0.39, 1.175, 0.49, 1.2725, 0.5875, 1.37, 0.685, 0, 0.7825, 0.0975, 0.88, 0.195, 0.98, 0.2925, 1.0775, 0.39, 1.175, 0.49, 1.2725, 0.5875, 1.37, 0.685, 0, 0.7825, 0.0975, 0.88, 0.195, 0.98, 0.2925, 1.0775, 0.39, 1.175, 0.49, 1.2725, 0.5875, 1.37, 0.685],
  "SoftwareVersions": "syngo_MR_E11",
  "SpacingBetweenSlices": 2,
  "StationName": "MRC35049",
  "TaskName": "mario",
  "TotalReadoutTime": 0.0576811,
  "TxRefAmp": 250.098,
  "WipMemBlock": "06c50987-1168-4aae-b9d9-a01b87c293da||Sequence: R016 ve11c/master r/e634e98; Dec 19 2017 11:00:25 by eja",
  "dcmmeta_affine": [
    [-1.9912177324295044, -0.12143927812576294, 0.14249353110790253, 108.82217407226562],
    [-0.16800281405448914, 1.8307785987854004, -0.787416398525238, -47.76272201538086],
    [0.08262541890144348, 0.795928418636322, 1.8329405784606934, -69.85185241699219],
    [0.0, 0.0, 0.0, 1.0]
],
  "dcmmeta_reorient_transform": [
    [0.0, -1.0, 0.0, 103.0],
    [1.0, 0.0, 0.0, 0.0],
    [0.0, 0.0, 1.0, 0.0],
    [0.0, 0.0, 0.0, 1.0]
],
  "dcmmeta_shape": [104, 104, 60, 462],
  "dcmmeta_slice_dim": 2,
  "dcmmeta_version": 0.6,
  "global": {
    "const": {
      "AcquisitionMatrix": [104, 0, 0, 104],
      "AngioFlag": "N",
      "BitsAllocated": 16,
      "BitsStored": 16,
      "BodyPartExamined": "BRAIN",
      "Columns": 832,
      "EchoNumbers": 1,
      "EchoTime": 37.0,
      "EchoTrainLength": 104,
      "FlipAngle": 52.0,
      "HighBit": 15,
      "ImageOrientationPatient": [0.99560887074268, 0.08400140872366, 0.04131270786234, -0.0607196408874, 0.91538932068832, -0.3979642154519],
      "ImagePositionPatient": [-776.91329102136, -868.36392885075, 271.77107404417],
      "ImageType": [
        "ORIGINAL",
        "PRIMARY",
        "M",
        "MB",
        "ND",
        "MOSAIC"
],
      "ImagedNucleus": "1H",
      "ImagingFrequency": 123.258911,
      "InPlanePhaseEncodingDirection": "COL",
      "MRAcquisitionType": "2D",
      "MagneticFieldStrength": 3.0,
      "Manufacturer": "SIEMENS",
      "ManufacturerModelName": "Prisma_fit",
      "Modality": "MR",
      "NumberOfAverages": 1.0,
      "NumberOfPhaseEncodingSteps": 104,
      "PercentPhaseFieldOfView": 100.0,
      "PercentSampling": 100.0,
      "PerformedProcedureStepStartTime": "150703.167000",
      "PhotometricInterpretation": "MONOCHROME2",
      "PixelBandwidth": 2290.0,
      "PixelRepresentation": 0,
      "PixelSpacing": [2.0, 2.0],
      "ProtocolName": "func_task-mario_run-01",
      "RepetitionTime": 1490.0,
      "Rows": 832,
      "SAR": 0.03837108196297,
      "SamplesPerPixel": 1,
      "ScanOptions": "FS",
      "ScanningSequence": "EP",
      "SequenceName": "epfid2d1_104",
      "SequenceVariant": [
        "SK",
        "SS"
],
      "SeriesDescription": "func_task-mario_run-01",
      "SeriesNumber": 10,
      "SeriesTime": "151506.934000",
      "SliceLocation": -37.45934091292,
      "SliceThickness": 2.0,
      "SmallestImagePixelValue": 0,
      "SoftwareVersions": "syngo MR E11",
      "SpacingBetweenSlices": 1.9999999978259,
      "SpecificCharacterSet": "ISO_IR 100",
      "StudyID": "1",
      "StudyTime": "150703.010000",
      "TransmitCoilName": "Body",
      "VariableFlipAngleFlag": "N",
      "WindowCenterWidthExplanation": "Algo1",
      "dBdt": 0.0},
    "slices": {}
  },
  "time": {
    "samples": {
      "AcquisitionNumber": [1, 2, 3, 4, 5, 6, 7, 8, 9, 10, 11, 12, 13, 14, 15, 16, 17, 18, 19, 20, 21, 22, 23, 24, 25, 26, 27, 28, 29, 30, 31, 32, 33, 34, 35, 36, 37, 38, 39, 40, 41, 42, 43, 44, 45, 46, 47, 48, 49, 50, 51, 52, 53, 54, 55, 56, 57, 58, 59, 60, 61, 62, 63, 64, 65, 66, 67, 68, 69, 70, 71, 72, 73, 74, 75, 76, 77, 78, 79, 80, 81, 82, 83, 84, 85, 86, 87, 88, 89, 90, 91, 92, 93, 94, 95, 96, 97, 98, 99, 100, 101, 102, 103, 104, 105, 106, 107, 108, 109, 110, 111, 112, 113, 114, 115, 116, 117, 118, 119, 120, 121, 122, 123, 124, 125, 126, 127, 128, 129, 130, 131, 132, 133, 134, 135, 136, 137, 138, 139, 140, 141, 142, 143, 144, 145, 146, 147, 148, 149, 150, 151, 152, 153, 154, 155, 156, 157, 158, 159, 160, 161, 162, 163, 164, 165, 166, 167, 168, 169, 170, 171, 172, 173, 174, 175, 176, 177, 178, 179, 180, 181, 182, 183, 184, 185, 186, 187, 188, 189, 190, 191, 192, 193, 194, 195, 196, 197, 198, 199, 200, 201, 202, 203, 204, 205, 206, 207, 208, 209, 210, 211, 212, 213, 214, 215, 216, 217, 218, 219, 220, 221, 222, 223, 224, 225, 226, 227, 228, 229, 230, 231, 232, 233, 234, 235, 236, 237, 238, 239, 240, 241, 242, 243, 244, 245, 246, 247, 248, 249, 250, 251, 252, 253, 254, 255, 256, 257, 258, 259, 260, 261, 262, 263, 264, 265, 266, 267, 268, 269, 270, 271, 272, 273, 274, 275, 276, 277, 278, 279, 280, 281, 282, 283, 284, 285, 286, 287, 288, 289, 290, 291, 292, 293, 294, 295, 296, 297, 298, 299, 300, 301, 302, 303, 304, 305, 306, 307, 308, 309, 310, 311, 312, 313, 314, 315, 316, 317, 318, 319, 320, 321, 322, 323, 324, 325, 326, 327, 328, 329, 330, 331, 332, 333, 334, 335, 336, 337, 338, 339, 340, 341, 342, 343, 344, 345, 346, 347, 348, 349, 350, 351, 352, 353, 354, 355, 356, 357, 358, 359, 360, 361, 362, 363, 364, 365, 366, 367, 368, 369, 370, 371, 372, 373, 374, 375, 376, 377, 378, 379, 380, 381, 382, 383, 384, 385, 386, 387, 388, 389, 390, 391, 392, 393, 394, 395, 396, 397, 398, 399, 400, 401, 402, 403, 404, 405, 406, 407, 408, 409, 410, 411, 412, 413, 414, 415, 416, 417, 418, 419, 420, 421, 422, 423, 424, 425, 426, 427, 428, 429, 430, 431, 432, 433, 434, 435, 436, 437, 438, 439, 440, 441, 442, 443, 444, 445, 446, 447, 448, 449, 450, 451, 452, 453, 454, 455, 456, 457, 458, 459, 460, 461, 462],
      "AcquisitionTime": ["151404.962500", "151406.452500", "151407.942500", "151409.432500", "151410.922500", "151412.412500", "151413.902500", "151415.392500", "151416.882500", "151418.372500", "151419.862500", "151421.352500", "151422.842500", "151424.332500", "151425.822500", "151427.312500", "151428.802500", "151430.292500", "151431.782500", "151433.272500", "151434.762500", "151436.252500", "151437.742500", "151439.232500", "151440.722500", "151442.212500", "151443.702500", "151445.192500", "151446.682500", "151448.172500", "151449.662500", "151451.152500", "151452.642500", "151454.132500", "151455.622500", "151457.112500", "151458.602500", "151500.092500", "151501.582500", "151503.072500", "151504.562500", "151506.052500", "151507.542500", "151509.032500", "151510.522500", "151512.012500", "151513.502500", "151514.992500", "151516.482500", "151517.972500", "151519.462500", "151520.952500", "151522.442500", "151523.932500", "151525.422500", "151526.912500", "151528.402500", "151529.892500", "151531.382500", "151532.872500", "151534.362500", "151535.852500", "151537.342500", "151538.832500", "151540.322500", "151541.812500", "151543.302500", "151544.792500", "151546.282500", "151547.772500", "151549.262500", "151550.752500", "151552.242500", "151553.732500", "151555.222500", "151556.712500", "151558.202500", "151559.692500", "151601.182500", "151602.672500", "151604.162500", "151605.652500", "151607.142500", "151608.632500", "151610.122500", "151611.612500", "151613.102500", "151614.592500", "151616.082500", "151617.572500", "151619.062500", "151620.552500", "151622.042500", "151623.532500", "151625.022500", "151626.512500", "151628.002500", "151629.492500", "151630.982500", "151632.472500", "151633.962500", "151635.452500", "151636.942500", "151638.432500", "151639.922500", "151641.412500", "151642.902500", "151644.392500", "151645.882500", "151647.372500", "151648.862500", "151650.352500", "151651.842500", "151653.332500", "151654.822500", "151656.312500", "151657.802500", "151659.292500", "151700.782500", "151702.272500", "151703.762500", "151705.252500", "151706.742500", "151708.232500", "151709.722500", "151711.212500", "151712.702500", "151714.192500", "151715.682500", "151717.172500", "151718.662500", "151720.152500", "151721.642500", "151723.132500", "151724.622500", "151726.112500", "151727.602500", "151729.092500", "151730.582500", "151732.072500", "151733.562500", "151735.052500", "151736.542500", "151738.032500", "151739.522500", "151741.012500", "151742.502500", "151743.992500", "151745.482500", "151746.972500", "151748.462500", "151749.952500", "151751.442500", "151752.932500", "151754.422500", "151755.912500", "151757.402500", "151758.892500", "151800.382500", "151801.872500", "151803.362500", "151804.852500", "151806.342500", "151807.832500", "151809.322500", "151810.812500", "151812.302500", "151813.792500", "151815.282500", "151816.772500", "151818.262500", "151819.752500", "151821.242500", "151822.732500", "151824.222500", "151825.712500", "151827.202500", "151828.692500", "151830.182500", "151831.672500", "151833.162500", "151834.652500", "151836.142500", "151837.632500", "151839.122500", "151840.612500", "151842.102500", "151843.592500", "151845.082500", "151846.572500", "151848.062500", "151849.552500", "151851.042500", "151852.532500", "151854.022500", "151855.512500", "151857.002500", "151858.492500", "151859.982500", "151901.472500", "151902.962500", "151904.452500", "151905.942500", "151907.432500", "151908.922500", "151910.412500", "151911.902500", "151913.392500", "151914.882500", "151916.372500", "151917.862500", "151919.352500", "151920.842500", "151922.332500", "151923.822500", "151925.312500", "151926.802500", "151928.292500", "151929.782500", "151931.272500", "151932.762500", "151934.252500", "151935.742500", "151937.232500", "151938.722500", "151940.212500", "151941.702500", "151943.192500", "151944.682500", "151946.172500", "151947.662500", "151949.152500", "151950.642500", "151952.132500", "151953.622500", "151955.112500", "151956.602500", "151958.092500", "151959.582500", "152001.072500", "152002.562500", "152004.052500", "152005.542500", "152007.032500", "152008.522500", "152010.012500", "152011.502500", "152012.992500", "152014.482500", "152015.972500", "152017.462500", "152018.952500", "152020.442500", "152021.932500", "152023.422500", "152024.912500", "152026.402500", "152027.892500", "152029.382500", "152030.872500", "152032.362500", "152033.852500", "152035.342500", "152036.832500", "152038.322500", "152039.812500", "152041.302500", "152042.792500", "152044.282500", "152045.772500", "152047.262500", "152048.752500", "152050.242500", "152051.732500", "152053.222500", "152054.712500", "152056.202500", "152057.692500", "152059.182500", "152100.672500", "152102.162500", "152103.652500", "152105.142500", "152106.632500", "152108.122500", "152109.612500", "152111.102500", "152112.592500", "152114.082500", "152115.572500", "152117.062500", "152118.552500", "152120.042500", "152121.532500", "152123.022500", "152124.512500", "152126.002500", "152127.492500", "152128.982500", "152130.472500", "152131.962500", "152133.452500", "152134.942500", "152136.432500", "152137.922500", "152139.412500", "152140.902500", "152142.392500", "152143.882500", "152145.372500", "152146.862500", "152148.352500", "152149.842500", "152151.332500", "152152.822500", "152154.312500", "152155.802500", "152157.292500", "152158.782500", "152200.272500", "152201.762500", "152203.252500", "152204.742500", "152206.232500", "152207.722500", "152209.212500", "152210.702500", "152212.192500", "152213.682500", "152215.172500", "152216.662500", "152218.152500", "152219.642500", "152221.132500", "152222.622500", "152224.112500", "152225.602500", "152227.092500", "152228.582500", "152230.072500", "152231.562500", "152233.052500", "152234.542500", "152236.032500", "152237.522500", "152239.012500", "152240.502500", "152241.992500", "152243.482500", "152244.972500", "152246.462500", "152247.952500", "152249.442500", "152250.932500", "152252.422500", "152253.912500", "152255.402500", "152256.892500", "152258.382500", "152259.872500", "152301.362500", "152302.852500", "152304.342500", "152305.832500", "152307.322500", "152308.812500", "152310.302500", "152311.792500", "152313.282500", "152314.772500", "152316.262500", "152317.752500", "152319.242500", "152320.732500", "152322.222500", "152323.712500", "152325.202500", "152326.692500", "152328.182500", "152329.672500", "152331.162500", "152332.652500", "152334.142500", "152335.632500", "152337.122500", "152338.612500", "152340.102500", "152341.592500", "152343.082500", "152344.572500", "152346.062500", "152347.552500", "152349.042500", "152350.532500", "152352.022500", "152353.512500", "152355.002500", "152356.492500", "152357.982500", "152359.472500", "152400.962500", "152402.452500", "152403.942500", "152405.432500", "152406.922500", "152408.412500", "152409.902500", "152411.392500", "152412.882500", "152414.372500", "152415.862500", "152417.352500", "152418.842500", "152420.332500", "152421.822500", "152423.312500", "152424.802500", "152426.292500", "152427.782500", "152429.272500", "152430.762500", "152432.252500", "152433.742500", "152435.232500", "152436.722500", "152438.212500", "152439.702500", "152441.192500", "152442.682500", "152444.172500", "152445.662500", "152447.152500", "152448.642500", "152450.132500", "152451.622500", "152453.112500", "152454.602500", "152456.092500", "152457.582500", "152459.072500", "152500.562500", "152502.052500", "152503.542500", "152505.032500", "152506.522500", "152508.012500", "152509.502500", "152510.992500", "152512.482500", "152513.972500", "152515.462500", "152516.952500", "152518.442500", "152519.932500", "152521.422500", "152522.912500", "152524.402500", "152525.892500", "152527.382500", "152528.872500", "152530.362500", "152531.852500"],
      "ContentTime": ["151506.937000", "151506.941000", "151506.944000", "151506.947000", "151506.951000", "151506.954000", "151526.889000", "151526.893000", "151526.896000", "151526.899000", "151526.902000", "151526.906000", "151526.909000", "151526.912000", "151526.916000", "151526.919000", "151526.922000", "151526.926000", "151526.935000", "151526.938000", "151526.942000", "151526.945000", "151526.948000", "151526.961000", "151526.964000", "151526.968000", "151546.889000", "151546.893000", "151546.896000", "151546.899000", "151546.903000", "151546.906000", "151546.909000", "151546.912000", "151546.916000", "151546.919000", "151546.922000", "151546.926000", "151546.929000", "151546.932000", "151546.935000", "151546.946000", "151546.949000", "151546.952000", "151546.955000", "151546.959000", "151606.889000", "151606.893000", "151606.896000", "151606.899000", "151606.903000", "151606.906000", "151606.909000", "151606.913000", "151606.916000", "151606.919000", "151606.922000", "151606.926000", "151606.929000", "151606.932000", "151606.946000", "151606.949000", "151606.952000", "151606.955000", "151606.959000", "151606.962000", "151606.965000", "151626.889000", "151626.893000", "151626.896000", "151626.899000", "151626.903000", "151626.906000", "151626.909000", "151626.912000", "151626.916000", "151626.919000", "151626.922000", "151626.926000", "151626.929000", "151626.933000", "151626.936000", "151626.953000", "151626.956000", "151626.959000", "151626.963000", "151626.966000", "151646.889000", "151646.893000", "151646.896000", "151646.899000", "151646.903000", "151646.906000", "151646.909000", "151646.913000", "151646.916000", "151646.919000", "151646.923000", "151646.926000", "151646.929000", "151646.947000", "151646.950000", "151646.953000", "151646.957000", "151646.960000", "151646.963000", "151646.966000", "151726.889000", "151726.893000", "151726.896000", "151726.899000", "151726.903000", "151726.906000", "151726.909000", "151726.913000", "151726.916000", "151726.919000", "151726.923000", "151726.926000", "151726.929000", "151726.932000", "151726.936000", "151726.939000", "151726.942000", "151726.946000", "151726.949000", "151726.952000", "151726.955000", "151726.959000", "151726.962000", "151726.966000", "151726.974000", "151726.978000", "151726.989000", "151806.889000", "151806.893000", "151806.896000", "151806.899000", "151806.903000", "151806.906000", "151806.910000", "151806.927000", "151806.930000", "151806.933000", "151806.937000", "151806.940000", "151806.943000", "151806.947000", "151806.950000", "151806.953000", "151806.957000", "151806.960000", "151806.963000", "151806.967000", "151806.970000", "151806.973000", "151806.977000", "151806.980000", "151806.983000", "151806.987000", "151806.990000", "151846.889000", "151846.893000", "151846.896000", "151846.899000", "151846.903000", "151846.906000", "151846.910000", "151846.913000", "151846.916000", "151846.919000", "151846.923000", "151846.926000", "151846.929000", "151846.933000", "151846.936000", "151846.939000", "151846.943000", "151846.946000", "151846.949000", "151846.953000", "151846.956000", "151846.959000", "151846.963000", "151846.966000", "151846.969000", "151846.973000", "151846.976000", "151926.889000", "151926.893000", "151926.896000", "151926.899000", "151926.903000", "151926.925000", "151926.928000", "151926.932000", "151926.935000", "151926.938000", "151926.942000", "151926.945000", "151926.948000", "151926.952000", "151926.955000", "151926.958000", "151926.961000", "151926.965000", "151926.968000", "151926.971000", "151926.975000", "151926.986000", "151926.989000", "151926.993000", "151926.996000", "151927.000000", "151927.003000", "152006.889000", "152006.893000", "152006.896000", "152006.900000", "152006.903000", "152006.906000", "152006.910000", "152006.913000", "152006.916000", "152006.920000", "152006.923000", "152006.926000", "152006.934000", "152006.937000", "152006.941000", "152006.944000", "152006.947000", "152006.951000", "152006.954000", "152006.957000", "152006.966000", "152006.969000", "152006.972000", "152006.976000", "152006.979000", "152006.982000", "152006.986000", "152046.889000", "152046.893000", "152046.896000", "152046.899000", "152046.903000", "152046.906000", "152046.910000", "152046.913000", "152046.916000", "152046.919000", "152046.923000", "152046.933000", "152046.936000", "152046.939000", "152046.943000", "152046.946000", "152046.949000", "152046.953000", "152046.956000", "152046.959000", "152046.963000", "152046.966000", "152046.969000", "152046.973000", "152046.976000", "152046.979000", "152046.982000", "152126.889000", "152126.893000", "152126.896000", "152126.900000", "152126.908000", "152126.912000", "152126.915000", "152126.918000", "152126.922000", "152126.925000", "152126.928000", "152126.932000", "152126.935000", "152126.938000", "152126.942000", "152126.945000", "152126.948000", "152126.952000", "152126.955000", "152126.958000", "152126.961000", "152126.965000", "152126.968000", "152126.971000", "152126.975000", "152126.978000", "152206.889000", "152206.893000", "152206.896000", "152206.900000", "152206.903000", "152206.906000", "152206.910000", "152206.913000", "152206.916000", "152206.920000", "152206.923000", "152206.926000", "152206.930000", "152206.933000", "152206.936000", "152206.940000", "152206.943000", "152206.946000", "152206.950000", "152206.953000", "152206.956000", "152206.960000", "152206.963000", "152206.966000", "152206.969000", "152206.973000", "152206.976000", "152246.889000", "152246.893000", "152246.896000", "152246.900000", "152246.903000", "152246.906000", "152246.910000", "152246.913000", "152246.916000", "152246.920000", "152246.923000", "152246.926000", "152246.930000", "152246.933000", "152246.936000", "152246.940000", "152246.943000", "152246.946000", "152246.950000", "152246.953000", "152246.963000", "152246.966000", "152246.969000", "152246.972000", "152246.976000", "152246.979000", "152246.982000", "152326.889000", "152326.893000", "152326.896000", "152326.900000", "152326.903000", "152326.906000", "152326.910000", "152326.913000", "152326.916000", "152326.919000", "152326.923000", "152326.926000", "152326.944000", "152326.947000", "152326.950000", "152326.954000", "152326.957000", "152326.960000", "152326.964000", "152326.967000", "152326.970000", "152326.974000", "152326.977000", "152326.980000", "152326.983000", "152326.987000", "152326.990000", "152406.889000", "152406.893000", "152406.896000", "152406.899000", "152406.929000", "152406.932000", "152406.937000", "152406.940000", "152406.944000", "152406.947000", "152406.950000", "152406.954000", "152406.957000", "152406.960000", "152406.964000", "152406.967000", "152406.970000", "152406.974000", "152406.977000", "152406.980000", "152406.984000", "152406.987000", "152406.990000", "152406.994000", "152406.997000", "152407.000000", "152407.003000", "152446.890000", "152446.893000", "152446.897000", "152446.900000", "152446.904000", "152446.907000", "152446.911000", "152446.914000", "152446.918000", "152446.921000", "152446.924000", "152446.928000", "152446.931000", "152446.935000", "152446.938000", "152446.941000", "152446.945000", "152446.948000", "152446.952000", "152446.958000", "152446.962000", "152446.965000", "152446.969000", "152446.972000", "152446.975000", "152446.979000", "152446.982000", "152526.889000", "152526.893000", "152526.896000", "152526.900000", "152526.903000", "152526.906000", "152526.910000", "152526.913000", "152526.916000", "152526.920000", "152526.923000", "152526.926000", "152526.930000", "152526.933000", "152526.936000", "152526.940000", "152526.943000", "152526.946000", "152526.950000", "152526.953000", "152526.956000", "152526.959000", "152526.963000", "152526.966000", "152526.974000", "152526.977000", "152526.981000", "152534.402000", "152534.405000", "152534.409000", "152534.413000", "152534.416000"],
