{
  "AcquisitionMatrixPE": 104,
  "AcquisitionNumber": 1,
  "AcquisitionTime": "15:27:43.445000",
  "BandwidthPerPixelPhaseEncode": 17.17,
  "BaseResolution": 104,
  "BodyPartExamined": "BRAIN",
  "CoilString": "HC1-7;NC1_2",
  "ConsistencyInfo": "N4_VE11C_LATEST_20160120",
  "ConversionSoftware": "dcm2niix",
  "ConversionSoftwareVersion": "v1.0.20190902",
  "DerivedVendorReportedEchoSpacing": 0.000560011,
  "DeviceSerialNumber": "167006",
  "DwellTime": 2.1e-06,
  "EchoTime": 0.037,
  "EchoTrainLength": 104,
  "EffectiveEchoSpacing": 0.000560011,
  "FlipAngle": 52,
  "HeudiconvVersion": "0.10.0",
  "ImageComments": "Unaliased_MB4_PE3_LB",
  "ImageOrientationPatientDICOM": [0.995609, 0.0840014, 0.0413127, -0.0607196, 0.915389, -0.397964],
  "ImageType": [
    "ORIGINAL",
    "PRIMARY",
    "P",
    "MB",
    "ND",
    "MOSAIC"
],
  "ImagingFrequency": 123.259,
  "InPlanePhaseEncodingDirectionDICOM": "COL",
  "InstitutionAddress": "Chemin_Queen-Mary_4565_Montreal_District_CA_H3W_1W5",
  "InstitutionName": "IUGM",
  "InstitutionalDepartmentName": "Department",
  "MRAcquisitionType": "2D",
  "MagneticFieldStrength": 3,
  "Manufacturer": "Siemens",
  "ManufacturersModelName": "Prisma_fit",
  "Modality": "MR",
  "MultibandAccelerationFactor": 4,
  "PartialFourier": 1,
  "PatientPosition": "HFS",
  "PercentPhaseFOV": 100,
  "PhaseEncodingDirection": "j",
  "PhaseEncodingSteps": 104,
  "PhaseResolution": 1,
  "PixelBandwidth": 2290,
  "ProcedureStepDescription": "games_mario",
  "ProtocolName": "func_task-mario_run-02",
  "PulseSequenceDetails": "%CustomerSeq%_cmrr_mbep2d_bold",
  "ReceiveCoilActiveElements": "HC1-7;NC1,2",
  "ReceiveCoilName": "HeadNeck_64",
  "ReconMatrixPE": 104,
  "RepetitionTime": 1.49,
  "SAR": 0.0383711,
  "ScanOptions": "FS",
  "ScanningSequence": "EP",
  "SequenceName": "epfid2d1_104",
  "SequenceVariant": "SK_SS",
  "SeriesDescription": "func_task-mario_run-02",
  "SeriesNumber": 14,
  "ShimSetting": [632, -7180, -8829, 608, 89, 9, -74, 0],
  "SliceThickness": 2,
  "SliceTiming": [0, 0.785, 0.0975, 0.8825, 0.1975, 0.98, 0.295, 1.0775, 0.3925, 1.1775, 0.49, 1.275, 0.5875, 1.3725, 0.6875, 0, 0.785, 0.0975, 0.8825, 0.1975, 0.98, 0.295, 1.0775, 0.3925, 1.1775, 0.49, 1.275, 0.5875, 1.3725, 0.6875, 0, 0.785, 0.0975, 0.8825, 0.1975, 0.98, 0.295, 1.0775, 0.3925, 1.1775, 0.49, 1.275, 0.5875, 1.3725, 0.6875, 0, 0.785, 0.0975, 0.8825, 0.1975, 0.98, 0.295, 1.0775, 0.3925, 1.1775, 0.49, 1.275, 0.5875, 1.3725, 0.6875],
  "SoftwareVersions": "syngo_MR_E11",
  "SpacingBetweenSlices": 2,
  "StationName": "MRC35049",
  "TaskName": "mario",
  "TotalReadoutTime": 0.0576811,
  "TxRefAmp": 250.098,
  "WipMemBlock": "014f370d-4ca4-4482-b70f-d88639c8d1de||Sequence: R016 ve11c/master r/e634e98; Dec 19 2017 11:00:25 by eja",
  "dcmmeta_affine": [
    [-1.9912177324295044, -0.12143927812576294, 0.14249353110790253, 108.82217407226562],
    [-0.16800281405448914, 1.8307785987854004, -0.787416398525238, -47.76272201538086],
    [0.08262541890144348, 0.795928418636322, 1.8329405784606934, -69.85185241699219],
    [0.0, 0.0, 0.0, 1.0]
],
  "dcmmeta_reorient_transform": [
    [0.0, -1.0, 0.0, 103.0],
    [1.0, 0.0, 0.0, 0.0],
    [0.0, 0.0, 1.0, 0.0],
    [0.0, 0.0, 0.0, 1.0]
],
  "dcmmeta_shape": [104, 104, 60, 452],
  "dcmmeta_slice_dim": 2,
  "dcmmeta_version": 0.6,
  "global": {
    "const": {
      "AcquisitionMatrix": [104, 0, 0, 104],
      "AngioFlag": "N",
      "BitsAllocated": 16,
      "BitsStored": 16,
      "BodyPartExamined": "BRAIN",
      "Columns": 832,
      "EchoNumbers": 1,
      "EchoTime": 37.0,
      "EchoTrainLength": 104,
      "FlipAngle": 52.0,
      "HighBit": 15,
      "ImageOrientationPatient": [0.99560887074268, 0.08400140872366, 0.04131270786234, -0.0607196408874, 0.91538932068832, -0.3979642154519],
      "ImagePositionPatient": [-776.91329102136, -868.36392885075, 271.77107404417],
      "ImageType": [
        "ORIGINAL",
        "PRIMARY",
        "P",
        "MB",
        "ND",
        "MOSAIC"
],
      "ImagedNucleus": "1H",
      "ImagingFrequency": 123.258915,
      "InPlanePhaseEncodingDirection": "COL",
      "LargestImagePixelValue": 4095,
      "MRAcquisitionType": "2D",
      "MagneticFieldStrength": 3.0,
      "Manufacturer": "SIEMENS",
      "ManufacturerModelName": "Prisma_fit",
      "Modality": "MR",
      "NumberOfAverages": 1.0,
      "NumberOfPhaseEncodingSteps": 104,
      "PercentPhaseFieldOfView": 100.0,
      "PercentSampling": 100.0,
      "PerformedProcedureStepStartTime": "150703.167000",
      "PhotometricInterpretation": "MONOCHROME2",
      "PixelBandwidth": 2290.0,
      "PixelRepresentation": 0,
      "PixelSpacing": [2.0, 2.0],
      "ProtocolName": "func_task-mario_run-02",
      "RepetitionTime": 1490.0,
      "RescaleIntercept": -4096.0,
      "RescaleSlope": 2.0,
      "RescaleType": "US",
      "Rows": 832,
      "SAR": 0.03837108196297,
      "SamplesPerPixel": 1,
      "ScanOptions": "FS",
      "ScanningSequence": "EP",
      "SequenceName": "epfid2d1_104",
      "SequenceVariant": [
        "SK",
        "SS"
],
      "SeriesDescription": "func_task-mario_run-02",
      "SeriesNumber": 14,
      "SeriesTime": "152859.368000",
      "SliceLocation": -37.45934091292,
      "SliceThickness": 2.0,
      "SmallestImagePixelValue": 0,
      "SoftwareVersions": "syngo MR E11",
      "SpacingBetweenSlices": 1.9999999978259,
      "SpecificCharacterSet": "ISO_IR 100",
      "StudyID": "1",
      "StudyTime": "150703.010000",
      "TransmitCoilName": "Body",
      "VariableFlipAngleFlag": "N",
      "WindowCenterWidthExplanation": "Algo1",
      "dBdt": 0.0},
    "slices": {}
  },
  "time": {
    "samples": {
      "AcquisitionNumber": [1, 2, 3, 4, 5, 6, 7, 8, 9, 10, 11, 12, 13, 14, 15, 16, 17, 18, 19, 20, 21, 22, 23, 24, 25, 26, 27, 28, 29, 30, 31, 32, 33, 34, 35, 36, 37, 38, 39, 40, 41, 42, 43, 44, 45, 46, 47, 48, 49, 50, 51, 52, 53, 54, 55, 56, 57, 58, 59, 60, 61, 62, 63, 64, 65, 66, 67, 68, 69, 70, 71, 72, 73, 74, 75, 76, 77, 78, 79, 80, 81, 82, 83, 84, 85, 86, 87, 88, 89, 90, 91, 92, 93, 94, 95, 96, 97, 98, 99, 100, 101, 102, 103, 104, 105, 106, 107, 108, 109, 110, 111, 112, 113, 114, 115, 116, 117, 118, 119, 120, 121, 122, 123, 124, 125, 126, 127, 128, 129, 130, 131, 132, 133, 134, 135, 136, 137, 138, 139, 140, 141, 142, 143, 144, 145, 146, 147, 148, 149, 150, 151, 152, 153, 154, 155, 156, 157, 158, 159, 160, 161, 162, 163, 164, 165, 166, 167, 168, 169, 170, 171, 172, 173, 174, 175, 176, 177, 178, 179, 180, 181, 182, 183, 184, 185, 186, 187, 188, 189, 190, 191, 192, 193, 194, 195, 196, 197, 198, 199, 200, 201, 202, 203, 204, 205, 206, 207, 208, 209, 210, 211, 212, 213, 214, 215, 216, 217, 218, 219, 220, 221, 222, 223, 224, 225, 226, 227, 228, 229, 230, 231, 232, 233, 234, 235, 236, 237, 238, 239, 240, 241, 242, 243, 244, 245, 246, 247, 248, 249, 250, 251, 252, 253, 254, 255, 256, 257, 258, 259, 260, 261, 262, 263, 264, 265, 266, 267, 268, 269, 270, 271, 272, 273, 274, 275, 276, 277, 278, 279, 280, 281, 282, 283, 284, 285, 286, 287, 288, 289, 290, 291, 292, 293, 294, 295, 296, 297, 298, 299, 300, 301, 302, 303, 304, 305, 306, 307, 308, 309, 310, 311, 312, 313, 314, 315, 316, 317, 318, 319, 320, 321, 322, 323, 324, 325, 326, 327, 328, 329, 330, 331, 332, 333, 334, 335, 336, 337, 338, 339, 340, 341, 342, 343, 344, 345, 346, 347, 348, 349, 350, 351, 352, 353, 354, 355, 356, 357, 358, 359, 360, 361, 362, 363, 364, 365, 366, 367, 368, 369, 370, 371, 372, 373, 374, 375, 376, 377, 378, 379, 380, 381, 382, 383, 384, 385, 386, 387, 388, 389, 390, 391, 392, 393, 394, 395, 396, 397, 398, 399, 400, 401, 402, 403, 404, 405, 406, 407, 408, 409, 410, 411, 412, 413, 414, 415, 416, 417, 418, 419, 420, 421, 422, 423, 424, 425, 426, 427, 428, 429, 430, 431, 432, 433, 434, 435, 436, 437, 438, 439, 440, 441, 442, 443, 444, 445, 446, 447, 448, 449, 450, 451, 452],
      "AcquisitionTime": ["152743.445000", "152744.935000", "152746.425000", "152747.915000", "152749.405000", "152750.895000", "152752.385000", "152753.875000", "152755.365000", "152756.855000", "152758.345000", "152759.835000", "152801.325000", "152802.815000", "152804.305000", "152805.795000", "152807.285000", "152808.775000", "152810.265000", "152811.755000", "152813.245000", "152814.735000", "152816.225000", "152817.715000", "152819.205000", "152820.695000", "152822.185000", "152823.675000", "152825.165000", "152826.655000", "152828.145000", "152829.635000", "152831.125000", "152832.615000", "152834.105000", "152835.595000", "152837.085000", "152838.575000", "152840.065000", "152841.555000", "152843.045000", "152844.535000", "152846.025000", "152847.515000", "152849.005000", "152850.495000", "152851.985000", "152853.475000", "152854.965000", "152856.455000", "152857.945000", "152859.435000", "152900.925000", "152902.415000", "152903.905000", "152905.395000", "152906.885000", "152908.375000", "152909.865000", "152911.355000", "152912.845000", "152914.335000", "152915.825000", "152917.315000", "152918.805000", "152920.295000", "152921.785000", "152923.275000", "152924.765000", "152926.255000", "152927.745000", "152929.235000", "152930.725000", "152932.215000", "152933.705000", "152935.195000", "152936.685000", "152938.175000", "152939.665000", "152941.155000", "152942.645000", "152944.135000", "152945.625000", "152947.115000", "152948.605000", "152950.095000", "152951.585000", "152953.075000", "152954.565000", "152956.055000", "152957.545000", "152959.035000", "153000.525000", "153002.015000", "153003.505000", "153004.995000", "153006.485000", "153007.975000", "153009.465000", "153010.955000", "153012.445000", "153013.935000", "153015.425000", "153016.915000", "153018.405000", "153019.895000", "153021.385000", "153022.875000", "153024.365000", "153025.855000", "153027.345000", "153028.835000", "153030.325000", "153031.815000", "153033.305000", "153034.795000", "153036.285000", "153037.775000", "153039.265000", "153040.755000", "153042.245000", "153043.735000", "153045.225000", "153046.715000", "153048.205000", "153049.695000", "153051.185000", "153052.675000", "153054.165000", "153055.655000", "153057.145000", "153058.635000", "153100.125000", "153101.615000", "153103.105000", "153104.595000", "153106.085000", "153107.575000", "153109.065000", "153110.555000", "153112.045000", "153113.535000", "153115.025000", "153116.515000", "153118.005000", "153119.495000", "153120.985000", "153122.475000", "153123.965000", "153125.455000", "153126.945000", "153128.435000", "153129.925000", "153131.415000", "153132.905000", "153134.395000", "153135.885000", "153137.375000", "153138.865000", "153140.355000", "153141.845000", "153143.335000", "153144.825000", "153146.315000", "153147.805000", "153149.295000", "153150.785000", "153152.275000", "153153.765000", "153155.255000", "153156.745000", "153158.235000", "153159.725000", "153201.215000", "153202.705000", "153204.195000", "153205.685000", "153207.175000", "153208.665000", "153210.155000", "153211.645000", "153213.135000", "153214.625000", "153216.115000", "153217.605000", "153219.095000", "153220.585000", "153222.075000", "153223.565000", "153225.055000", "153226.545000", "153228.035000", "153229.525000", "153231.015000", "153232.505000", "153233.995000", "153235.485000", "153236.975000", "153238.465000", "153239.955000", "153241.445000", "153242.935000", "153244.425000", "153245.915000", "153247.405000", "153248.895000", "153250.385000", "153251.875000", "153253.365000", "153254.855000", "153256.345000", "153257.835000", "153259.325000", "153300.815000", "153302.305000", "153303.795000", "153305.285000", "153306.775000", "153308.265000", "153309.755000", "153311.245000", "153312.735000", "153314.225000", "153315.715000", "153317.205000", "153318.695000", "153320.185000", "153321.675000", "153323.165000", "153324.655000", "153326.145000", "153327.635000", "153329.125000", "153330.615000", "153332.105000", "153333.595000", "153335.085000", "153336.575000", "153338.065000", "153339.555000", "153341.045000", "153342.535000", "153344.025000", "153345.515000", "153347.005000", "153348.495000", "153349.985000", "153351.475000", "153352.965000", "153354.455000", "153355.945000", "153357.435000", "153358.925000", "153400.415000", "153401.905000", "153403.395000", "153404.885000", "153406.375000", "153407.865000", "153409.355000", "153410.845000", "153412.335000", "153413.825000", "153415.315000", "153416.805000", "153418.295000", "153419.785000", "153421.275000", "153422.765000", "153424.255000", "153425.745000", "153427.235000", "153428.725000", "153430.215000", "153431.705000", "153433.195000", "153434.685000", "153436.175000", "153437.665000", "153439.155000", "153440.645000", "153442.135000", "153443.625000", "153445.115000", "153446.605000", "153448.095000", "153449.585000", "153451.075000", "153452.565000", "153454.055000", "153455.545000", "153457.035000", "153458.525000", "153500.015000", "153501.505000", "153502.995000", "153504.485000", "153505.975000", "153507.465000", "153508.955000", "153510.445000", "153511.935000", "153513.425000", "153514.915000", "153516.405000", "153517.895000", "153519.385000", "153520.875000", "153522.365000", "153523.855000", "153525.345000", "153526.835000", "153528.325000", "153529.815000", "153531.305000", "153532.795000", "153534.285000", "153535.775000", "153537.265000", "153538.755000", "153540.245000", "153541.735000", "153543.225000", "153544.715000", "153546.205000", "153547.695000", "153549.185000", "153550.675000", "153552.165000", "153553.655000", "153555.145000", "153556.635000", "153558.125000", "153559.615000", "153601.105000", "153602.595000", "153604.085000", "153605.575000", "153607.065000", "153608.555000", "153610.045000", "153611.535000", "153613.025000", "153614.515000", "153616.005000", "153617.495000", "153618.985000", "153620.475000", "153621.965000", "153623.455000", "153624.945000", "153626.435000", "153627.925000", "153629.415000", "153630.905000", "153632.395000", "153633.885000", "153635.375000", "153636.865000", "153638.355000", "153639.845000", "153641.335000", "153642.825000", "153644.315000", "153645.805000", "153647.295000", "153648.785000", "153650.275000", "153651.765000", "153653.255000", "153654.745000", "153656.235000", "153657.725000", "153659.215000", "153700.705000", "153702.195000", "153703.685000", "153705.175000", "153706.665000", "153708.155000", "153709.645000", "153711.135000", "153712.625000", "153714.115000", "153715.605000", "153717.095000", "153718.585000", "153720.075000", "153721.565000", "153723.055000", "153724.545000", "153726.035000", "153727.525000", "153729.015000", "153730.505000", "153731.995000", "153733.485000", "153734.975000", "153736.465000", "153737.955000", "153739.445000", "153740.935000", "153742.425000", "153743.915000", "153745.405000", "153746.895000", "153748.385000", "153749.875000", "153751.365000", "153752.855000", "153754.345000", "153755.835000", "153757.325000", "153758.815000", "153800.305000", "153801.795000", "153803.285000", "153804.775000", "153806.265000", "153807.755000", "153809.245000", "153810.735000", "153812.225000", "153813.715000", "153815.205000", "153816.695000", "153818.185000", "153819.675000", "153821.165000", "153822.655000", "153824.145000", "153825.635000", "153827.125000", "153828.615000", "153830.105000", "153831.595000", "153833.085000", "153834.575000", "153836.065000", "153837.555000", "153839.045000", "153840.535000", "153842.025000", "153843.515000", "153845.005000", "153846.495000", "153847.985000", "153849.475000", "153850.965000", "153852.455000", "153853.945000", "153855.435000"],
      "ContentTime": ["152859.370000", "152859.373000", "152859.375000", "152859.378000", "152859.381000", "152859.383000", "152859.385000", "152859.388000", "152859.390000", "152859.393000", "152859.395000", "152859.398000", "152859.400000", "152859.403000", "152859.405000", "152859.408000", "152859.410000", "152859.413000", "152859.415000", "152859.418000", "152859.425000", "152919.328000", "152919.331000", "152919.333000", "152919.336000", "152919.338000", "152919.341000", "152919.344000", "152919.346000", "152919.349000", "152919.351000", "152919.354000", "152919.356000", "152919.359000", "152919.361000", "152919.364000", "152919.367000", "152919.369000", "152919.372000", "152919.374000", "152919.377000", "152939.326000", "152939.329000", "152939.332000", "152939.334000", "152939.337000", "152939.339000", "152939.342000", "152939.344000", "152939.346000", "152939.349000", "152939.351000", "152939.354000", "152939.356000", "152939.359000", "152939.361000", "152939.364000", "152939.366000", "152939.369000", "152939.371000", "152939.374000", "152959.321000", "152959.323000", "152959.326000", "152959.328000", "152959.331000", "152959.334000", "152959.336000", "152959.339000", "152959.341000", "152959.343000", "152959.346000", "152959.348000", "152959.351000", "152959.353000", "152959.356000", "152959.358000", "152959.361000", "152959.363000", "152959.366000", "152959.368000", "153019.337000", "153019.339000", "153019.342000", "153019.344000", "153019.347000", "153019.349000", "153019.357000", "153019.359000", "153019.362000", "153019.364000", "153019.367000", "153019.369000", "153019.372000", "153019.375000", "153019.377000", "153019.380000", "153019.382000", "153019.385000", "153019.387000", "153019.390000", "153019.392000", "153059.362000", "153059.365000", "153059.368000", "153059.370000", "153059.373000", "153059.375000", "153059.385000", "153059.387000", "153059.390000", "153059.392000", "153059.395000", "153059.397000", "153059.400000", "153059.402000", "153059.405000", "153059.407000", "153059.410000", "153059.412000", "153059.415000", "153059.417000", "153059.420000", "153059.422000", "153059.425000", "153059.427000", "153059.430000", "153059.432000", "153059.435000", "153059.437000", "153139.358000", "153139.360000", "153139.363000", "153139.365000", "153139.368000", "153139.370000", "153139.373000", "153139.375000", "153139.378000", "153139.380000", "153139.383000", "153139.385000", "153139.388000", "153139.390000", "153139.393000", "153139.396000", "153139.398000", "153139.401000", "153139.403000", "153139.406000", "153139.408000", "153139.411000", "153139.413000", "153139.416000", "153139.418000", "153139.429000", "153139.431000", "153219.349000", "153219.352000", "153219.354000", "153219.357000", "153219.359000", "153219.362000", "153219.364000", "153219.367000", "153219.369000", "153219.372000", "153219.374000", "153219.377000", "153219.379000", "153219.382000", "153219.384000", "153219.387000", "153219.389000", "153219.392000", "153219.394000", "153219.397000", "153219.399000", "153219.402000", "153219.404000", "153219.407000", "153219.409000", "153219.412000", "153219.414000", "153259.379000", "153259.382000", "153259.384000", "153259.387000", "153259.389000", "153259.392000", "153259.394000", "153259.397000", "153259.399000", "153259.402000", "153259.404000", "153259.407000", "153259.409000", "153259.412000", "153259.414000", "153259.417000", "153259.419000", "153259.422000", "153259.424000", "153259.427000", "153259.429000", "153259.432000", "153259.434000", "153259.437000", "153259.439000", "153259.442000", "153259.444000", "153339.347000", "153339.350000", "153339.352000", "153339.355000", "153339.357000", "153339.360000", "153339.362000", "153339.365000", "153339.367000", "153339.370000", "153339.372000", "153339.375000", "153339.377000", "153339.380000", "153339.382000", "153339.385000", "153339.387000", "153339.390000", "153339.392000", "153339.395000", "153339.397000", "153339.400000", "153339.402000", "153339.405000", "153339.407000", "153339.410000", "153339.412000", "153419.343000", "153419.346000", "153419.348000", "153419.351000", "153419.353000", "153419.356000", "153419.358000", "153419.361000", "153419.363000", "153419.366000", "153419.368000", "153419.371000", "153419.373000", "153419.376000", "153419.379000", "153419.381000", "153419.383000", "153419.386000", "153419.388000", "153419.391000", "153419.393000", "153419.396000", "153419.398000", "153419.401000", "153419.403000", "153419.406000", "153419.408000", "153459.345000", "153459.347000", "153459.350000", "153459.353000", "153459.355000", "153459.357000", "153459.360000", "153459.362000", "153459.365000", "153459.367000", "153459.370000", "153459.372000", "153459.375000", "153459.377000", "153459.380000", "153459.382000", "153459.385000", "153459.387000", "153459.395000", "153459.397000", "153459.400000", "153459.402000", "153459.405000", "153459.407000", "153459.410000", "153459.412000", "153539.712000", "153539.715000", "153539.717000", "153539.720000", "153539.723000", "153539.725000", "153539.728000", "153539.730000", "153539.733000", "153539.735000", "153539.738000", "153539.740000", "153539.743000", "153539.745000", "153539.748000", "153539.751000", "153539.753000", "153539.756000", "153539.758000", "153539.761000", "153539.763000", "153539.766000", "153539.810000", "153539.812000", "153539.815000", "153539.817000", "153539.820000", "153619.355000", "153619.358000", "153619.360000", "153619.363000", "153619.365000", "153619.368000", "153619.370000", "153619.373000", "153619.375000", "153619.378000", "153619.380000", "153619.383000", "153619.385000", "153619.388000", "153619.390000", "153619.393000", "153619.395000", "153619.398000", "153619.400000", "153619.403000", "153619.405000", "153619.408000", "153619.410000", "153619.413000", "153619.415000", "153619.418000", "153619.420000", "153659.347000", "153659.349000", "153659.352000", "153659.354000", "153659.358000", "153659.360000", "153659.363000", "153659.365000", "153659.368000", "153659.370000", "153659.373000", "153659.375000", "153659.378000", "153659.380000", "153659.383000", "153659.385000", "153659.388000", "153659.390000", "153659.393000", "153659.396000", "153659.398000", "153659.400000", "153659.403000", "153659.406000", "153659.408000", "153659.411000", "153659.413000", "153739.372000", "153739.375000", "153739.377000", "153739.380000", "153739.382000", "153739.385000", "153739.387000", "153739.390000", "153739.392000", "153739.395000", "153739.397000", "153739.400000", "153739.403000", "153739.405000", "153739.408000", "153739.410000", "153739.413000", "153739.415000", "153739.418000", "153739.420000", "153739.423000", "153739.425000", "153739.428000", "153739.430000", "153739.433000", "153739.435000", "153739.438000", "153819.351000", "153819.354000", "153819.357000", "153819.359000", "153819.362000", "153819.364000", "153819.367000", "153819.370000", "153819.372000", "153819.375000", "153819.377000", "153819.380000", "153819.382000", "153819.385000", "153819.387000", "153819.390000", "153819.392000", "153819.395000", "153819.397000", "153819.400000", "153819.402000", "153819.405000", "153819.407000", "153819.410000", "153819.412000", "153819.415000", "153819.417000", "153859.183000", "153859.186000", "153859.188000", "153859.191000", "153859.193000", "153859.196000", "153859.198000", "153859.201000", "153859.203000", "153859.206000", "153859.209000", "153859.211000", "153859.214000", "153859.216000", "153859.219000", "153859.221000", "153859.224000", "153859.226000", "153859.229000", "153859.231000", "153859.234000", "153859.236000", "153859.239000", "153859.242000", "153859.244000", "153859.247000"],
