{
  "AcquisitionMatrixPE": 104,
  "AcquisitionNumber": 1,
  "AcquisitionTime": "15:27:43.445000",
  "BandwidthPerPixelPhaseEncode": 17.17,
  "BaseResolution": 104,
  "BodyPartExamined": "BRAIN",
  "CoilString": "HC1-7;NC1_2",
  "ConsistencyInfo": "N4_VE11C_LATEST_20160120",
  "ConversionSoftware": "dcm2niix",
  "ConversionSoftwareVersion": "v1.0.20190902",
  "DerivedVendorReportedEchoSpacing": 0.000560011,
  "DeviceSerialNumber": "167006",
  "DwellTime": 2.1e-06,
  "EchoTime": 0.037,
  "EchoTrainLength": 104,
  "EffectiveEchoSpacing": 0.000560011,
  "FlipAngle": 52,
  "HeudiconvVersion": "0.10.0",
  "ImageComments": "Unaliased_MB4_PE3_LB",
  "ImageOrientationPatientDICOM": [0.995609, 0.0840014, 0.0413127, -0.0607196, 0.915389, -0.397964],
  "ImageType": [
    "ORIGINAL",
    "PRIMARY",
    "M",
    "MB",
    "ND",
    "MOSAIC"
],
  "ImagingFrequency": 123.259,
  "InPlanePhaseEncodingDirectionDICOM": "COL",
  "InstitutionAddress": "Chemin_Queen-Mary_4565_Montreal_District_CA_H3W_1W5",
  "InstitutionName": "IUGM",
  "InstitutionalDepartmentName": "Department",
  "MRAcquisitionType": "2D",
  "MagneticFieldStrength": 3,
  "Manufacturer": "Siemens",
  "ManufacturersModelName": "Prisma_fit",
  "Modality": "MR",
  "MultibandAccelerationFactor": 4,
  "PartialFourier": 1,
  "PatientPosition": "HFS",
  "PercentPhaseFOV": 100,
  "PhaseEncodingDirection": "j",
  "PhaseEncodingSteps": 104,
  "PhaseResolution": 1,
  "PixelBandwidth": 2290,
  "ProcedureStepDescription": "games_mario",
  "ProtocolName": "func_task-mario_run-02",
  "PulseSequenceDetails": "%CustomerSeq%_cmrr_mbep2d_bold",
  "ReceiveCoilActiveElements": "HC1-7;NC1,2",
  "ReceiveCoilName": "HeadNeck_64",
  "ReconMatrixPE": 104,
  "RepetitionTime": 1.49,
  "SAR": 0.0383711,
  "ScanOptions": "FS",
  "ScanningSequence": "EP",
  "SequenceName": "epfid2d1_104",
  "SequenceVariant": "SK_SS",
  "SeriesDescription": "func_task-mario_run-02",
  "SeriesNumber": 13,
  "ShimSetting": [632, -7180, -8829, 608, 89, 9, -74, 0],
  "SliceThickness": 2,
  "SliceTiming": [0, 0.785, 0.0975, 0.8825, 0.1975, 0.98, 0.295, 1.0775, 0.3925, 1.1775, 0.49, 1.275, 0.5875, 1.3725, 0.6875, 0, 0.785, 0.0975, 0.8825, 0.1975, 0.98, 0.295, 1.0775, 0.3925, 1.1775, 0.49, 1.275, 0.5875, 1.3725, 0.6875, 0, 0.785, 0.0975, 0.8825, 0.1975, 0.98, 0.295, 1.0775, 0.3925, 1.1775, 0.49, 1.275, 0.5875, 1.3725, 0.6875, 0, 0.785, 0.0975, 0.8825, 0.1975, 0.98, 0.295, 1.0775, 0.3925, 1.1775, 0.49, 1.275, 0.5875, 1.3725, 0.6875],
  "SoftwareVersions": "syngo_MR_E11",
  "SpacingBetweenSlices": 2,
  "StationName": "MRC35049",
  "TaskName": "mario",
  "TotalReadoutTime": 0.0576811,
  "TxRefAmp": 250.098,
  "WipMemBlock": "014f370d-4ca4-4482-b70f-d88639c8d1de||Sequence: R016 ve11c/master r/e634e98; Dec 19 2017 11:00:25 by eja",
  "dcmmeta_affine": [
    [-1.9912177324295044, -0.12143927812576294, 0.14249353110790253, 108.82217407226562],
    [-0.16800281405448914, 1.8307785987854004, -0.787416398525238, -47.76272201538086],
    [0.08262541890144348, 0.795928418636322, 1.8329405784606934, -69.85185241699219],
    [0.0, 0.0, 0.0, 1.0]
],
  "dcmmeta_reorient_transform": [
    [0.0, -1.0, 0.0, 103.0],
    [1.0, 0.0, 0.0, 0.0],
    [0.0, 0.0, 1.0, 0.0],
    [0.0, 0.0, 0.0, 1.0]
],
  "dcmmeta_shape": [104, 104, 60, 452],
  "dcmmeta_slice_dim": 2,
  "dcmmeta_version": 0.6,
  "global": {
    "const": {
      "AcquisitionMatrix": [104, 0, 0, 104],
      "AngioFlag": "N",
      "BitsAllocated": 16,
      "BitsStored": 16,
      "BodyPartExamined": "BRAIN",
      "Columns": 832,
      "EchoNumbers": 1,
      "EchoTime": 37.0,
      "EchoTrainLength": 104,
      "FlipAngle": 52.0,
      "HighBit": 15,
      "ImageOrientationPatient": [0.99560887074268, 0.08400140872366, 0.04131270786234, -0.0607196408874, 0.91538932068832, -0.3979642154519],
      "ImagePositionPatient": [-776.91329102136, -868.36392885075, 271.77107404417],
      "ImageType": [
        "ORIGINAL",
        "PRIMARY",
        "M",
        "MB",
        "ND",
        "MOSAIC"
],
      "ImagedNucleus": "1H",
      "ImagingFrequency": 123.258915,
      "InPlanePhaseEncodingDirection": "COL",
      "MRAcquisitionType": "2D",
      "MagneticFieldStrength": 3.0,
      "Manufacturer": "SIEMENS",
      "ManufacturerModelName": "Prisma_fit",
      "Modality": "MR",
      "NumberOfAverages": 1.0,
      "NumberOfPhaseEncodingSteps": 104,
      "PercentPhaseFieldOfView": 100.0,
      "PercentSampling": 100.0,
      "PerformedProcedureStepStartTime": "150703.167000",
      "PhotometricInterpretation": "MONOCHROME2",
      "PixelBandwidth": 2290.0,
      "PixelRepresentation": 0,
      "PixelSpacing": [2.0, 2.0],
      "ProtocolName": "func_task-mario_run-02",
      "RepetitionTime": 1490.0,
      "Rows": 832,
      "SAR": 0.03837108196297,
      "SamplesPerPixel": 1,
      "ScanOptions": "FS",
      "ScanningSequence": "EP",
      "SequenceName": "epfid2d1_104",
      "SequenceVariant": [
        "SK",
        "SS"
],
      "SeriesDescription": "func_task-mario_run-02",
      "SeriesNumber": 13,
      "SeriesTime": "152859.252000",
      "SliceLocation": -37.45934091292,
      "SliceThickness": 2.0,
      "SmallestImagePixelValue": 0,
      "SoftwareVersions": "syngo MR E11",
      "SpacingBetweenSlices": 1.9999999978259,
      "SpecificCharacterSet": "ISO_IR 100",
      "StudyID": "1",
      "StudyTime": "150703.010000",
      "TransmitCoilName": "Body",
      "VariableFlipAngleFlag": "N",
      "WindowCenterWidthExplanation": "Algo1",
      "dBdt": 0.0},
    "slices": {}
  },
  "time": {
    "samples": {
      "AcquisitionNumber": [1, 2, 3, 4, 5, 6, 7, 8, 9, 10, 11, 12, 13, 14, 15, 16, 17, 18, 19, 20, 21, 22, 23, 24, 25, 26, 27, 28, 29, 30, 31, 32, 33, 34, 35, 36, 37, 38, 39, 40, 41, 42, 43, 44, 45, 46, 47, 48, 49, 50, 51, 52, 53, 54, 55, 56, 57, 58, 59, 60, 61, 62, 63, 64, 65, 66, 67, 68, 69, 70, 71, 72, 73, 74, 75, 76, 77, 78, 79, 80, 81, 82, 83, 84, 85, 86, 87, 88, 89, 90, 91, 92, 93, 94, 95, 96, 97, 98, 99, 100, 101, 102, 103, 104, 105, 106, 107, 108, 109, 110, 111, 112, 113, 114, 115, 116, 117, 118, 119, 120, 121, 122, 123, 124, 125, 126, 127, 128, 129, 130, 131, 132, 133, 134, 135, 136, 137, 138, 139, 140, 141, 142, 143, 144, 145, 146, 147, 148, 149, 150, 151, 152, 153, 154, 155, 156, 157, 158, 159, 160, 161, 162, 163, 164, 165, 166, 167, 168, 169, 170, 171, 172, 173, 174, 175, 176, 177, 178, 179, 180, 181, 182, 183, 184, 185, 186, 187, 188, 189, 190, 191, 192, 193, 194, 195, 196, 197, 198, 199, 200, 201, 202, 203, 204, 205, 206, 207, 208, 209, 210, 211, 212, 213, 214, 215, 216, 217, 218, 219, 220, 221, 222, 223, 224, 225, 226, 227, 228, 229, 230, 231, 232, 233, 234, 235, 236, 237, 238, 239, 240, 241, 242, 243, 244, 245, 246, 247, 248, 249, 250, 251, 252, 253, 254, 255, 256, 257, 258, 259, 260, 261, 262, 263, 264, 265, 266, 267, 268, 269, 270, 271, 272, 273, 274, 275, 276, 277, 278, 279, 280, 281, 282, 283, 284, 285, 286, 287, 288, 289, 290, 291, 292, 293, 294, 295, 296, 297, 298, 299, 300, 301, 302, 303, 304, 305, 306, 307, 308, 309, 310, 311, 312, 313, 314, 315, 316, 317, 318, 319, 320, 321, 322, 323, 324, 325, 326, 327, 328, 329, 330, 331, 332, 333, 334, 335, 336, 337, 338, 339, 340, 341, 342, 343, 344, 345, 346, 347, 348, 349, 350, 351, 352, 353, 354, 355, 356, 357, 358, 359, 360, 361, 362, 363, 364, 365, 366, 367, 368, 369, 370, 371, 372, 373, 374, 375, 376, 377, 378, 379, 380, 381, 382, 383, 384, 385, 386, 387, 388, 389, 390, 391, 392, 393, 394, 395, 396, 397, 398, 399, 400, 401, 402, 403, 404, 405, 406, 407, 408, 409, 410, 411, 412, 413, 414, 415, 416, 417, 418, 419, 420, 421, 422, 423, 424, 425, 426, 427, 428, 429, 430, 431, 432, 433, 434, 435, 436, 437, 438, 439, 440, 441, 442, 443, 444, 445, 446, 447, 448, 449, 450, 451, 452],
      "AcquisitionTime": ["152743.445000", "152744.935000", "152746.425000", "152747.915000", "152749.405000", "152750.895000", "152752.385000", "152753.875000", "152755.365000", "152756.855000", "152758.345000", "152759.835000", "152801.325000", "152802.815000", "152804.305000", "152805.795000", "152807.285000", "152808.775000", "152810.265000", "152811.755000", "152813.245000", "152814.735000", "152816.225000", "152817.715000", "152819.205000", "152820.695000", "152822.185000", "152823.675000", "152825.165000", "152826.655000", "152828.145000", "152829.635000", "152831.125000", "152832.615000", "152834.105000", "152835.595000", "152837.085000", "152838.575000", "152840.065000", "152841.555000", "152843.045000", "152844.535000", "152846.025000", "152847.515000", "152849.005000", "152850.495000", "152851.985000", "152853.475000", "152854.965000", "152856.455000", "152857.945000", "152859.435000", "152900.925000", "152902.415000", "152903.905000", "152905.395000", "152906.885000", "152908.375000", "152909.865000", "152911.355000", "152912.845000", "152914.335000", "152915.825000", "152917.315000", "152918.805000", "152920.295000", "152921.785000", "152923.275000", "152924.765000", "152926.255000", "152927.745000", "152929.235000", "152930.725000", "152932.215000", "152933.705000", "152935.195000", "152936.685000", "152938.175000", "152939.665000", "152941.155000", "152942.645000", "152944.135000", "152945.625000", "152947.115000", "152948.605000", "152950.095000", "152951.585000", "152953.075000", "152954.565000", "152956.055000", "152957.545000", "152959.035000", "153000.525000", "153002.015000", "153003.505000", "153004.995000", "153006.485000", "153007.975000", "153009.465000", "153010.955000", "153012.445000", "153013.935000", "153015.425000", "153016.915000", "153018.405000", "153019.895000", "153021.385000", "153022.875000", "153024.365000", "153025.855000", "153027.345000", "153028.835000", "153030.325000", "153031.815000", "153033.305000", "153034.795000", "153036.285000", "153037.775000", "153039.265000", "153040.755000", "153042.245000", "153043.735000", "153045.225000", "153046.715000", "153048.205000", "153049.695000", "153051.185000", "153052.675000", "153054.165000", "153055.655000", "153057.145000", "153058.635000", "153100.125000", "153101.615000", "153103.105000", "153104.595000", "153106.085000", "153107.575000", "153109.065000", "153110.555000", "153112.045000", "153113.535000", "153115.025000", "153116.515000", "153118.005000", "153119.495000", "153120.985000", "153122.475000", "153123.965000", "153125.455000", "153126.945000", "153128.435000", "153129.925000", "153131.415000", "153132.905000", "153134.395000", "153135.885000", "153137.375000", "153138.865000", "153140.355000", "153141.845000", "153143.335000", "153144.825000", "153146.315000", "153147.805000", "153149.295000", "153150.785000", "153152.275000", "153153.765000", "153155.255000", "153156.745000", "153158.235000", "153159.725000", "153201.215000", "153202.705000", "153204.195000", "153205.685000", "153207.175000", "153208.665000", "153210.155000", "153211.645000", "153213.135000", "153214.625000", "153216.115000", "153217.605000", "153219.095000", "153220.585000", "153222.075000", "153223.565000", "153225.055000", "153226.545000", "153228.035000", "153229.525000", "153231.015000", "153232.505000", "153233.995000", "153235.485000", "153236.975000", "153238.465000", "153239.955000", "153241.445000", "153242.935000", "153244.425000", "153245.915000", "153247.405000", "153248.895000", "153250.385000", "153251.875000", "153253.365000", "153254.855000", "153256.345000", "153257.835000", "153259.325000", "153300.815000", "153302.305000", "153303.795000", "153305.285000", "153306.775000", "153308.265000", "153309.755000", "153311.245000", "153312.735000", "153314.225000", "153315.715000", "153317.205000", "153318.695000", "153320.185000", "153321.675000", "153323.165000", "153324.655000", "153326.145000", "153327.635000", "153329.125000", "153330.615000", "153332.105000", "153333.595000", "153335.085000", "153336.575000", "153338.065000", "153339.555000", "153341.045000", "153342.535000", "153344.025000", "153345.515000", "153347.005000", "153348.495000", "153349.985000", "153351.475000", "153352.965000", "153354.455000", "153355.945000", "153357.435000", "153358.925000", "153400.415000", "153401.905000", "153403.395000", "153404.885000", "153406.375000", "153407.865000", "153409.355000", "153410.845000", "153412.335000", "153413.825000", "153415.315000", "153416.805000", "153418.295000", "153419.785000", "153421.275000", "153422.765000", "153424.255000", "153425.745000", "153427.235000", "153428.725000", "153430.215000", "153431.705000", "153433.195000", "153434.685000", "153436.175000", "153437.665000", "153439.155000", "153440.645000", "153442.135000", "153443.625000", "153445.115000", "153446.605000", "153448.095000", "153449.585000", "153451.075000", "153452.565000", "153454.055000", "153455.545000", "153457.035000", "153458.525000", "153500.015000", "153501.505000", "153502.995000", "153504.485000", "153505.975000", "153507.465000", "153508.955000", "153510.445000", "153511.935000", "153513.425000", "153514.915000", "153516.405000", "153517.895000", "153519.385000", "153520.875000", "153522.365000", "153523.855000", "153525.345000", "153526.835000", "153528.325000", "153529.815000", "153531.305000", "153532.795000", "153534.285000", "153535.775000", "153537.265000", "153538.755000", "153540.245000", "153541.735000", "153543.225000", "153544.715000", "153546.205000", "153547.695000", "153549.185000", "153550.675000", "153552.165000", "153553.655000", "153555.145000", "153556.635000", "153558.125000", "153559.615000", "153601.105000", "153602.595000", "153604.085000", "153605.575000", "153607.065000", "153608.555000", "153610.045000", "153611.535000", "153613.025000", "153614.515000", "153616.005000", "153617.495000", "153618.985000", "153620.475000", "153621.965000", "153623.455000", "153624.945000", "153626.435000", "153627.925000", "153629.415000", "153630.905000", "153632.395000", "153633.885000", "153635.375000", "153636.865000", "153638.355000", "153639.845000", "153641.335000", "153642.825000", "153644.315000", "153645.805000", "153647.295000", "153648.785000", "153650.275000", "153651.765000", "153653.255000", "153654.745000", "153656.235000", "153657.725000", "153659.215000", "153700.705000", "153702.195000", "153703.685000", "153705.175000", "153706.665000", "153708.155000", "153709.645000", "153711.135000", "153712.625000", "153714.115000", "153715.605000", "153717.095000", "153718.585000", "153720.075000", "153721.565000", "153723.055000", "153724.545000", "153726.035000", "153727.525000", "153729.015000", "153730.505000", "153731.995000", "153733.485000", "153734.975000", "153736.465000", "153737.955000", "153739.445000", "153740.935000", "153742.425000", "153743.915000", "153745.405000", "153746.895000", "153748.385000", "153749.875000", "153751.365000", "153752.855000", "153754.345000", "153755.835000", "153757.325000", "153758.815000", "153800.305000", "153801.795000", "153803.285000", "153804.775000", "153806.265000", "153807.755000", "153809.245000", "153810.735000", "153812.225000", "153813.715000", "153815.205000", "153816.695000", "153818.185000", "153819.675000", "153821.165000", "153822.655000", "153824.145000", "153825.635000", "153827.125000", "153828.615000", "153830.105000", "153831.595000", "153833.085000", "153834.575000", "153836.065000", "153837.555000", "153839.045000", "153840.535000", "153842.025000", "153843.515000", "153845.005000", "153846.495000", "153847.985000", "153849.475000", "153850.965000", "153852.455000", "153853.945000", "153855.435000"],
      "ContentTime": ["152859.255000", "152859.258000", "152859.262000", "152859.265000", "152859.268000", "152859.272000", "152859.275000", "152859.279000", "152859.282000", "152859.285000", "152859.288000", "152859.292000", "152859.295000", "152859.298000", "152859.302000", "152859.305000", "152859.308000", "152859.312000", "152859.315000", "152859.318000", "152859.329000", "152919.213000", "152919.217000", "152919.220000", "152919.224000", "152919.227000", "152919.230000", "152919.234000", "152919.237000", "152919.240000", "152919.244000", "152919.247000", "152919.250000", "152919.254000", "152919.257000", "152919.261000", "152919.264000", "152919.267000", "152919.270000", "152919.274000", "152919.277000", "152939.213000", "152939.217000", "152939.220000", "152939.224000", "152939.227000", "152939.230000", "152939.234000", "152939.237000", "152939.240000", "152939.247000", "152939.250000", "152939.253000", "152939.257000", "152939.260000", "152939.263000", "152939.267000", "152939.270000", "152939.273000", "152939.277000", "152939.280000", "152959.213000", "152959.217000", "152959.220000", "152959.223000", "152959.227000", "152959.230000", "152959.233000", "152959.237000", "152959.240000", "152959.243000", "152959.247000", "152959.250000", "152959.253000", "152959.257000", "152959.260000", "152959.263000", "152959.267000", "152959.270000", "152959.273000", "152959.277000", "153019.213000", "153019.217000", "153019.220000", "153019.223000", "153019.227000", "153019.230000", "153019.233000", "153019.237000", "153019.240000", "153019.243000", "153019.247000", "153019.250000", "153019.253000", "153019.257000", "153019.260000", "153019.272000", "153019.275000", "153019.279000", "153019.282000", "153019.285000", "153019.297000", "153059.213000", "153059.217000", "153059.221000", "153059.224000", "153059.228000", "153059.231000", "153059.235000", "153059.238000", "153059.241000", "153059.245000", "153059.248000", "153059.251000", "153059.255000", "153059.265000", "153059.268000", "153059.271000", "153059.275000", "153059.278000", "153059.281000", "153059.285000", "153059.288000", "153059.291000", "153059.295000", "153059.298000", "153059.301000", "153059.305000", "153059.308000", "153059.311000", "153139.213000", "153139.217000", "153139.220000", "153139.224000", "153139.227000", "153139.230000", "153139.234000", "153139.237000", "153139.240000", "153139.244000", "153139.247000", "153139.251000", "153139.254000", "153139.257000", "153139.261000", "153139.264000", "153139.267000", "153139.271000", "153139.279000", "153139.283000", "153139.286000", "153139.289000", "153139.293000", "153139.296000", "153139.299000", "153139.303000", "153139.306000", "153219.213000", "153219.217000", "153219.220000", "153219.224000", "153219.227000", "153219.230000", "153219.234000", "153219.237000", "153219.241000", "153219.244000", "153219.247000", "153219.251000", "153219.254000", "153219.257000", "153219.261000", "153219.264000", "153219.267000", "153219.271000", "153219.274000", "153219.277000", "153219.281000", "153219.284000", "153219.287000", "153219.291000", "153219.294000", "153219.297000", "153219.301000", "153259.213000", "153259.217000", "153259.220000", "153259.224000", "153259.227000", "153259.230000", "153259.234000", "153259.237000", "153259.247000", "153259.250000", "153259.254000", "153259.257000", "153259.260000", "153259.264000", "153259.267000", "153259.270000", "153259.274000", "153259.292000", "153259.296000", "153259.299000", "153259.302000", "153259.306000", "153259.309000", "153259.312000", "153259.320000", "153259.324000", "153259.327000", "153339.213000", "153339.217000", "153339.220000", "153339.224000", "153339.227000", "153339.230000", "153339.234000", "153339.237000", "153339.240000", "153339.244000", "153339.247000", "153339.250000", "153339.254000", "153339.257000", "153339.260000", "153339.263000", "153339.267000", "153339.270000", "153339.274000", "153339.277000", "153339.280000", "153339.284000", "153339.287000", "153339.290000", "153339.293000", "153339.297000", "153339.300000", "153419.213000", "153419.217000", "153419.220000", "153419.224000", "153419.227000", "153419.230000", "153419.234000", "153419.237000", "153419.240000", "153419.244000", "153419.247000", "153419.250000", "153419.254000", "153419.257000", "153419.261000", "153419.264000", "153419.267000", "153419.271000", "153419.274000", "153419.277000", "153419.280000", "153419.284000", "153419.287000", "153419.290000", "153419.294000", "153419.297000", "153419.300000", "153459.213000", "153459.217000", "153459.221000", "153459.224000", "153459.227000", "153459.231000", "153459.234000", "153459.238000", "153459.241000", "153459.245000", "153459.248000", "153459.251000", "153459.255000", "153459.258000", "153459.261000", "153459.265000", "153459.268000", "153459.272000", "153459.275000", "153459.278000", "153459.281000", "153459.285000", "153459.288000", "153459.291000", "153459.295000", "153459.298000", "153539.213000", "153539.217000", "153539.236000", "153539.240000", "153539.243000", "153539.246000", "153539.250000", "153539.253000", "153539.257000", "153539.260000", "153539.264000", "153539.267000", "153539.270000", "153539.274000", "153539.277000", "153539.281000", "153539.284000", "153539.287000", "153539.291000", "153539.294000", "153539.297000", "153539.301000", "153539.304000", "153539.307000", "153539.311000", "153539.314000", "153539.318000", "153619.213000", "153619.217000", "153619.220000", "153619.224000", "153619.227000", "153619.230000", "153619.234000", "153619.237000", "153619.240000", "153619.244000", "153619.247000", "153619.250000", "153619.254000", "153619.257000", "153619.260000", "153619.264000", "153619.267000", "153619.270000", "153619.274000", "153619.277000", "153619.280000", "153619.283000", "153619.287000", "153619.290000", "153619.294000", "153619.297000", "153619.300000", "153659.213000", "153659.217000", "153659.221000", "153659.224000", "153659.227000", "153659.231000", "153659.234000", "153659.238000", "153659.241000", "153659.244000", "153659.248000", "153659.251000", "153659.254000", "153659.258000", "153659.261000", "153659.264000", "153659.268000", "153659.271000", "153659.274000", "153659.278000", "153659.281000", "153659.284000", "153659.288000", "153659.291000", "153659.294000", "153659.298000", "153659.301000", "153739.213000", "153739.217000", "153739.220000", "153739.224000", "153739.227000", "153739.230000", "153739.235000", "153739.239000", "153739.242000", "153739.246000", "153739.249000", "153739.252000", "153739.256000", "153739.259000", "153739.262000", "153739.266000", "153739.279000", "153739.282000", "153739.286000", "153739.289000", "153739.303000", "153739.306000", "153739.310000", "153739.313000", "153739.317000", "153739.320000", "153739.323000", "153819.213000", "153819.217000", "153819.221000", "153819.224000", "153819.227000", "153819.230000", "153819.234000", "153819.237000", "153819.241000", "153819.244000", "153819.248000", "153819.251000", "153819.254000", "153819.258000", "153819.261000", "153819.265000", "153819.268000", "153819.271000", "153819.275000", "153819.278000", "153819.281000", "153819.285000", "153819.288000", "153819.292000", "153819.295000", "153819.298000", "153819.302000", "153859.053000", "153859.057000", "153859.060000", "153859.064000", "153859.067000", "153859.071000", "153859.074000", "153859.078000", "153859.081000", "153859.085000", "153859.088000", "153859.091000", "153859.095000", "153859.098000", "153859.102000", "153859.105000", "153859.109000", "153859.112000", "153859.115000", "153859.119000", "153859.122000", "153859.125000", "153859.129000", "153859.132000", "153859.136000", "153859.139000"],
