{
  "AcquisitionMatrixPE": 104,
  "AcquisitionNumber": 1,
  "AcquisitionTime": "15:53:39.205000",
  "BandwidthPerPixelPhaseEncode": 17.17,
  "BaseResolution": 104,
  "BodyPartExamined": "BRAIN",
  "CoilString": "HC1-7;NC1_2",
  "ConsistencyInfo": "N4_VE11C_LATEST_20160120",
  "ConversionSoftware": "dcm2niix",
  "ConversionSoftwareVersion": "v1.0.20190902",
  "DerivedVendorReportedEchoSpacing": 0.000560011,
  "DeviceSerialNumber": "167006",
  "DwellTime": 2.1e-06,
  "EchoTime": 0.037,
  "EchoTrainLength": 104,
  "EffectiveEchoSpacing": 0.000560011,
  "FlipAngle": 52,
  "HeudiconvVersion": "0.10.0",
  "ImageComments": "Unaliased_MB4_PE3_LB",
  "ImageOrientationPatientDICOM": [0.995609, 0.0840014, 0.0413127, -0.0607196, 0.915389, -0.397964],
  "ImageType": [
    "ORIGINAL",
    "PRIMARY",
    "P",
    "MB",
    "ND",
    "MOSAIC"
],
  "ImagingFrequency": 123.259,
  "InPlanePhaseEncodingDirectionDICOM": "COL",
  "InstitutionAddress": "Chemin_Queen-Mary_4565_Montreal_District_CA_H3W_1W5",
  "InstitutionName": "IUGM",
  "InstitutionalDepartmentName": "Department",
  "MRAcquisitionType": "2D",
  "MagneticFieldStrength": 3,
  "Manufacturer": "Siemens",
  "ManufacturersModelName": "Prisma_fit",
  "Modality": "MR",
  "MultibandAccelerationFactor": 4,
  "PartialFourier": 1,
  "PatientPosition": "HFS",
  "PercentPhaseFOV": 100,
  "PhaseEncodingDirection": "j",
  "PhaseEncodingSteps": 104,
  "PhaseResolution": 1,
  "PixelBandwidth": 2290,
  "ProcedureStepDescription": "games_mario",
  "ProtocolName": "func_task-mario_run-04",
  "PulseSequenceDetails": "%CustomerSeq%_cmrr_mbep2d_bold",
  "ReceiveCoilActiveElements": "HC1-7;NC1,2",
  "ReceiveCoilName": "HeadNeck_64",
  "ReconMatrixPE": 104,
  "RepetitionTime": 1.49,
  "SAR": 0.0383711,
  "ScanOptions": "FS",
  "ScanningSequence": "EP",
  "SequenceName": "epfid2d1_104",
  "SequenceVariant": "SK_SS",
  "SeriesDescription": "func_task-mario_run-04",
  "SeriesNumber": 20,
  "ShimSetting": [632, -7180, -8829, 608, 89, 9, -74, 0],
  "SliceThickness": 2,
  "SliceTiming": [0, 0.785, 0.0975, 0.8825, 0.1975, 0.98, 0.295, 1.0775, 0.3925, 1.1775, 0.49, 1.275, 0.5875, 1.3725, 0.6875, 0, 0.785, 0.0975, 0.8825, 0.1975, 0.98, 0.295, 1.0775, 0.3925, 1.1775, 0.49, 1.275, 0.5875, 1.3725, 0.6875, 0, 0.785, 0.0975, 0.8825, 0.1975, 0.98, 0.295, 1.0775, 0.3925, 1.1775, 0.49, 1.275, 0.5875, 1.3725, 0.6875, 0, 0.785, 0.0975, 0.8825, 0.1975, 0.98, 0.295, 1.0775, 0.3925, 1.1775, 0.49, 1.275, 0.5875, 1.3725, 0.6875],
  "SoftwareVersions": "syngo_MR_E11",
  "SpacingBetweenSlices": 2,
  "StationName": "MRC35049",
  "TaskName": "mario",
  "TotalReadoutTime": 0.0576811,
  "TxRefAmp": 250.098,
  "WipMemBlock": "6f52fe16-15ee-4ae3-b444-fd6ec8672d52||Sequence: R016 ve11c/master r/e634e98; Dec 19 2017 11:00:25 by eja",
  "dcmmeta_affine": [
    [-1.9912177324295044, -0.12143927812576294, 0.14249353110790253, 108.82217407226562],
    [-0.16800281405448914, 1.8307785987854004, -0.787416398525238, -47.76272201538086],
    [0.08262541890144348, 0.795928418636322, 1.8329405784606934, -69.85185241699219],
    [0.0, 0.0, 0.0, 1.0]
],
  "dcmmeta_reorient_transform": [
    [0.0, -1.0, 0.0, 103.0],
    [1.0, 0.0, 0.0, 0.0],
    [0.0, 0.0, 1.0, 0.0],
    [0.0, 0.0, 0.0, 1.0]
],
  "dcmmeta_shape": [104, 104, 60, 454],
  "dcmmeta_slice_dim": 2,
  "dcmmeta_version": 0.6,
  "global": {
    "const": {
      "AcquisitionMatrix": [104, 0, 0, 104],
      "AngioFlag": "N",
      "BitsAllocated": 16,
      "BitsStored": 16,
      "BodyPartExamined": "BRAIN",
      "Columns": 832,
      "EchoNumbers": 1,
      "EchoTime": 37.0,
      "EchoTrainLength": 104,
      "FlipAngle": 52.0,
      "HighBit": 15,
      "ImageOrientationPatient": [0.99560887074268, 0.08400140872366, 0.04131270786234, -0.0607196408874, 0.91538932068832, -0.3979642154519],
      "ImagePositionPatient": [-776.91329102136, -868.36392885075, 271.77107404417],
      "ImageType": [
        "ORIGINAL",
        "PRIMARY",
        "P",
        "MB",
        "ND",
        "MOSAIC"
],
      "ImagedNucleus": "1H",
      "ImagingFrequency": 123.258927,
      "InPlanePhaseEncodingDirection": "COL",
      "LargestImagePixelValue": 4095,
      "MRAcquisitionType": "2D",
      "MagneticFieldStrength": 3.0,
      "Manufacturer": "SIEMENS",
      "ManufacturerModelName": "Prisma_fit",
      "Modality": "MR",
      "NumberOfAverages": 1.0,
      "NumberOfPhaseEncodingSteps": 104,
      "PercentPhaseFieldOfView": 100.0,
      "PercentSampling": 100.0,
      "PerformedProcedureStepStartTime": "150703.167000",
      "PhotometricInterpretation": "MONOCHROME2",
      "PixelBandwidth": 2290.0,
      "PixelRepresentation": 0,
      "PixelSpacing": [2.0, 2.0],
      "ProtocolName": "func_task-mario_run-04",
      "RepetitionTime": 1490.0,
      "RescaleIntercept": -4096.0,
      "RescaleSlope": 2.0,
      "RescaleType": "US",
      "Rows": 832,
      "SAR": 0.03837108196297,
      "SamplesPerPixel": 1,
      "ScanOptions": "FS",
      "ScanningSequence": "EP",
      "SequenceName": "epfid2d1_104",
      "SequenceVariant": [
        "SK",
        "SS"
],
      "SeriesDescription": "func_task-mario_run-04",
      "SeriesNumber": 20,
      "SeriesTime": "155447.012000",
      "SliceLocation": -37.45934091292,
      "SliceThickness": 2.0,
      "SmallestImagePixelValue": 0,
      "SoftwareVersions": "syngo MR E11",
      "SpacingBetweenSlices": 1.9999999978259,
      "SpecificCharacterSet": "ISO_IR 100",
      "StudyID": "1",
      "StudyTime": "150703.010000",
      "TransmitCoilName": "Body",
      "VariableFlipAngleFlag": "N",
      "WindowCenterWidthExplanation": "Algo1",
      "dBdt": 0.0},
    "slices": {}
  },
  "time": {
    "samples": {
      "AcquisitionNumber": [1, 2, 3, 4, 5, 6, 7, 8, 9, 10, 11, 12, 13, 14, 15, 16, 17, 18, 19, 20, 21, 22, 23, 24, 25, 26, 27, 28, 29, 30, 31, 32, 33, 34, 35, 36, 37, 38, 39, 40, 41, 42, 43, 44, 45, 46, 47, 48, 49, 50, 51, 52, 53, 54, 55, 56, 57, 58, 59, 60, 61, 62, 63, 64, 65, 66, 67, 68, 69, 70, 71, 72, 73, 74, 75, 76, 77, 78, 79, 80, 81, 82, 83, 84, 85, 86, 87, 88, 89, 90, 91, 92, 93, 94, 95, 96, 97, 98, 99, 100, 101, 102, 103, 104, 105, 106, 107, 108, 109, 110, 111, 112, 113, 114, 115, 116, 117, 118, 119, 120, 121, 122, 123, 124, 125, 126, 127, 128, 129, 130, 131, 132, 133, 134, 135, 136, 137, 138, 139, 140, 141, 142, 143, 144, 145, 146, 147, 148, 149, 150, 151, 152, 153, 154, 155, 156, 157, 158, 159, 160, 161, 162, 163, 164, 165, 166, 167, 168, 169, 170, 171, 172, 173, 174, 175, 176, 177, 178, 179, 180, 181, 182, 183, 184, 185, 186, 187, 188, 189, 190, 191, 192, 193, 194, 195, 196, 197, 198, 199, 200, 201, 202, 203, 204, 205, 206, 207, 208, 209, 210, 211, 212, 213, 214, 215, 216, 217, 218, 219, 220, 221, 222, 223, 224, 225, 226, 227, 228, 229, 230, 231, 232, 233, 234, 235, 236, 237, 238, 239, 240, 241, 242, 243, 244, 245, 246, 247, 248, 249, 250, 251, 252, 253, 254, 255, 256, 257, 258, 259, 260, 261, 262, 263, 264, 265, 266, 267, 268, 269, 270, 271, 272, 273, 274, 275, 276, 277, 278, 279, 280, 281, 282, 283, 284, 285, 286, 287, 288, 289, 290, 291, 292, 293, 294, 295, 296, 297, 298, 299, 300, 301, 302, 303, 304, 305, 306, 307, 308, 309, 310, 311, 312, 313, 314, 315, 316, 317, 318, 319, 320, 321, 322, 323, 324, 325, 326, 327, 328, 329, 330, 331, 332, 333, 334, 335, 336, 337, 338, 339, 340, 341, 342, 343, 344, 345, 346, 347, 348, 349, 350, 351, 352, 353, 354, 355, 356, 357, 358, 359, 360, 361, 362, 363, 364, 365, 366, 367, 368, 369, 370, 371, 372, 373, 374, 375, 376, 377, 378, 379, 380, 381, 382, 383, 384, 385, 386, 387, 388, 389, 390, 391, 392, 393, 394, 395, 396, 397, 398, 399, 400, 401, 402, 403, 404, 405, 406, 407, 408, 409, 410, 411, 412, 413, 414, 415, 416, 417, 418, 419, 420, 421, 422, 423, 424, 425, 426, 427, 428, 429, 430, 431, 432, 433, 434, 435, 436, 437, 438, 439, 440, 441, 442, 443, 444, 445, 446, 447, 448, 449, 450, 451, 452, 453, 454],
      "AcquisitionTime": ["155339.205000", "155340.695000", "155342.185000", "155343.675000", "155345.165000", "155346.655000", "155348.145000", "155349.635000", "155351.125000", "155352.615000", "155354.105000", "155355.595000", "155357.085000", "155358.575000", "155400.065000", "155401.555000", "155403.045000", "155404.535000", "155406.025000", "155407.515000", "155409.005000", "155410.495000", "155411.985000", "155413.475000", "155414.965000", "155416.455000", "155417.945000", "155419.435000", "155420.925000", "155422.415000", "155423.905000", "155425.395000", "155426.885000", "155428.375000", "155429.865000", "155431.355000", "155432.845000", "155434.335000", "155435.825000", "155437.315000", "155438.805000", "155440.295000", "155441.785000", "155443.275000", "155444.765000", "155446.255000", "155447.745000", "155449.235000", "155450.725000", "155452.215000", "155453.705000", "155455.195000", "155456.685000", "155458.175000", "155459.665000", "155501.155000", "155502.645000", "155504.135000", "155505.625000", "155507.115000", "155508.605000", "155510.095000", "155511.585000", "155513.075000", "155514.565000", "155516.055000", "155517.545000", "155519.035000", "155520.525000", "155522.015000", "155523.505000", "155524.995000", "155526.485000", "155527.975000", "155529.465000", "155530.955000", "155532.445000", "155533.935000", "155535.425000", "155536.915000", "155538.405000", "155539.895000", "155541.385000", "155542.875000", "155544.365000", "155545.855000", "155547.345000", "155548.835000", "155550.325000", "155551.815000", "155553.305000", "155554.795000", "155556.285000", "155557.775000", "155559.265000", "155600.755000", "155602.245000", "155603.735000", "155605.225000", "155606.715000", "155608.205000", "155609.695000", "155611.185000", "155612.675000", "155614.165000", "155615.655000", "155617.145000", "155618.635000", "155620.125000", "155621.615000", "155623.105000", "155624.595000", "155626.085000", "155627.575000", "155629.065000", "155630.555000", "155632.045000", "155633.535000", "155635.025000", "155636.515000", "155638.005000", "155639.495000", "155640.985000", "155642.475000", "155643.965000", "155645.455000", "155646.945000", "155648.435000", "155649.925000", "155651.415000", "155652.905000", "155654.395000", "155655.885000", "155657.375000", "155658.865000", "155700.355000", "155701.845000", "155703.335000", "155704.825000", "155706.315000", "155707.805000", "155709.295000", "155710.785000", "155712.275000", "155713.765000", "155715.255000", "155716.745000", "155718.235000", "155719.725000", "155721.215000", "155722.705000", "155724.195000", "155725.685000", "155727.175000", "155728.665000", "155730.155000", "155731.645000", "155733.135000", "155734.625000", "155736.115000", "155737.605000", "155739.095000", "155740.585000", "155742.075000", "155743.565000", "155745.055000", "155746.545000", "155748.035000", "155749.525000", "155751.015000", "155752.505000", "155753.995000", "155755.485000", "155756.975000", "155758.465000", "155759.955000", "155801.445000", "155802.935000", "155804.425000", "155805.915000", "155807.405000", "155808.895000", "155810.385000", "155811.875000", "155813.365000", "155814.855000", "155816.345000", "155817.835000", "155819.325000", "155820.815000", "155822.305000", "155823.795000", "155825.285000", "155826.775000", "155828.265000", "155829.755000", "155831.245000", "155832.735000", "155834.225000", "155835.715000", "155837.205000", "155838.695000", "155840.185000", "155841.675000", "155843.165000", "155844.655000", "155846.145000", "155847.635000", "155849.125000", "155850.615000", "155852.105000", "155853.595000", "155855.085000", "155856.575000", "155858.065000", "155859.555000", "155901.045000", "155902.535000", "155904.025000", "155905.515000", "155907.005000", "155908.495000", "155909.985000", "155911.475000", "155912.965000", "155914.455000", "155915.945000", "155917.435000", "155918.925000", "155920.415000", "155921.905000", "155923.395000", "155924.885000", "155926.375000", "155927.865000", "155929.355000", "155930.845000", "155932.335000", "155933.825000", "155935.315000", "155936.805000", "155938.295000", "155939.785000", "155941.275000", "155942.765000", "155944.255000", "155945.745000", "155947.235000", "155948.725000", "155950.215000", "155951.705000", "155953.195000", "155954.685000", "155956.175000", "155957.665000", "155959.155000", "160000.645000", "160002.135000", "160003.625000", "160005.115000", "160006.605000", "160008.095000", "160009.585000", "160011.075000", "160012.565000", "160014.055000", "160015.545000", "160017.035000", "160018.525000", "160020.015000", "160021.505000", "160022.995000", "160024.485000", "160025.975000", "160027.465000", "160028.955000", "160030.445000", "160031.935000", "160033.425000", "160034.915000", "160036.405000", "160037.895000", "160039.385000", "160040.875000", "160042.365000", "160043.855000", "160045.345000", "160046.835000", "160048.325000", "160049.815000", "160051.305000", "160052.795000", "160054.285000", "160055.775000", "160057.265000", "160058.755000", "160100.245000", "160101.735000", "160103.225000", "160104.715000", "160106.205000", "160107.695000", "160109.185000", "160110.675000", "160112.165000", "160113.655000", "160115.145000", "160116.635000", "160118.125000", "160119.615000", "160121.105000", "160122.595000", "160124.085000", "160125.575000", "160127.065000", "160128.555000", "160130.045000", "160131.535000", "160133.025000", "160134.515000", "160136.005000", "160137.495000", "160138.985000", "160140.475000", "160141.965000", "160143.455000", "160144.945000", "160146.435000", "160147.925000", "160149.415000", "160150.905000", "160152.395000", "160153.885000", "160155.375000", "160156.865000", "160158.355000", "160159.845000", "160201.335000", "160202.825000", "160204.315000", "160205.805000", "160207.295000", "160208.785000", "160210.275000", "160211.765000", "160213.255000", "160214.745000", "160216.235000", "160217.725000", "160219.215000", "160220.705000", "160222.195000", "160223.685000", "160225.175000", "160226.665000", "160228.155000", "160229.645000", "160231.135000", "160232.625000", "160234.115000", "160235.605000", "160237.095000", "160238.585000", "160240.075000", "160241.565000", "160243.055000", "160244.545000", "160246.035000", "160247.525000", "160249.015000", "160250.505000", "160251.995000", "160253.485000", "160254.975000", "160256.465000", "160257.955000", "160259.445000", "160300.935000", "160302.425000", "160303.915000", "160305.405000", "160306.895000", "160308.385000", "160309.875000", "160311.365000", "160312.855000", "160314.345000", "160315.835000", "160317.325000", "160318.815000", "160320.305000", "160321.795000", "160323.285000", "160324.775000", "160326.265000", "160327.755000", "160329.245000", "160330.735000", "160332.225000", "160333.715000", "160335.205000", "160336.695000", "160338.185000", "160339.675000", "160341.165000", "160342.655000", "160344.145000", "160345.635000", "160347.125000", "160348.615000", "160350.105000", "160351.595000", "160353.085000", "160354.575000", "160356.065000", "160357.555000", "160359.045000", "160400.535000", "160402.025000", "160403.515000", "160405.005000", "160406.495000", "160407.985000", "160409.475000", "160410.965000", "160412.455000", "160413.945000", "160415.435000", "160416.925000", "160418.415000", "160419.905000", "160421.395000", "160422.885000", "160424.375000", "160425.865000", "160427.355000", "160428.845000", "160430.335000", "160431.825000", "160433.315000", "160434.805000", "160436.295000", "160437.785000", "160439.275000", "160440.765000", "160442.255000", "160443.745000", "160445.235000", "160446.725000", "160448.215000", "160449.705000", "160451.195000", "160452.685000", "160454.175000"],
      "ContentTime": ["155447.014000", "155447.017000", "155447.020000", "155447.022000", "155447.025000", "155447.027000", "155447.030000", "155447.032000", "155447.035000", "155447.037000", "155447.040000", "155447.042000", "155447.044000", "155447.047000", "155506.995000", "155506.997000", "155507.001000", "155507.003000", "155507.026000", "155507.029000", "155507.031000", "155507.034000", "155507.036000", "155507.039000", "155507.041000", "155507.044000", "155507.046000", "155507.049000", "155507.051000", "155507.054000", "155507.057000", "155507.059000", "155507.067000", "155507.069000", "155527.005000", "155527.008000", "155527.010000", "155527.013000", "155527.015000", "155527.018000", "155527.021000", "155527.023000", "155527.026000", "155527.028000", "155527.031000", "155527.034000", "155527.036000", "155527.039000", "155527.041000", "155527.044000", "155527.047000", "155527.049000", "155527.052000", "155527.054000", "155546.998000", "155547.002000", "155547.004000", "155547.007000", "155547.009000", "155547.012000", "155547.014000", "155547.017000", "155547.019000", "155547.022000", "155547.024000", "155547.027000", "155547.029000", "155547.032000", "155547.034000", "155547.037000", "155547.039000", "155547.042000", "155547.044000", "155547.047000", "155547.049000", "155607.009000", "155607.011000", "155607.014000", "155607.016000", "155607.019000", "155607.021000", "155607.024000", "155607.026000", "155607.029000", "155607.031000", "155607.034000", "155607.037000", "155607.039000", "155607.041000", "155607.044000", "155607.047000", "155607.049000", "155607.052000", "155607.054000", "155607.057000", "155647.041000", "155647.043000", "155647.046000", "155647.048000", "155647.051000", "155647.053000", "155647.056000", "155647.058000", "155647.061000", "155647.063000", "155647.066000", "155647.068000", "155647.071000", "155647.074000", "155647.076000", "155647.079000", "155647.081000", "155647.084000", "155647.086000", "155647.089000", "155647.091000", "155647.094000", "155647.096000", "155647.099000", "155647.102000", "155647.104000", "155647.106000", "155647.109000", "155647.112000", "155647.114000", "155727.053000", "155727.056000", "155727.059000", "155727.061000", "155727.064000", "155727.066000", "155727.068000", "155727.071000", "155727.073000", "155727.076000", "155727.078000", "155727.081000", "155727.083000", "155727.086000", "155727.088000", "155727.091000", "155727.094000", "155727.096000", "155727.098000", "155727.101000", "155727.104000", "155727.106000", "155727.109000", "155727.116000", "155727.118000", "155727.121000", "155727.123000", "155807.038000", "155807.041000", "155807.043000", "155807.046000", "155807.048000", "155807.051000", "155807.053000", "155807.056000", "155807.058000", "155807.061000", "155807.063000", "155807.066000", "155807.068000", "155807.071000", "155807.073000", "155807.076000", "155807.078000", "155807.081000", "155807.083000", "155807.086000", "155807.088000", "155807.091000", "155807.094000", "155807.096000", "155807.099000", "155807.101000", "155807.104000", "155847.028000", "155847.031000", "155847.034000", "155847.036000", "155847.041000", "155847.043000", "155847.046000", "155847.048000", "155847.051000", "155847.053000", "155847.056000", "155847.058000", "155847.061000", "155847.063000", "155847.066000", "155847.068000", "155847.071000", "155847.073000", "155847.076000", "155847.078000", "155847.081000", "155847.083000", "155847.086000", "155847.089000", "155847.091000", "155847.094000", "155847.096000", "155927.032000", "155927.034000", "155927.037000", "155927.039000", "155927.042000", "155927.044000", "155927.047000", "155927.049000", "155927.052000", "155927.054000", "155927.057000", "155927.059000", "155927.062000", "155927.064000", "155927.067000", "155927.069000", "155927.072000", "155927.074000", "155927.077000", "155927.079000", "155927.082000", "155927.084000", "155927.087000", "155927.089000", "155927.092000", "155927.094000", "160007.027000", "160007.030000", "160007.033000", "160007.035000", "160007.038000", "160007.040000", "160007.043000", "160007.045000", "160007.048000", "160007.051000", "160007.054000", "160007.056000", "160007.059000", "160007.061000", "160007.064000", "160007.066000", "160007.069000", "160007.071000", "160007.074000", "160007.076000", "160007.079000", "160007.082000", "160007.084000", "160007.087000", "160007.089000", "160007.092000", "160007.094000", "160047.022000", "160047.025000", "160047.028000", "160047.030000", "160047.033000", "160047.035000", "160047.038000", "160047.040000", "160047.043000", "160047.045000", "160047.048000", "160047.050000", "160047.053000", "160047.055000", "160047.058000", "160047.060000", "160047.063000", "160047.065000", "160047.068000", "160047.070000", "160047.073000", "160047.075000", "160047.078000", "160047.081000", "160047.083000", "160047.086000", "160047.088000", "160127.031000", "160127.034000", "160127.036000", "160127.039000", "160127.041000", "160127.044000", "160127.046000", "160127.049000", "160127.051000", "160127.054000", "160127.057000", "160127.060000", "160127.063000", "160127.066000", "160127.068000", "160127.071000", "160127.073000", "160127.076000", "160127.079000", "160127.081000", "160127.084000", "160127.087000", "160127.089000", "160127.092000", "160127.094000", "160127.097000", "160127.100000", "160207.034000", "160207.043000", "160207.046000", "160207.049000", "160207.051000", "160207.054000", "160207.057000", "160207.060000", "160207.062000", "160207.065000", "160207.067000", "160207.070000", "160207.072000", "160207.075000", "160207.077000", "160207.080000", "160207.083000", "160207.085000", "160207.088000", "160207.090000", "160207.093000", "160207.095000", "160207.098000", "160207.101000", "160207.103000", "160207.106000", "160207.108000", "160247.025000", "160247.028000", "160247.030000", "160247.032000", "160247.035000", "160247.038000", "160247.040000", "160247.043000", "160247.045000", "160247.048000", "160247.050000", "160247.053000", "160247.055000", "160247.058000", "160247.060000", "160247.063000", "160247.065000", "160247.068000", "160247.070000", "160247.073000", "160247.075000", "160247.078000", "160247.080000", "160247.083000", "160247.085000", "160247.088000", "160247.090000", "160327.022000", "160327.024000", "160327.027000", "160327.029000", "160327.032000", "160327.034000", "160327.037000", "160327.039000", "160327.042000", "160327.044000", "160327.047000", "160327.049000", "160327.052000", "160327.054000", "160327.057000", "160327.059000", "160327.062000", "160327.064000", "160327.067000", "160327.069000", "160327.072000", "160327.074000", "160327.077000", "160327.079000", "160327.082000", "160327.085000", "160327.087000", "160407.030000", "160407.033000", "160407.036000", "160407.038000", "160407.041000", "160407.043000", "160407.046000", "160407.048000", "160407.051000", "160407.053000", "160407.056000", "160407.058000", "160407.061000", "160407.063000", "160407.066000", "160407.069000", "160407.071000", "160407.074000", "160407.077000", "160407.079000", "160407.082000", "160407.084000", "160407.087000", "160407.090000", "160407.092000", "160407.095000", "160447.021000", "160447.024000", "160447.026000", "160447.029000", "160447.032000", "160447.034000", "160447.037000", "160447.039000", "160447.042000", "160447.044000", "160447.047000", "160447.049000", "160447.052000", "160447.069000", "160447.071000", "160447.074000", "160447.076000", "160447.078000", "160447.081000", "160447.083000", "160447.086000", "160447.088000", "160447.091000", "160447.094000", "160447.096000", "160447.099000", "160447.101000", "160456.533000", "160456.536000", "160456.539000", "160456.542000", "160456.544000", "160456.547000", "160456.549000"],
