{
  "AcquisitionMatrixPE": 104,
  "AcquisitionNumber": 1,
  "AcquisitionTime": "16:07:51.262500",
  "BandwidthPerPixelPhaseEncode": 17.17,
  "BaseResolution": 104,
  "BodyPartExamined": "BRAIN",
  "CoilString": "HC1-7;NC1_2",
  "ConsistencyInfo": "N4_VE11C_LATEST_20160120",
  "ConversionSoftware": "dcm2niix",
  "ConversionSoftwareVersion": "v1.0.20190902",
  "DerivedVendorReportedEchoSpacing": 0.000560011,
  "DeviceSerialNumber": "167006",
  "DwellTime": 2.1e-06,
  "EchoTime": 0.037,
  "EchoTrainLength": 104,
  "EffectiveEchoSpacing": 0.000560011,
  "FlipAngle": 52,
  "HeudiconvVersion": "0.10.0",
  "ImageComments": "Unaliased_MB4_PE3_LB",
  "ImageOrientationPatientDICOM": [0.995609, 0.0840014, 0.0413127, -0.0607196, 0.915389, -0.397964],
  "ImageType": [
    "ORIGINAL",
    "PRIMARY",
    "P",
    "MB",
    "ND",
    "MOSAIC"
],
  "ImagingFrequency": 123.259,
  "InPlanePhaseEncodingDirectionDICOM": "COL",
  "InstitutionAddress": "Chemin_Queen-Mary_4565_Montreal_District_CA_H3W_1W5",
  "InstitutionName": "IUGM",
  "InstitutionalDepartmentName": "Department",
  "MRAcquisitionType": "2D",
  "MagneticFieldStrength": 3,
  "Manufacturer": "Siemens",
  "ManufacturersModelName": "Prisma_fit",
  "Modality": "MR",
  "MultibandAccelerationFactor": 4,
  "PartialFourier": 1,
  "PatientPosition": "HFS",
  "PercentPhaseFOV": 100,
  "PhaseEncodingDirection": "j",
  "PhaseEncodingSteps": 104,
  "PhaseResolution": 1,
  "PixelBandwidth": 2290,
  "ProcedureStepDescription": "games_mario",
  "ProtocolName": "func_task-mario_run-05",
  "PulseSequenceDetails": "%CustomerSeq%_cmrr_mbep2d_bold",
  "ReceiveCoilActiveElements": "HC1-7;NC1,2",
  "ReceiveCoilName": "HeadNeck_64",
  "ReconMatrixPE": 104,
  "RepetitionTime": 1.49,
  "SAR": 0.0383711,
  "ScanOptions": "FS",
  "ScanningSequence": "EP",
  "SequenceName": "epfid2d1_104",
  "SequenceVariant": "SK_SS",
  "SeriesDescription": "func_task-mario_run-05",
  "SeriesNumber": 23,
  "ShimSetting": [632, -7180, -8829, 608, 89, 9, -74, 0],
  "SliceThickness": 2,
  "SliceTiming": [0, 0.785, 0.1, 0.8825, 0.1975, 0.98, 0.295, 1.08, 0.3925, 1.1775, 0.49, 1.275, 0.59, 1.3725, 0.6875, 0, 0.785, 0.1, 0.8825, 0.1975, 0.98, 0.295, 1.08, 0.3925, 1.1775, 0.49, 1.275, 0.59, 1.3725, 0.6875, 0, 0.785, 0.1, 0.8825, 0.1975, 0.98, 0.295, 1.08, 0.3925, 1.1775, 0.49, 1.275, 0.59, 1.3725, 0.6875, 0, 0.785, 0.1, 0.8825, 0.1975, 0.98, 0.295, 1.08, 0.3925, 1.1775, 0.49, 1.275, 0.59, 1.3725, 0.6875],
  "SoftwareVersions": "syngo_MR_E11",
  "SpacingBetweenSlices": 2,
  "StationName": "MRC35049",
  "TaskName": "mario",
  "TotalReadoutTime": 0.0576811,
  "TxRefAmp": 250.098,
  "WipMemBlock": "6d325b78-3676-4412-9828-ffbce61c7913||Sequence: R016 ve11c/master r/e634e98; Dec 19 2017 11:00:25 by eja",
  "dcmmeta_affine": [
    [-1.9912177324295044, -0.12143927812576294, 0.14249353110790253, 108.82217407226562],
    [-0.16800281405448914, 1.8307785987854004, -0.787416398525238, -47.76272201538086],
    [0.08262541890144348, 0.795928418636322, 1.8329405784606934, -69.85185241699219],
    [0.0, 0.0, 0.0, 1.0]
],
  "dcmmeta_reorient_transform": [
    [0.0, -1.0, 0.0, 103.0],
    [1.0, 0.0, 0.0, 0.0],
    [0.0, 0.0, 1.0, 0.0],
    [0.0, 0.0, 0.0, 1.0]
],
  "dcmmeta_shape": [104, 104, 60, 485],
  "dcmmeta_slice_dim": 2,
  "dcmmeta_version": 0.6,
  "global": {
    "const": {
      "AcquisitionMatrix": [104, 0, 0, 104],
      "AngioFlag": "N",
      "BitsAllocated": 16,
      "BitsStored": 16,
      "BodyPartExamined": "BRAIN",
      "Columns": 832,
      "EchoNumbers": 1,
      "EchoTime": 37.0,
      "EchoTrainLength": 104,
      "FlipAngle": 52.0,
      "HighBit": 15,
      "ImageOrientationPatient": [0.99560887074268, 0.08400140872366, 0.04131270786234, -0.0607196408874, 0.91538932068832, -0.3979642154519],
      "ImagePositionPatient": [-776.91329102136, -868.36392885075, 271.77107404417],
      "ImageType": [
        "ORIGINAL",
        "PRIMARY",
        "P",
        "MB",
        "ND",
        "MOSAIC"
],
      "ImagedNucleus": "1H",
      "ImagingFrequency": 123.258921,
      "InPlanePhaseEncodingDirection": "COL",
      "LargestImagePixelValue": 4095,
      "MRAcquisitionType": "2D",
      "MagneticFieldStrength": 3.0,
      "Manufacturer": "SIEMENS",
      "ManufacturerModelName": "Prisma_fit",
      "Modality": "MR",
      "NumberOfAverages": 1.0,
      "NumberOfPhaseEncodingSteps": 104,
      "PercentPhaseFieldOfView": 100.0,
      "PercentSampling": 100.0,
      "PerformedProcedureStepStartTime": "150703.167000",
      "PhotometricInterpretation": "MONOCHROME2",
      "PixelBandwidth": 2290.0,
      "PixelRepresentation": 0,
      "PixelSpacing": [2.0, 2.0],
      "ProtocolName": "func_task-mario_run-05",
      "RepetitionTime": 1490.0,
      "RescaleIntercept": -4096.0,
      "RescaleSlope": 2.0,
      "RescaleType": "US",
      "Rows": 832,
      "SAR": 0.03837108196297,
      "SamplesPerPixel": 1,
      "ScanOptions": "FS",
      "ScanningSequence": "EP",
      "SequenceName": "epfid2d1_104",
      "SequenceVariant": [
        "SK",
        "SS"
],
      "SeriesDescription": "func_task-mario_run-05",
      "SeriesNumber": 23,
      "SeriesTime": "160919.439000",
      "SliceLocation": -37.45934091292,
      "SliceThickness": 2.0,
      "SmallestImagePixelValue": 0,
      "SoftwareVersions": "syngo MR E11",
      "SpacingBetweenSlices": 1.9999999978259,
      "SpecificCharacterSet": "ISO_IR 100",
      "StudyID": "1",
      "StudyTime": "150703.010000",
      "TransmitCoilName": "Body",
      "VariableFlipAngleFlag": "N",
      "WindowCenterWidthExplanation": "Algo1",
      "dBdt": 0.0},
    "slices": {}
  },
  "time": {
    "samples": {
      "AcquisitionNumber": [1, 2, 3, 4, 5, 6, 7, 8, 9, 10, 11, 12, 13, 14, 15, 16, 17, 18, 19, 20, 21, 22, 23, 24, 25, 26, 27, 28, 29, 30, 31, 32, 33, 34, 35, 36, 37, 38, 39, 40, 41, 42, 43, 44, 45, 46, 47, 48, 49, 50, 51, 52, 53, 54, 55, 56, 57, 58, 59, 60, 61, 62, 63, 64, 65, 66, 67, 68, 69, 70, 71, 72, 73, 74, 75, 76, 77, 78, 79, 80, 81, 82, 83, 84, 85, 86, 87, 88, 89, 90, 91, 92, 93, 94, 95, 96, 97, 98, 99, 100, 101, 102, 103, 104, 105, 106, 107, 108, 109, 110, 111, 112, 113, 114, 115, 116, 117, 118, 119, 120, 121, 122, 123, 124, 125, 126, 127, 128, 129, 130, 131, 132, 133, 134, 135, 136, 137, 138, 139, 140, 141, 142, 143, 144, 145, 146, 147, 148, 149, 150, 151, 152, 153, 154, 155, 156, 157, 158, 159, 160, 161, 162, 163, 164, 165, 166, 167, 168, 169, 170, 171, 172, 173, 174, 175, 176, 177, 178, 179, 180, 181, 182, 183, 184, 185, 186, 187, 188, 189, 190, 191, 192, 193, 194, 195, 196, 197, 198, 199, 200, 201, 202, 203, 204, 205, 206, 207, 208, 209, 210, 211, 212, 213, 214, 215, 216, 217, 218, 219, 220, 221, 222, 223, 224, 225, 226, 227, 228, 229, 230, 231, 232, 233, 234, 235, 236, 237, 238, 239, 240, 241, 242, 243, 244, 245, 246, 247, 248, 249, 250, 251, 252, 253, 254, 255, 256, 257, 258, 259, 260, 261, 262, 263, 264, 265, 266, 267, 268, 269, 270, 271, 272, 273, 274, 275, 276, 277, 278, 279, 280, 281, 282, 283, 284, 285, 286, 287, 288, 289, 290, 291, 292, 293, 294, 295, 296, 297, 298, 299, 300, 301, 302, 303, 304, 305, 306, 307, 308, 309, 310, 311, 312, 313, 314, 315, 316, 317, 318, 319, 320, 321, 322, 323, 324, 325, 326, 327, 328, 329, 330, 331, 332, 333, 334, 335, 336, 337, 338, 339, 340, 341, 342, 343, 344, 345, 346, 347, 348, 349, 350, 351, 352, 353, 354, 355, 356, 357, 358, 359, 360, 361, 362, 363, 364, 365, 366, 367, 368, 369, 370, 371, 372, 373, 374, 375, 376, 377, 378, 379, 380, 381, 382, 383, 384, 385, 386, 387, 388, 389, 390, 391, 392, 393, 394, 395, 396, 397, 398, 399, 400, 401, 402, 403, 404, 405, 406, 407, 408, 409, 410, 411, 412, 413, 414, 415, 416, 417, 418, 419, 420, 421, 422, 423, 424, 425, 426, 427, 428, 429, 430, 431, 432, 433, 434, 435, 436, 437, 438, 439, 440, 441, 442, 443, 444, 445, 446, 447, 448, 449, 450, 451, 452, 453, 454, 455, 456, 457, 458, 459, 460, 461, 462, 463, 464, 465, 466, 467, 468, 469, 470, 471, 472, 473, 474, 475, 476, 477, 478, 479, 480, 481, 482, 483, 484, 485],
      "AcquisitionTime": ["160751.262500", "160752.752500", "160754.242500", "160755.732500", "160757.222500", "160758.712500", "160800.202500", "160801.692500", "160803.182500", "160804.672500", "160806.162500", "160807.652500", "160809.142500", "160810.632500", "160812.122500", "160813.612500", "160815.102500", "160816.592500", "160818.082500", "160819.572500", "160821.062500", "160822.552500", "160824.042500", "160825.532500", "160827.022500", "160828.512500", "160830.002500", "160831.492500", "160832.982500", "160834.472500", "160835.962500", "160837.452500", "160838.942500", "160840.432500", "160841.922500", "160843.412500", "160844.902500", "160846.392500", "160847.882500", "160849.372500", "160850.862500", "160852.352500", "160853.842500", "160855.332500", "160856.822500", "160858.312500", "160859.802500", "160901.292500", "160902.782500", "160904.272500", "160905.762500", "160907.252500", "160908.742500", "160910.232500", "160911.722500", "160913.212500", "160914.702500", "160916.192500", "160917.682500", "160919.172500", "160920.662500", "160922.152500", "160923.642500", "160925.132500", "160926.622500", "160928.112500", "160929.602500", "160931.092500", "160932.582500", "160934.072500", "160935.562500", "160937.052500", "160938.542500", "160940.032500", "160941.522500", "160943.012500", "160944.502500", "160945.992500", "160947.482500", "160948.972500", "160950.462500", "160951.952500", "160953.442500", "160954.932500", "160956.422500", "160957.912500", "160959.402500", "161000.892500", "161002.382500", "161003.872500", "161005.362500", "161006.852500", "161008.342500", "161009.832500", "161011.322500", "161012.812500", "161014.302500", "161015.792500", "161017.282500", "161018.772500", "161020.262500", "161021.752500", "161023.242500", "161024.732500", "161026.222500", "161027.712500", "161029.202500", "161030.692500", "161032.182500", "161033.672500", "161035.162500", "161036.652500", "161038.142500", "161039.632500", "161041.122500", "161042.612500", "161044.102500", "161045.592500", "161047.082500", "161048.572500", "161050.062500", "161051.552500", "161053.042500", "161054.532500", "161056.022500", "161057.512500", "161059.002500", "161100.492500", "161101.982500", "161103.472500", "161104.962500", "161106.452500", "161107.942500", "161109.432500", "161110.922500", "161112.412500", "161113.902500", "161115.392500", "161116.882500", "161118.372500", "161119.862500", "161121.352500", "161122.842500", "161124.332500", "161125.822500", "161127.312500", "161128.802500", "161130.292500", "161131.782500", "161133.272500", "161134.762500", "161136.252500", "161137.742500", "161139.232500", "161140.722500", "161142.212500", "161143.702500", "161145.192500", "161146.682500", "161148.172500", "161149.662500", "161151.152500", "161152.642500", "161154.132500", "161155.622500", "161157.112500", "161158.602500", "161200.092500", "161201.582500", "161203.072500", "161204.562500", "161206.052500", "161207.542500", "161209.032500", "161210.522500", "161212.012500", "161213.502500", "161214.992500", "161216.482500", "161217.972500", "161219.462500", "161220.952500", "161222.442500", "161223.932500", "161225.422500", "161226.912500", "161228.402500", "161229.892500", "161231.382500", "161232.872500", "161234.362500", "161235.852500", "161237.342500", "161238.832500", "161240.322500", "161241.812500", "161243.302500", "161244.792500", "161246.282500", "161247.772500", "161249.262500", "161250.752500", "161252.242500", "161253.732500", "161255.222500", "161256.712500", "161258.202500", "161259.692500", "161301.182500", "161302.672500", "161304.162500", "161305.652500", "161307.142500", "161308.632500", "161310.122500", "161311.612500", "161313.102500", "161314.592500", "161316.082500", "161317.572500", "161319.062500", "161320.552500", "161322.042500", "161323.532500", "161325.022500", "161326.512500", "161328.002500", "161329.492500", "161330.982500", "161332.472500", "161333.962500", "161335.452500", "161336.942500", "161338.432500", "161339.922500", "161341.412500", "161342.902500", "161344.392500", "161345.882500", "161347.372500", "161348.862500", "161350.352500", "161351.842500", "161353.332500", "161354.822500", "161356.312500", "161357.802500", "161359.292500", "161400.782500", "161402.272500", "161403.762500", "161405.252500", "161406.742500", "161408.232500", "161409.722500", "161411.212500", "161412.702500", "161414.192500", "161415.682500", "161417.172500", "161418.662500", "161420.152500", "161421.642500", "161423.132500", "161424.622500", "161426.112500", "161427.602500", "161429.092500", "161430.582500", "161432.072500", "161433.562500", "161435.052500", "161436.542500", "161438.032500", "161439.522500", "161441.012500", "161442.502500", "161443.992500", "161445.482500", "161446.972500", "161448.462500", "161449.952500", "161451.442500", "161452.932500", "161454.422500", "161455.912500", "161457.402500", "161458.892500", "161500.382500", "161501.872500", "161503.362500", "161504.852500", "161506.342500", "161507.832500", "161509.322500", "161510.812500", "161512.302500", "161513.792500", "161515.282500", "161516.772500", "161518.262500", "161519.752500", "161521.242500", "161522.732500", "161524.222500", "161525.712500", "161527.202500", "161528.692500", "161530.182500", "161531.672500", "161533.162500", "161534.652500", "161536.142500", "161537.632500", "161539.122500", "161540.612500", "161542.102500", "161543.592500", "161545.082500", "161546.572500", "161548.062500", "161549.552500", "161551.042500", "161552.532500", "161554.022500", "161555.512500", "161557.002500", "161558.492500", "161559.982500", "161601.472500", "161602.962500", "161604.452500", "161605.942500", "161607.432500", "161608.922500", "161610.412500", "161611.902500", "161613.392500", "161614.882500", "161616.372500", "161617.862500", "161619.352500", "161620.842500", "161622.332500", "161623.822500", "161625.312500", "161626.802500", "161628.292500", "161629.782500", "161631.272500", "161632.762500", "161634.252500", "161635.742500", "161637.232500", "161638.722500", "161640.212500", "161641.702500", "161643.192500", "161644.682500", "161646.172500", "161647.662500", "161649.152500", "161650.642500", "161652.132500", "161653.622500", "161655.112500", "161656.602500", "161658.092500", "161659.582500", "161701.072500", "161702.562500", "161704.052500", "161705.542500", "161707.032500", "161708.522500", "161710.012500", "161711.502500", "161712.992500", "161714.482500", "161715.972500", "161717.462500", "161718.952500", "161720.442500", "161721.932500", "161723.422500", "161724.912500", "161726.402500", "161727.892500", "161729.382500", "161730.872500", "161732.362500", "161733.852500", "161735.342500", "161736.832500", "161738.322500", "161739.812500", "161741.302500", "161742.792500", "161744.282500", "161745.772500", "161747.262500", "161748.752500", "161750.242500", "161751.732500", "161753.222500", "161754.712500", "161756.202500", "161757.692500", "161759.182500", "161800.672500", "161802.162500", "161803.652500", "161805.142500", "161806.632500", "161808.122500", "161809.612500", "161811.102500", "161812.592500", "161814.082500", "161815.572500", "161817.062500", "161818.552500", "161820.042500", "161821.532500", "161823.022500", "161824.512500", "161826.002500", "161827.492500", "161828.982500", "161830.472500", "161831.962500", "161833.452500", "161834.942500", "161836.432500", "161837.922500", "161839.412500", "161840.902500", "161842.392500", "161843.882500", "161845.372500", "161846.862500", "161848.352500", "161849.842500", "161851.332500", "161852.822500", "161854.312500", "161855.802500", "161857.292500", "161858.782500", "161900.272500", "161901.762500", "161903.252500", "161904.742500", "161906.232500", "161907.722500", "161909.212500", "161910.702500", "161912.192500", "161913.682500", "161915.172500", "161916.662500", "161918.152500", "161919.642500", "161921.132500", "161922.622500", "161924.112500", "161925.602500", "161927.092500", "161928.582500", "161930.072500", "161931.562500", "161933.052500", "161934.542500", "161936.032500", "161937.522500", "161939.012500", "161940.502500", "161941.992500", "161943.482500", "161944.972500", "161946.462500", "161947.952500", "161949.442500", "161950.932500", "161952.422500"],
      "ContentTime": ["160919.441000", "160919.444000", "160919.446000", "160919.449000", "160919.451000", "160919.454000", "160919.456000", "160919.459000", "160919.461000", "160919.464000", "160919.466000", "160919.469000", "160919.471000", "160919.474000", "160919.476000", "160919.479000", "160919.481000", "160919.484000", "160919.486000", "160919.489000", "160919.491000", "160919.494000", "160919.496000", "160919.499000", "160919.501000", "160919.504000", "160919.506000", "160919.509000", "160919.511000", "160919.514000", "160919.516000", "160919.521000", "160919.524000", "160919.526000", "160939.335000", "160939.338000", "160939.340000", "160939.343000", "160939.345000", "160939.348000", "160939.350000", "160939.353000", "160939.355000", "160939.358000", "160939.360000", "160939.363000", "160939.365000", "160939.368000", "160939.370000", "160939.373000", "160939.375000", "160939.378000", "160939.380000", "160939.383000", "160959.340000", "160959.342000", "160959.345000", "160959.347000", "160959.350000", "160959.352000", "160959.355000", "160959.358000", "160959.360000", "160959.363000", "160959.365000", "160959.368000", "160959.370000", "160959.373000", "160959.375000", "160959.378000", "160959.380000", "160959.383000", "160959.385000", "160959.388000", "160959.390000", "161019.316000", "161019.318000", "161019.321000", "161019.323000", "161019.326000", "161019.328000", "161019.331000", "161019.333000", "161019.336000", "161019.338000", "161019.341000", "161019.346000", "161019.349000", "161019.351000", "161019.354000", "161019.356000", "161019.359000", "161019.361000", "161019.364000", "161019.366000", "161059.364000", "161059.366000", "161059.369000", "161059.371000", "161059.374000", "161059.376000", "161059.379000", "161059.381000", "161059.384000", "161059.386000", "161059.390000", "161059.393000", "161059.395000", "161059.398000", "161059.400000", "161059.403000", "161059.405000", "161059.408000", "161059.410000", "161059.413000", "161059.415000", "161059.418000", "161059.420000", "161059.423000", "161059.425000", "161059.428000", "161059.430000", "161059.433000", "161059.435000", "161059.438000", "161139.361000", "161139.363000", "161139.366000", "161139.368000", "161139.371000", "161139.373000", "161139.376000", "161139.378000", "161139.381000", "161139.383000", "161139.386000", "161139.388000", "161139.391000", "161139.393000", "161139.396000", "161139.398000", "161139.401000", "161139.403000", "161139.406000", "161139.408000", "161139.411000", "161139.413000", "161139.416000", "161139.418000", "161139.421000", "161139.424000", "161139.426000", "161219.362000", "161219.365000", "161219.367000", "161219.370000", "161219.372000", "161219.375000", "161219.378000", "161219.380000", "161219.382000", "161219.385000", "161219.387000", "161219.390000", "161219.392000", "161219.395000", "161219.397000", "161219.400000", "161219.402000", "161219.405000", "161219.407000", "161219.410000", "161219.413000", "161219.415000", "161219.418000", "161219.420000", "161219.423000", "161219.425000", "161219.428000", "161259.358000", "161259.361000", "161259.363000", "161259.366000", "161259.368000", "161259.371000", "161259.373000", "161259.376000", "161259.378000", "161259.381000", "161259.383000", "161259.386000", "161259.388000", "161259.391000", "161259.393000", "161259.396000", "161259.398000", "161259.401000", "161259.403000", "161259.406000", "161259.408000", "161259.411000", "161259.413000", "161259.416000", "161259.418000", "161259.421000", "161259.423000", "161339.349000", "161339.351000", "161339.354000", "161339.356000", "161339.359000", "161339.361000", "161339.364000", "161339.366000", "161339.369000", "161339.372000", "161339.374000", "161339.377000", "161339.379000", "161339.381000", "161339.384000", "161339.391000", "161339.394000", "161339.396000", "161339.399000", "161339.401000", "161339.404000", "161339.406000", "161339.409000", "161339.411000", "161339.414000", "161339.416000", "161339.419000", "161419.367000", "161419.369000", "161419.372000", "161419.375000", "161419.377000", "161419.380000", "161419.382000", "161419.385000", "161419.387000", "161419.390000", "161419.392000", "161419.395000", "161419.397000", "161419.400000", "161419.402000", "161419.405000", "161419.407000", "161419.410000", "161419.412000", "161419.415000", "161419.417000", "161419.420000", "161419.422000", "161419.425000", "161419.427000", "161419.430000", "161419.432000", "161459.341000", "161459.344000", "161459.346000", "161459.349000", "161459.351000", "161459.354000", "161459.356000", "161459.359000", "161459.361000", "161459.364000", "161459.366000", "161459.369000", "161459.371000", "161459.374000", "161459.376000", "161459.379000", "161459.381000", "161459.384000", "161459.386000", "161459.389000", "161459.391000", "161459.394000", "161459.396000", "161459.399000", "161459.401000", "161459.404000", "161539.360000", "161539.363000", "161539.365000", "161539.368000", "161539.370000", "161539.373000", "161539.376000", "161539.378000", "161539.381000", "161539.383000", "161539.386000", "161539.389000", "161539.391000", "161539.394000", "161539.396000", "161539.399000", "161539.401000", "161539.404000", "161539.406000", "161539.409000", "161539.411000", "161539.414000", "161539.416000", "161539.419000", "161539.421000", "161539.424000", "161539.426000", "161619.357000", "161619.360000", "161619.363000", "161619.365000", "161619.368000", "161619.370000", "161619.373000", "161619.375000", "161619.378000", "161619.380000", "161619.383000", "161619.385000", "161619.388000", "161619.391000", "161619.393000", "161619.396000", "161619.398000", "161619.401000", "161619.403000", "161619.406000", "161619.408000", "161619.411000", "161619.414000", "161619.416000", "161619.419000", "161619.421000", "161619.424000", "161659.348000", "161659.351000", "161659.354000", "161659.356000", "161659.359000", "161659.361000", "161659.364000", "161659.366000", "161659.369000", "161659.371000", "161659.374000", "161659.376000", "161659.379000", "161659.381000", "161659.384000", "161659.386000", "161659.389000", "161659.391000", "161659.394000", "161659.396000", "161659.399000", "161659.401000", "161659.404000", "161659.406000", "161659.409000", "161659.411000", "161659.414000", "161739.351000", "161739.353000", "161739.356000", "161739.358000", "161739.361000", "161739.363000", "161739.366000", "161739.369000", "161739.371000", "161739.374000", "161739.376000", "161739.379000", "161739.381000", "161739.384000", "161739.386000", "161739.389000", "161739.391000", "161739.394000", "161739.396000", "161739.399000", "161739.401000", "161739.404000", "161739.406000", "161739.409000", "161739.411000", "161739.414000", "161739.416000", "161819.410000", "161819.413000", "161819.415000", "161819.418000", "161819.420000", "161819.423000", "161819.425000", "161819.428000", "161819.430000", "161819.433000", "161819.436000", "161819.442000", "161819.445000", "161819.447000", "161819.450000", "161819.452000", "161819.455000", "161819.458000", "161819.460000", "161819.463000", "161819.465000", "161819.468000", "161819.470000", "161819.473000", "161819.476000", "161819.478000", "161819.481000", "161859.356000", "161859.359000", "161859.362000", "161859.364000", "161859.367000", "161859.369000", "161859.372000", "161859.374000", "161859.377000", "161859.379000", "161859.385000", "161859.388000", "161859.390000", "161859.393000", "161859.395000", "161859.398000", "161859.400000", "161859.403000", "161859.405000", "161859.408000", "161859.410000", "161859.413000", "161859.416000", "161859.418000", "161859.421000", "161859.423000", "161939.348000", "161939.351000", "161939.353000", "161939.356000", "161939.358000", "161939.361000", "161939.363000", "161939.366000", "161939.368000", "161939.371000", "161939.373000", "161939.376000", "161939.378000", "161939.381000", "161939.383000", "161939.386000", "161939.388000", "161939.392000", "161939.394000", "161939.397000", "161939.399000", "161939.402000", "161939.405000", "161939.412000", "161939.415000", "161939.417000", "161939.420000", "161955.906000", "161955.909000", "161955.911000", "161955.914000", "161955.916000", "161955.919000", "161955.921000", "161955.924000", "161955.926000", "161955.929000", "161955.931000"],
