{
  "AcquisitionMatrixPE": 104,
  "AcquisitionNumber": 1,
  "AcquisitionTime": "15:40:37.800000",
  "BandwidthPerPixelPhaseEncode": 17.17,
  "BaseResolution": 104,
  "BodyPartExamined": "BRAIN",
  "CoilString": "HC1-7;NC1_2",
  "ConsistencyInfo": "N4_VE11C_LATEST_20160120",
  "ConversionSoftware": "dcm2niix",
  "ConversionSoftwareVersion": "v1.0.20190902",
  "DerivedVendorReportedEchoSpacing": 0.000560011,
  "DeviceSerialNumber": "167006",
  "DwellTime": 2.1e-06,
  "EchoTime": 0.037,
  "EchoTrainLength": 104,
  "EffectiveEchoSpacing": 0.000560011,
  "FlipAngle": 52,
  "HeudiconvVersion": "0.10.0",
  "ImageComments": "Unaliased_MB4_PE3_LB",
  "ImageOrientationPatientDICOM": [0.995609, 0.0840014, 0.0413127, -0.0607196, 0.915389, -0.397964],
  "ImageType": [
    "ORIGINAL",
    "PRIMARY",
    "P",
    "MB",
    "ND",
    "MOSAIC"
],
  "ImagingFrequency": 123.259,
  "InPlanePhaseEncodingDirectionDICOM": "COL",
  "InstitutionAddress": "Chemin_Queen-Mary_4565_Montreal_District_CA_H3W_1W5",
  "InstitutionName": "IUGM",
  "InstitutionalDepartmentName": "Department",
  "MRAcquisitionType": "2D",
  "MagneticFieldStrength": 3,
  "Manufacturer": "Siemens",
  "ManufacturersModelName": "Prisma_fit",
  "Modality": "MR",
  "MultibandAccelerationFactor": 4,
  "PartialFourier": 1,
  "PatientPosition": "HFS",
  "PercentPhaseFOV": 100,
  "PhaseEncodingDirection": "j",
  "PhaseEncodingSteps": 104,
  "PhaseResolution": 1,
  "PixelBandwidth": 2290,
  "ProcedureStepDescription": "games_mario",
  "ProtocolName": "func_task-mario_run-03",
  "PulseSequenceDetails": "%CustomerSeq%_cmrr_mbep2d_bold",
  "ReceiveCoilActiveElements": "HC1-7;NC1,2",
  "ReceiveCoilName": "HeadNeck_64",
  "ReconMatrixPE": 104,
  "RepetitionTime": 1.49,
  "SAR": 0.0383711,
  "ScanOptions": "FS",
  "ScanningSequence": "EP",
  "SequenceName": "epfid2d1_104",
  "SequenceVariant": "SK_SS",
  "SeriesDescription": "func_task-mario_run-03",
  "SeriesNumber": 17,
  "ShimSetting": [632, -7180, -8829, 608, 89, 9, -74, 0],
  "SliceThickness": 2,
  "SliceTiming": [0, 0.785, 0.0975, 0.8825, 0.1975, 0.98, 0.295, 1.0775, 0.3925, 1.1775, 0.49, 1.275, 0.5875, 1.3725, 0.6875, 0, 0.785, 0.0975, 0.8825, 0.1975, 0.98, 0.295, 1.0775, 0.3925, 1.1775, 0.49, 1.275, 0.5875, 1.3725, 0.6875, 0, 0.785, 0.0975, 0.8825, 0.1975, 0.98, 0.295, 1.0775, 0.3925, 1.1775, 0.49, 1.275, 0.5875, 1.3725, 0.6875, 0, 0.785, 0.0975, 0.8825, 0.1975, 0.98, 0.295, 1.0775, 0.3925, 1.1775, 0.49, 1.275, 0.5875, 1.3725, 0.6875],
  "SoftwareVersions": "syngo_MR_E11",
  "SpacingBetweenSlices": 2,
  "StationName": "MRC35049",
  "TaskName": "mario",
  "TotalReadoutTime": 0.0576811,
  "TxRefAmp": 250.098,
  "WipMemBlock": "87233da1-5792-446d-92aa-b282a1fc4060||Sequence: R016 ve11c/master r/e634e98; Dec 19 2017 11:00:25 by eja",
  "dcmmeta_affine": [
    [-1.9912177324295044, -0.12143927812576294, 0.14249353110790253, 108.82217407226562],
    [-0.16800281405448914, 1.8307785987854004, -0.787416398525238, -47.76272201538086],
    [0.08262541890144348, 0.795928418636322, 1.8329405784606934, -69.85185241699219],
    [0.0, 0.0, 0.0, 1.0]
],
  "dcmmeta_reorient_transform": [
    [0.0, -1.0, 0.0, 103.0],
    [1.0, 0.0, 0.0, 0.0],
    [0.0, 0.0, 1.0, 0.0],
    [0.0, 0.0, 0.0, 1.0]
],
  "dcmmeta_shape": [104, 104, 60, 438],
  "dcmmeta_slice_dim": 2,
  "dcmmeta_version": 0.6,
  "global": {
    "const": {
      "AcquisitionMatrix": [104, 0, 0, 104],
      "AngioFlag": "N",
      "BitsAllocated": 16,
      "BitsStored": 16,
      "BodyPartExamined": "BRAIN",
      "Columns": 832,
      "EchoNumbers": 1,
      "EchoTime": 37.0,
      "EchoTrainLength": 104,
      "FlipAngle": 52.0,
      "HighBit": 15,
      "ImageOrientationPatient": [0.99560887074268, 0.08400140872366, 0.04131270786234, -0.0607196408874, 0.91538932068832, -0.3979642154519],
      "ImagePositionPatient": [-776.91329102136, -868.36392885075, 271.77107404417],
      "ImageType": [
        "ORIGINAL",
        "PRIMARY",
        "P",
        "MB",
        "ND",
        "MOSAIC"
],
      "ImagedNucleus": "1H",
      "ImagingFrequency": 123.258919,
      "InPlanePhaseEncodingDirection": "COL",
      "LargestImagePixelValue": 4095,
      "MRAcquisitionType": "2D",
      "MagneticFieldStrength": 3.0,
      "Manufacturer": "SIEMENS",
      "ManufacturerModelName": "Prisma_fit",
      "Modality": "MR",
      "NumberOfAverages": 1.0,
      "NumberOfPhaseEncodingSteps": 104,
      "PercentPhaseFieldOfView": 100.0,
      "PercentSampling": 100.0,
      "PerformedProcedureStepStartTime": "150703.167000",
      "PhotometricInterpretation": "MONOCHROME2",
      "PixelBandwidth": 2290.0,
      "PixelRepresentation": 0,
      "PixelSpacing": [2.0, 2.0],
      "ProtocolName": "func_task-mario_run-03",
      "RepetitionTime": 1490.0,
      "RescaleIntercept": -4096.0,
      "RescaleSlope": 2.0,
      "RescaleType": "US",
      "Rows": 832,
      "SAR": 0.03837108196297,
      "SamplesPerPixel": 1,
      "ScanOptions": "FS",
      "ScanningSequence": "EP",
      "SequenceName": "epfid2d1_104",
      "SequenceVariant": [
        "SK",
        "SS"
],
      "SeriesDescription": "func_task-mario_run-03",
      "SeriesNumber": 17,
      "SeriesTime": "154202.043000",
      "SliceLocation": -37.45934091292,
      "SliceThickness": 2.0,
      "SmallestImagePixelValue": 0,
      "SoftwareVersions": "syngo MR E11",
      "SpacingBetweenSlices": 1.9999999978259,
      "SpecificCharacterSet": "ISO_IR 100",
      "StudyID": "1",
      "StudyTime": "150703.010000",
      "TransmitCoilName": "Body",
      "VariableFlipAngleFlag": "N",
      "WindowCenterWidthExplanation": "Algo1",
      "dBdt": 0.0},
    "slices": {}
  },
  "time": {
    "samples": {
      "AcquisitionNumber": [1, 2, 3, 4, 5, 6, 7, 8, 9, 10, 11, 12, 13, 14, 15, 16, 17, 18, 19, 20, 21, 22, 23, 24, 25, 26, 27, 28, 29, 30, 31, 32, 33, 34, 35, 36, 37, 38, 39, 40, 41, 42, 43, 44, 45, 46, 47, 48, 49, 50, 51, 52, 53, 54, 55, 56, 57, 58, 59, 60, 61, 62, 63, 64, 65, 66, 67, 68, 69, 70, 71, 72, 73, 74, 75, 76, 77, 78, 79, 80, 81, 82, 83, 84, 85, 86, 87, 88, 89, 90, 91, 92, 93, 94, 95, 96, 97, 98, 99, 100, 101, 102, 103, 104, 105, 106, 107, 108, 109, 110, 111, 112, 113, 114, 115, 116, 117, 118, 119, 120, 121, 122, 123, 124, 125, 126, 127, 128, 129, 130, 131, 132, 133, 134, 135, 136, 137, 138, 139, 140, 141, 142, 143, 144, 145, 146, 147, 148, 149, 150, 151, 152, 153, 154, 155, 156, 157, 158, 159, 160, 161, 162, 163, 164, 165, 166, 167, 168, 169, 170, 171, 172, 173, 174, 175, 176, 177, 178, 179, 180, 181, 182, 183, 184, 185, 186, 187, 188, 189, 190, 191, 192, 193, 194, 195, 196, 197, 198, 199, 200, 201, 202, 203, 204, 205, 206, 207, 208, 209, 210, 211, 212, 213, 214, 215, 216, 217, 218, 219, 220, 221, 222, 223, 224, 225, 226, 227, 228, 229, 230, 231, 232, 233, 234, 235, 236, 237, 238, 239, 240, 241, 242, 243, 244, 245, 246, 247, 248, 249, 250, 251, 252, 253, 254, 255, 256, 257, 258, 259, 260, 261, 262, 263, 264, 265, 266, 267, 268, 269, 270, 271, 272, 273, 274, 275, 276, 277, 278, 279, 280, 281, 282, 283, 284, 285, 286, 287, 288, 289, 290, 291, 292, 293, 294, 295, 296, 297, 298, 299, 300, 301, 302, 303, 304, 305, 306, 307, 308, 309, 310, 311, 312, 313, 314, 315, 316, 317, 318, 319, 320, 321, 322, 323, 324, 325, 326, 327, 328, 329, 330, 331, 332, 333, 334, 335, 336, 337, 338, 339, 340, 341, 342, 343, 344, 345, 346, 347, 348, 349, 350, 351, 352, 353, 354, 355, 356, 357, 358, 359, 360, 361, 362, 363, 364, 365, 366, 367, 368, 369, 370, 371, 372, 373, 374, 375, 376, 377, 378, 379, 380, 381, 382, 383, 384, 385, 386, 387, 388, 389, 390, 391, 392, 393, 394, 395, 396, 397, 398, 399, 400, 401, 402, 403, 404, 405, 406, 407, 408, 409, 410, 411, 412, 413, 414, 415, 416, 417, 418, 419, 420, 421, 422, 423, 424, 425, 426, 427, 428, 429, 430, 431, 432, 433, 434, 435, 436, 437, 438],
      "AcquisitionTime": ["154037.800000", "154039.290000", "154040.780000", "154042.270000", "154043.760000", "154045.250000", "154046.740000", "154048.230000", "154049.720000", "154051.210000", "154052.700000", "154054.190000", "154055.680000", "154057.170000", "154058.660000", "154100.150000", "154101.640000", "154103.130000", "154104.620000", "154106.110000", "154107.600000", "154109.090000", "154110.580000", "154112.070000", "154113.560000", "154115.050000", "154116.540000", "154118.030000", "154119.520000", "154121.010000", "154122.500000", "154123.990000", "154125.480000", "154126.970000", "154128.460000", "154129.950000", "154131.440000", "154132.930000", "154134.420000", "154135.910000", "154137.400000", "154138.890000", "154140.380000", "154141.870000", "154143.360000", "154144.850000", "154146.340000", "154147.830000", "154149.320000", "154150.810000", "154152.300000", "154153.790000", "154155.280000", "154156.770000", "154158.260000", "154159.750000", "154201.240000", "154202.730000", "154204.220000", "154205.710000", "154207.200000", "154208.690000", "154210.180000", "154211.670000", "154213.160000", "154214.650000", "154216.140000", "154217.630000", "154219.120000", "154220.610000", "154222.100000", "154223.590000", "154225.080000", "154226.570000", "154228.060000", "154229.550000", "154231.040000", "154232.530000", "154234.020000", "154235.510000", "154237.000000", "154238.490000", "154239.980000", "154241.470000", "154242.960000", "154244.450000", "154245.940000", "154247.430000", "154248.920000", "154250.410000", "154251.900000", "154253.390000", "154254.880000", "154256.370000", "154257.860000", "154259.350000", "154300.840000", "154302.330000", "154303.820000", "154305.310000", "154306.800000", "154308.290000", "154309.780000", "154311.270000", "154312.760000", "154314.250000", "154315.740000", "154317.230000", "154318.720000", "154320.210000", "154321.700000", "154323.190000", "154324.680000", "154326.170000", "154327.660000", "154329.150000", "154330.640000", "154332.130000", "154333.620000", "154335.110000", "154336.600000", "154338.090000", "154339.580000", "154341.070000", "154342.560000", "154344.050000", "154345.540000", "154347.030000", "154348.520000", "154350.010000", "154351.500000", "154352.990000", "154354.480000", "154355.970000", "154357.460000", "154358.950000", "154400.440000", "154401.930000", "154403.420000", "154404.910000", "154406.400000", "154407.890000", "154409.380000", "154410.870000", "154412.360000", "154413.850000", "154415.340000", "154416.830000", "154418.320000", "154419.810000", "154421.300000", "154422.790000", "154424.280000", "154425.770000", "154427.260000", "154428.750000", "154430.240000", "154431.730000", "154433.220000", "154434.710000", "154436.200000", "154437.690000", "154439.180000", "154440.670000", "154442.160000", "154443.650000", "154445.140000", "154446.630000", "154448.120000", "154449.610000", "154451.100000", "154452.590000", "154454.080000", "154455.570000", "154457.060000", "154458.550000", "154500.040000", "154501.530000", "154503.020000", "154504.510000", "154506.000000", "154507.490000", "154508.980000", "154510.470000", "154511.960000", "154513.450000", "154514.940000", "154516.430000", "154517.920000", "154519.410000", "154520.900000", "154522.390000", "154523.880000", "154525.370000", "154526.860000", "154528.350000", "154529.840000", "154531.330000", "154532.820000", "154534.310000", "154535.800000", "154537.290000", "154538.780000", "154540.270000", "154541.760000", "154543.250000", "154544.740000", "154546.230000", "154547.720000", "154549.210000", "154550.700000", "154552.190000", "154553.680000", "154555.170000", "154556.660000", "154558.150000", "154559.640000", "154601.130000", "154602.620000", "154604.110000", "154605.600000", "154607.090000", "154608.580000", "154610.070000", "154611.560000", "154613.050000", "154614.540000", "154616.030000", "154617.520000", "154619.010000", "154620.500000", "154621.990000", "154623.480000", "154624.970000", "154626.460000", "154627.950000", "154629.440000", "154630.930000", "154632.420000", "154633.910000", "154635.400000", "154636.890000", "154638.380000", "154639.870000", "154641.360000", "154642.850000", "154644.340000", "154645.830000", "154647.320000", "154648.810000", "154650.300000", "154651.790000", "154653.280000", "154654.770000", "154656.260000", "154657.750000", "154659.240000", "154700.730000", "154702.220000", "154703.710000", "154705.200000", "154706.690000", "154708.180000", "154709.670000", "154711.160000", "154712.650000", "154714.140000", "154715.630000", "154717.120000", "154718.610000", "154720.100000", "154721.590000", "154723.080000", "154724.570000", "154726.060000", "154727.550000", "154729.040000", "154730.530000", "154732.020000", "154733.510000", "154735.000000", "154736.490000", "154737.980000", "154739.470000", "154740.960000", "154742.450000", "154743.940000", "154745.430000", "154746.920000", "154748.410000", "154749.900000", "154751.390000", "154752.880000", "154754.370000", "154755.860000", "154757.350000", "154758.840000", "154800.330000", "154801.820000", "154803.310000", "154804.800000", "154806.290000", "154807.780000", "154809.270000", "154810.760000", "154812.250000", "154813.740000", "154815.230000", "154816.720000", "154818.210000", "154819.700000", "154821.190000", "154822.680000", "154824.170000", "154825.660000", "154827.150000", "154828.640000", "154830.130000", "154831.620000", "154833.110000", "154834.600000", "154836.090000", "154837.580000", "154839.070000", "154840.560000", "154842.050000", "154843.540000", "154845.030000", "154846.520000", "154848.010000", "154849.500000", "154850.990000", "154852.480000", "154853.970000", "154855.460000", "154856.950000", "154858.440000", "154859.930000", "154901.420000", "154902.910000", "154904.400000", "154905.890000", "154907.380000", "154908.870000", "154910.360000", "154911.850000", "154913.340000", "154914.830000", "154916.320000", "154917.810000", "154919.300000", "154920.790000", "154922.280000", "154923.770000", "154925.260000", "154926.750000", "154928.240000", "154929.730000", "154931.220000", "154932.710000", "154934.200000", "154935.690000", "154937.180000", "154938.670000", "154940.160000", "154941.650000", "154943.140000", "154944.630000", "154946.120000", "154947.610000", "154949.100000", "154950.590000", "154952.080000", "154953.570000", "154955.060000", "154956.550000", "154958.040000", "154959.530000", "155001.020000", "155002.510000", "155004.000000", "155005.490000", "155006.980000", "155008.470000", "155009.960000", "155011.450000", "155012.940000", "155014.430000", "155015.920000", "155017.410000", "155018.900000", "155020.390000", "155021.880000", "155023.370000", "155024.860000", "155026.350000", "155027.840000", "155029.330000", "155030.820000", "155032.310000", "155033.800000", "155035.290000", "155036.780000", "155038.270000", "155039.760000", "155041.250000", "155042.740000", "155044.230000", "155045.720000", "155047.210000", "155048.700000", "155050.190000", "155051.680000", "155053.170000", "155054.660000", "155056.150000", "155057.640000", "155059.130000", "155100.620000", "155102.110000", "155103.600000", "155105.090000", "155106.580000", "155108.070000", "155109.560000", "155111.050000", "155112.540000", "155114.030000", "155115.520000", "155117.010000", "155118.500000", "155119.990000", "155121.480000", "155122.970000", "155124.460000", "155125.950000", "155127.440000", "155128.930000"],
      "ContentTime": ["154202.045000", "154202.056000", "154202.058000", "154202.061000", "154202.063000", "154202.066000", "154202.068000", "154202.071000", "154202.073000", "154202.076000", "154202.078000", "154202.081000", "154202.083000", "154202.086000", "154202.089000", "154202.091000", "154202.094000", "154202.096000", "154202.099000", "154202.101000", "154202.104000", "154202.106000", "154202.109000", "154202.111000", "154202.114000", "154202.116000", "154221.962000", "154221.971000", "154221.974000", "154221.976000", "154221.979000", "154221.981000", "154221.984000", "154221.986000", "154221.988000", "154221.991000", "154221.993000", "154221.996000", "154221.998000", "154222.002000", "154222.004000", "154222.007000", "154222.009000", "154222.012000", "154222.014000", "154222.017000", "154241.984000", "154241.987000", "154241.989000", "154241.992000", "154241.994000", "154241.997000", "154242.000000", "154242.003000", "154242.005000", "154242.008000", "154242.010000", "154242.013000", "154242.015000", "154242.018000", "154242.020000", "154242.022000", "154242.025000", "154242.028000", "154242.030000", "154242.033000", "154301.972000", "154301.975000", "154301.977000", "154301.980000", "154301.982000", "154301.985000", "154301.987000", "154301.990000", "154301.992000", "154301.995000", "154301.998000", "154302.001000", "154302.004000", "154302.006000", "154302.009000", "154302.011000", "154302.014000", "154302.016000", "154302.019000", "154302.021000", "154321.959000", "154321.962000", "154321.965000", "154321.967000", "154321.970000", "154321.975000", "154321.978000", "154321.980000", "154321.983000", "154321.985000", "154321.987000", "154321.990000", "154321.992000", "154321.995000", "154321.997000", "154322.001000", "154322.003000", "154322.006000", "154322.009000", "154322.011000", "154402.037000", "154402.040000", "154402.042000", "154402.045000", "154402.047000", "154402.050000", "154402.052000", "154402.055000", "154402.057000", "154402.060000", "154402.062000", "154402.065000", "154402.067000", "154402.070000", "154402.072000", "154402.075000", "154402.077000", "154402.080000", "154402.082000", "154402.085000", "154402.087000", "154402.090000", "154402.092000", "154402.095000", "154402.097000", "154402.100000", "154402.102000", "154402.105000", "154402.107000", "154402.110000", "154441.987000", "154441.990000", "154441.992000", "154441.995000", "154441.997000", "154442.001000", "154442.003000", "154442.006000", "154442.008000", "154442.011000", "154442.013000", "154442.016000", "154442.018000", "154442.021000", "154442.023000", "154442.026000", "154442.028000", "154442.031000", "154442.033000", "154442.036000", "154442.039000", "154442.041000", "154442.044000", "154442.046000", "154442.049000", "154442.051000", "154442.054000", "154501.934000", "154501.937000", "154501.939000", "154501.942000", "154501.944000", "154501.947000", "154501.949000", "154501.952000", "154501.954000", "154501.957000", "154501.959000", "154501.962000", "154501.964000", "154541.998000", "154542.002000", "154542.005000", "154542.007000", "154542.010000", "154542.012000", "154542.015000", "154542.017000", "154542.020000", "154542.022000", "154542.025000", "154542.027000", "154542.030000", "154542.032000", "154542.035000", "154542.037000", "154542.040000", "154542.042000", "154542.045000", "154542.047000", "154542.050000", "154542.053000", "154542.055000", "154542.058000", "154542.060000", "154542.063000", "154542.065000", "154622.002000", "154622.005000", "154622.008000", "154622.010000", "154622.013000", "154622.015000", "154622.018000", "154622.020000", "154622.023000", "154622.025000", "154622.028000", "154622.030000", "154622.033000", "154622.035000", "154622.038000", "154622.040000", "154622.043000", "154622.045000", "154622.048000", "154622.050000", "154622.053000", "154622.055000", "154622.058000", "154622.060000", "154622.063000", "154622.065000", "154622.068000", "154701.998000", "154702.002000", "154702.005000", "154702.007000", "154702.010000", "154702.012000", "154702.015000", "154702.017000", "154702.020000", "154702.022000", "154702.025000", "154702.027000", "154702.030000", "154702.032000", "154702.035000", "154702.037000", "154702.047000", "154702.049000", "154702.052000", "154702.055000", "154702.057000", "154702.059000", "154702.062000", "154702.065000", "154702.067000", "154702.070000", "154702.072000", "154742.383000", "154742.385000", "154742.388000", "154742.390000", "154742.393000", "154742.395000", "154742.398000", "154742.400000", "154742.403000", "154742.405000", "154742.408000", "154742.410000", "154742.413000", "154742.416000", "154742.418000", "154742.421000", "154742.423000", "154742.426000", "154742.428000", "154742.431000", "154742.433000", "154742.436000", "154742.444000", "154742.447000", "154742.449000", "154742.452000", "154742.454000", "154822.004000", "154822.007000", "154822.009000", "154822.012000", "154822.015000", "154822.017000", "154822.020000", "154822.022000", "154822.025000", "154822.027000", "154822.030000", "154822.032000", "154822.035000", "154822.037000", "154822.040000", "154822.042000", "154822.045000", "154822.047000", "154822.050000", "154822.052000", "154822.055000", "154822.057000", "154822.060000", "154822.062000", "154822.065000", "154822.067000", "154822.070000", "154902.028000", "154902.031000", "154902.034000", "154902.036000", "154902.039000", "154902.041000", "154902.044000", "154902.046000", "154902.049000", "154902.051000", "154902.059000", "154902.061000", "154902.064000", "154902.066000", "154902.069000", "154902.072000", "154902.074000", "154902.077000", "154902.079000", "154902.082000", "154902.084000", "154902.087000", "154902.089000", "154902.092000", "154902.094000", "154902.097000", "154942.008000", "154942.011000", "154942.014000", "154942.016000", "154942.019000", "154942.021000", "154942.024000", "154942.026000", "154942.029000", "154942.031000", "154942.034000", "154942.036000", "154942.039000", "154942.041000", "154942.044000", "154942.047000", "154942.050000", "154942.052000", "154942.055000", "154942.058000", "154942.060000", "154942.063000", "154942.065000", "154942.068000", "154942.070000", "154942.073000", "154942.075000", "155022.016000", "155022.019000", "155022.021000", "155022.024000", "155022.026000", "155022.029000", "155022.031000", "155022.034000", "155022.036000", "155022.039000", "155022.041000", "155022.044000", "155022.046000", "155022.049000", "155022.051000", "155022.054000", "155022.056000", "155022.059000", "155022.061000", "155022.064000", "155022.067000", "155022.069000", "155022.072000", "155022.074000", "155022.077000", "155022.079000", "155022.083000", "155102.134000", "155102.136000", "155102.139000", "155102.141000", "155102.144000", "155102.146000", "155102.149000", "155102.151000", "155102.154000", "155102.156000", "155102.159000", "155102.161000", "155102.164000", "155102.166000", "155102.169000", "155102.171000", "155102.174000", "155102.176000", "155102.179000", "155102.181000", "155102.184000", "155102.187000", "155102.189000", "155102.192000", "155102.194000", "155102.197000", "155102.199000", "155131.172000", "155131.175000", "155131.178000", "155131.180000", "155131.183000", "155131.185000", "155131.188000", "155131.190000", "155131.193000", "155131.195000", "155131.198000", "155131.200000", "155131.203000", "155131.205000", "155131.208000", "155131.210000", "155131.213000", "155131.215000", "155131.218000", "155131.220000"],
