{
  "AcquisitionMatrixPE": 104,
  "AcquisitionNumber": 1,
  "AcquisitionTime": "16:07:51.262500",
  "BandwidthPerPixelPhaseEncode": 17.17,
  "BaseResolution": 104,
  "BodyPartExamined": "BRAIN",
  "CoilString": "HC1-7;NC1_2",
  "ConsistencyInfo": "N4_VE11C_LATEST_20160120",
  "ConversionSoftware": "dcm2niix",
  "ConversionSoftwareVersion": "v1.0.20190902",
  "DerivedVendorReportedEchoSpacing": 0.000560011,
  "DeviceSerialNumber": "167006",
  "DwellTime": 2.1e-06,
  "EchoTime": 0.037,
  "EchoTrainLength": 104,
  "EffectiveEchoSpacing": 0.000560011,
  "FlipAngle": 52,
  "HeudiconvVersion": "0.10.0",
  "ImageComments": "Unaliased_MB4_PE3_LB",
  "ImageOrientationPatientDICOM": [0.995609, 0.0840014, 0.0413127, -0.0607196, 0.915389, -0.397964],
  "ImageType": [
    "ORIGINAL",
    "PRIMARY",
    "M",
    "MB",
    "ND",
    "MOSAIC"
],
  "ImagingFrequency": 123.259,
  "InPlanePhaseEncodingDirectionDICOM": "COL",
  "InstitutionAddress": "Chemin_Queen-Mary_4565_Montreal_District_CA_H3W_1W5",
  "InstitutionName": "IUGM",
  "InstitutionalDepartmentName": "Department",
  "MRAcquisitionType": "2D",
  "MagneticFieldStrength": 3,
  "Manufacturer": "Siemens",
  "ManufacturersModelName": "Prisma_fit",
  "Modality": "MR",
  "MultibandAccelerationFactor": 4,
  "PartialFourier": 1,
  "PatientPosition": "HFS",
  "PercentPhaseFOV": 100,
  "PhaseEncodingDirection": "j",
  "PhaseEncodingSteps": 104,
  "PhaseResolution": 1,
  "PixelBandwidth": 2290,
  "ProcedureStepDescription": "games_mario",
  "ProtocolName": "func_task-mario_run-05",
  "PulseSequenceDetails": "%CustomerSeq%_cmrr_mbep2d_bold",
  "ReceiveCoilActiveElements": "HC1-7;NC1,2",
  "ReceiveCoilName": "HeadNeck_64",
  "ReconMatrixPE": 104,
  "RepetitionTime": 1.49,
  "SAR": 0.0383711,
  "ScanOptions": "FS",
  "ScanningSequence": "EP",
  "SequenceName": "epfid2d1_104",
  "SequenceVariant": "SK_SS",
  "SeriesDescription": "func_task-mario_run-05",
  "SeriesNumber": 22,
  "ShimSetting": [632, -7180, -8829, 608, 89, 9, -74, 0],
  "SliceThickness": 2,
  "SliceTiming": [0, 0.785, 0.1, 0.8825, 0.1975, 0.98, 0.295, 1.08, 0.3925, 1.1775, 0.49, 1.275, 0.59, 1.3725, 0.6875, 0, 0.785, 0.1, 0.8825, 0.1975, 0.98, 0.295, 1.08, 0.3925, 1.1775, 0.49, 1.275, 0.59, 1.3725, 0.6875, 0, 0.785, 0.1, 0.8825, 0.1975, 0.98, 0.295, 1.08, 0.3925, 1.1775, 0.49, 1.275, 0.59, 1.3725, 0.6875, 0, 0.785, 0.1, 0.8825, 0.1975, 0.98, 0.295, 1.08, 0.3925, 1.1775, 0.49, 1.275, 0.59, 1.3725, 0.6875],
  "SoftwareVersions": "syngo_MR_E11",
  "SpacingBetweenSlices": 2,
  "StationName": "MRC35049",
  "TaskName": "mario",
  "TotalReadoutTime": 0.0576811,
  "TxRefAmp": 250.098,
  "WipMemBlock": "6d325b78-3676-4412-9828-ffbce61c7913||Sequence: R016 ve11c/master r/e634e98; Dec 19 2017 11:00:25 by eja",
  "dcmmeta_affine": [
    [-1.9912177324295044, -0.12143927812576294, 0.14249353110790253, 108.82217407226562],
    [-0.16800281405448914, 1.8307785987854004, -0.787416398525238, -47.76272201538086],
    [0.08262541890144348, 0.795928418636322, 1.8329405784606934, -69.85185241699219],
    [0.0, 0.0, 0.0, 1.0]
],
  "dcmmeta_reorient_transform": [
    [0.0, -1.0, 0.0, 103.0],
    [1.0, 0.0, 0.0, 0.0],
    [0.0, 0.0, 1.0, 0.0],
    [0.0, 0.0, 0.0, 1.0]
],
  "dcmmeta_shape": [104, 104, 60, 485],
  "dcmmeta_slice_dim": 2,
  "dcmmeta_version": 0.6,
  "global": {
    "const": {
      "AcquisitionMatrix": [104, 0, 0, 104],
      "AngioFlag": "N",
      "BitsAllocated": 16,
      "BitsStored": 16,
      "BodyPartExamined": "BRAIN",
      "Columns": 832,
      "EchoNumbers": 1,
      "EchoTime": 37.0,
      "EchoTrainLength": 104,
      "FlipAngle": 52.0,
      "HighBit": 15,
      "ImageOrientationPatient": [0.99560887074268, 0.08400140872366, 0.04131270786234, -0.0607196408874, 0.91538932068832, -0.3979642154519],
      "ImagePositionPatient": [-776.91329102136, -868.36392885075, 271.77107404417],
      "ImageType": [
        "ORIGINAL",
        "PRIMARY",
        "M",
        "MB",
        "ND",
        "MOSAIC"
],
      "ImagedNucleus": "1H",
      "ImagingFrequency": 123.258921,
      "InPlanePhaseEncodingDirection": "COL",
      "MRAcquisitionType": "2D",
      "MagneticFieldStrength": 3.0,
      "Manufacturer": "SIEMENS",
      "ManufacturerModelName": "Prisma_fit",
      "Modality": "MR",
      "NumberOfAverages": 1.0,
      "NumberOfPhaseEncodingSteps": 104,
      "PercentPhaseFieldOfView": 100.0,
      "PercentSampling": 100.0,
      "PerformedProcedureStepStartTime": "150703.167000",
      "PhotometricInterpretation": "MONOCHROME2",
      "PixelBandwidth": 2290.0,
      "PixelRepresentation": 0,
      "PixelSpacing": [2.0, 2.0],
      "ProtocolName": "func_task-mario_run-05",
      "RepetitionTime": 1490.0,
      "Rows": 832,
      "SAR": 0.03837108196297,
      "SamplesPerPixel": 1,
      "ScanOptions": "FS",
      "ScanningSequence": "EP",
      "SequenceName": "epfid2d1_104",
      "SequenceVariant": [
        "SK",
        "SS"
],
      "SeriesDescription": "func_task-mario_run-05",
      "SeriesNumber": 22,
      "SeriesTime": "160919.262000",
      "SliceLocation": -37.45934091292,
      "SliceThickness": 2.0,
      "SmallestImagePixelValue": 0,
      "SoftwareVersions": "syngo MR E11",
      "SpacingBetweenSlices": 1.9999999978259,
      "SpecificCharacterSet": "ISO_IR 100",
      "StudyID": "1",
      "StudyTime": "150703.010000",
      "TransmitCoilName": "Body",
      "VariableFlipAngleFlag": "N",
      "WindowCenterWidthExplanation": "Algo1",
      "dBdt": 0.0},
    "slices": {}
  },
  "time": {
    "samples": {
      "AcquisitionNumber": [1, 2, 3, 4, 5, 6, 7, 8, 9, 10, 11, 12, 13, 14, 15, 16, 17, 18, 19, 20, 21, 22, 23, 24, 25, 26, 27, 28, 29, 30, 31, 32, 33, 34, 35, 36, 37, 38, 39, 40, 41, 42, 43, 44, 45, 46, 47, 48, 49, 50, 51, 52, 53, 54, 55, 56, 57, 58, 59, 60, 61, 62, 63, 64, 65, 66, 67, 68, 69, 70, 71, 72, 73, 74, 75, 76, 77, 78, 79, 80, 81, 82, 83, 84, 85, 86, 87, 88, 89, 90, 91, 92, 93, 94, 95, 96, 97, 98, 99, 100, 101, 102, 103, 104, 105, 106, 107, 108, 109, 110, 111, 112, 113, 114, 115, 116, 117, 118, 119, 120, 121, 122, 123, 124, 125, 126, 127, 128, 129, 130, 131, 132, 133, 134, 135, 136, 137, 138, 139, 140, 141, 142, 143, 144, 145, 146, 147, 148, 149, 150, 151, 152, 153, 154, 155, 156, 157, 158, 159, 160, 161, 162, 163, 164, 165, 166, 167, 168, 169, 170, 171, 172, 173, 174, 175, 176, 177, 178, 179, 180, 181, 182, 183, 184, 185, 186, 187, 188, 189, 190, 191, 192, 193, 194, 195, 196, 197, 198, 199, 200, 201, 202, 203, 204, 205, 206, 207, 208, 209, 210, 211, 212, 213, 214, 215, 216, 217, 218, 219, 220, 221, 222, 223, 224, 225, 226, 227, 228, 229, 230, 231, 232, 233, 234, 235, 236, 237, 238, 239, 240, 241, 242, 243, 244, 245, 246, 247, 248, 249, 250, 251, 252, 253, 254, 255, 256, 257, 258, 259, 260, 261, 262, 263, 264, 265, 266, 267, 268, 269, 270, 271, 272, 273, 274, 275, 276, 277, 278, 279, 280, 281, 282, 283, 284, 285, 286, 287, 288, 289, 290, 291, 292, 293, 294, 295, 296, 297, 298, 299, 300, 301, 302, 303, 304, 305, 306, 307, 308, 309, 310, 311, 312, 313, 314, 315, 316, 317, 318, 319, 320, 321, 322, 323, 324, 325, 326, 327, 328, 329, 330, 331, 332, 333, 334, 335, 336, 337, 338, 339, 340, 341, 342, 343, 344, 345, 346, 347, 348, 349, 350, 351, 352, 353, 354, 355, 356, 357, 358, 359, 360, 361, 362, 363, 364, 365, 366, 367, 368, 369, 370, 371, 372, 373, 374, 375, 376, 377, 378, 379, 380, 381, 382, 383, 384, 385, 386, 387, 388, 389, 390, 391, 392, 393, 394, 395, 396, 397, 398, 399, 400, 401, 402, 403, 404, 405, 406, 407, 408, 409, 410, 411, 412, 413, 414, 415, 416, 417, 418, 419, 420, 421, 422, 423, 424, 425, 426, 427, 428, 429, 430, 431, 432, 433, 434, 435, 436, 437, 438, 439, 440, 441, 442, 443, 444, 445, 446, 447, 448, 449, 450, 451, 452, 453, 454, 455, 456, 457, 458, 459, 460, 461, 462, 463, 464, 465, 466, 467, 468, 469, 470, 471, 472, 473, 474, 475, 476, 477, 478, 479, 480, 481, 482, 483, 484, 485],
      "AcquisitionTime": ["160751.262500", "160752.752500", "160754.242500", "160755.732500", "160757.222500", "160758.712500", "160800.202500", "160801.692500", "160803.182500", "160804.672500", "160806.162500", "160807.652500", "160809.142500", "160810.632500", "160812.122500", "160813.612500", "160815.102500", "160816.592500", "160818.082500", "160819.572500", "160821.062500", "160822.552500", "160824.042500", "160825.532500", "160827.022500", "160828.512500", "160830.002500", "160831.492500", "160832.982500", "160834.472500", "160835.962500", "160837.452500", "160838.942500", "160840.432500", "160841.922500", "160843.412500", "160844.902500", "160846.392500", "160847.882500", "160849.372500", "160850.862500", "160852.352500", "160853.842500", "160855.332500", "160856.822500", "160858.312500", "160859.802500", "160901.292500", "160902.782500", "160904.272500", "160905.762500", "160907.252500", "160908.742500", "160910.232500", "160911.722500", "160913.212500", "160914.702500", "160916.192500", "160917.682500", "160919.172500", "160920.662500", "160922.152500", "160923.642500", "160925.132500", "160926.622500", "160928.112500", "160929.602500", "160931.092500", "160932.582500", "160934.072500", "160935.562500", "160937.052500", "160938.542500", "160940.032500", "160941.522500", "160943.012500", "160944.502500", "160945.992500", "160947.482500", "160948.972500", "160950.462500", "160951.952500", "160953.442500", "160954.932500", "160956.422500", "160957.912500", "160959.402500", "161000.892500", "161002.382500", "161003.872500", "161005.362500", "161006.852500", "161008.342500", "161009.832500", "161011.322500", "161012.812500", "161014.302500", "161015.792500", "161017.282500", "161018.772500", "161020.262500", "161021.752500", "161023.242500", "161024.732500", "161026.222500", "161027.712500", "161029.202500", "161030.692500", "161032.182500", "161033.672500", "161035.162500", "161036.652500", "161038.142500", "161039.632500", "161041.122500", "161042.612500", "161044.102500", "161045.592500", "161047.082500", "161048.572500", "161050.062500", "161051.552500", "161053.042500", "161054.532500", "161056.022500", "161057.512500", "161059.002500", "161100.492500", "161101.982500", "161103.472500", "161104.962500", "161106.452500", "161107.942500", "161109.432500", "161110.922500", "161112.412500", "161113.902500", "161115.392500", "161116.882500", "161118.372500", "161119.862500", "161121.352500", "161122.842500", "161124.332500", "161125.822500", "161127.312500", "161128.802500", "161130.292500", "161131.782500", "161133.272500", "161134.762500", "161136.252500", "161137.742500", "161139.232500", "161140.722500", "161142.212500", "161143.702500", "161145.192500", "161146.682500", "161148.172500", "161149.662500", "161151.152500", "161152.642500", "161154.132500", "161155.622500", "161157.112500", "161158.602500", "161200.092500", "161201.582500", "161203.072500", "161204.562500", "161206.052500", "161207.542500", "161209.032500", "161210.522500", "161212.012500", "161213.502500", "161214.992500", "161216.482500", "161217.972500", "161219.462500", "161220.952500", "161222.442500", "161223.932500", "161225.422500", "161226.912500", "161228.402500", "161229.892500", "161231.382500", "161232.872500", "161234.362500", "161235.852500", "161237.342500", "161238.832500", "161240.322500", "161241.812500", "161243.302500", "161244.792500", "161246.282500", "161247.772500", "161249.262500", "161250.752500", "161252.242500", "161253.732500", "161255.222500", "161256.712500", "161258.202500", "161259.692500", "161301.182500", "161302.672500", "161304.162500", "161305.652500", "161307.142500", "161308.632500", "161310.122500", "161311.612500", "161313.102500", "161314.592500", "161316.082500", "161317.572500", "161319.062500", "161320.552500", "161322.042500", "161323.532500", "161325.022500", "161326.512500", "161328.002500", "161329.492500", "161330.982500", "161332.472500", "161333.962500", "161335.452500", "161336.942500", "161338.432500", "161339.922500", "161341.412500", "161342.902500", "161344.392500", "161345.882500", "161347.372500", "161348.862500", "161350.352500", "161351.842500", "161353.332500", "161354.822500", "161356.312500", "161357.802500", "161359.292500", "161400.782500", "161402.272500", "161403.762500", "161405.252500", "161406.742500", "161408.232500", "161409.722500", "161411.212500", "161412.702500", "161414.192500", "161415.682500", "161417.172500", "161418.662500", "161420.152500", "161421.642500", "161423.132500", "161424.622500", "161426.112500", "161427.602500", "161429.092500", "161430.582500", "161432.072500", "161433.562500", "161435.052500", "161436.542500", "161438.032500", "161439.522500", "161441.012500", "161442.502500", "161443.992500", "161445.482500", "161446.972500", "161448.462500", "161449.952500", "161451.442500", "161452.932500", "161454.422500", "161455.912500", "161457.402500", "161458.892500", "161500.382500", "161501.872500", "161503.362500", "161504.852500", "161506.342500", "161507.832500", "161509.322500", "161510.812500", "161512.302500", "161513.792500", "161515.282500", "161516.772500", "161518.262500", "161519.752500", "161521.242500", "161522.732500", "161524.222500", "161525.712500", "161527.202500", "161528.692500", "161530.182500", "161531.672500", "161533.162500", "161534.652500", "161536.142500", "161537.632500", "161539.122500", "161540.612500", "161542.102500", "161543.592500", "161545.082500", "161546.572500", "161548.062500", "161549.552500", "161551.042500", "161552.532500", "161554.022500", "161555.512500", "161557.002500", "161558.492500", "161559.982500", "161601.472500", "161602.962500", "161604.452500", "161605.942500", "161607.432500", "161608.922500", "161610.412500", "161611.902500", "161613.392500", "161614.882500", "161616.372500", "161617.862500", "161619.352500", "161620.842500", "161622.332500", "161623.822500", "161625.312500", "161626.802500", "161628.292500", "161629.782500", "161631.272500", "161632.762500", "161634.252500", "161635.742500", "161637.232500", "161638.722500", "161640.212500", "161641.702500", "161643.192500", "161644.682500", "161646.172500", "161647.662500", "161649.152500", "161650.642500", "161652.132500", "161653.622500", "161655.112500", "161656.602500", "161658.092500", "161659.582500", "161701.072500", "161702.562500", "161704.052500", "161705.542500", "161707.032500", "161708.522500", "161710.012500", "161711.502500", "161712.992500", "161714.482500", "161715.972500", "161717.462500", "161718.952500", "161720.442500", "161721.932500", "161723.422500", "161724.912500", "161726.402500", "161727.892500", "161729.382500", "161730.872500", "161732.362500", "161733.852500", "161735.342500", "161736.832500", "161738.322500", "161739.812500", "161741.302500", "161742.792500", "161744.282500", "161745.772500", "161747.262500", "161748.752500", "161750.242500", "161751.732500", "161753.222500", "161754.712500", "161756.202500", "161757.692500", "161759.182500", "161800.672500", "161802.162500", "161803.652500", "161805.142500", "161806.632500", "161808.122500", "161809.612500", "161811.102500", "161812.592500", "161814.082500", "161815.572500", "161817.062500", "161818.552500", "161820.042500", "161821.532500", "161823.022500", "161824.512500", "161826.002500", "161827.492500", "161828.982500", "161830.472500", "161831.962500", "161833.452500", "161834.942500", "161836.432500", "161837.922500", "161839.412500", "161840.902500", "161842.392500", "161843.882500", "161845.372500", "161846.862500", "161848.352500", "161849.842500", "161851.332500", "161852.822500", "161854.312500", "161855.802500", "161857.292500", "161858.782500", "161900.272500", "161901.762500", "161903.252500", "161904.742500", "161906.232500", "161907.722500", "161909.212500", "161910.702500", "161912.192500", "161913.682500", "161915.172500", "161916.662500", "161918.152500", "161919.642500", "161921.132500", "161922.622500", "161924.112500", "161925.602500", "161927.092500", "161928.582500", "161930.072500", "161931.562500", "161933.052500", "161934.542500", "161936.032500", "161937.522500", "161939.012500", "161940.502500", "161941.992500", "161943.482500", "161944.972500", "161946.462500", "161947.952500", "161949.442500", "161950.932500", "161952.422500"],
      "ContentTime": ["160919.266000", "160919.269000", "160919.273000", "160919.276000", "160919.279000", "160919.282000", "160919.286000", "160919.289000", "160919.293000", "160919.296000", "160919.299000", "160919.303000", "160919.306000", "160919.309000", "160919.312000", "160919.316000", "160919.319000", "160919.322000", "160919.326000", "160919.329000", "160919.332000", "160919.335000", "160919.339000", "160919.342000", "160919.345000", "160919.349000", "160919.352000", "160919.355000", "160919.358000", "160919.362000", "160919.365000", "160919.368000", "160919.372000", "160919.381000", "160939.213000", "160939.217000", "160939.220000", "160939.223000", "160939.227000", "160939.238000", "160939.241000", "160939.244000", "160939.248000", "160939.251000", "160939.254000", "160939.258000", "160939.261000", "160939.265000", "160939.268000", "160939.271000", "160939.275000", "160939.280000", "160939.283000", "160939.287000", "160959.213000", "160959.217000", "160959.220000", "160959.223000", "160959.227000", "160959.230000", "160959.234000", "160959.237000", "160959.240000", "160959.243000", "160959.247000", "160959.250000", "160959.253000", "160959.257000", "160959.260000", "160959.263000", "160959.267000", "160959.270000", "160959.273000", "160959.277000", "160959.280000", "161019.213000", "161019.217000", "161019.220000", "161019.224000", "161019.227000", "161019.230000", "161019.234000", "161019.237000", "161019.240000", "161019.244000", "161019.247000", "161019.250000", "161019.258000", "161019.261000", "161019.265000", "161019.268000", "161019.272000", "161019.275000", "161019.278000", "161019.282000", "161059.213000", "161059.217000", "161059.220000", "161059.223000", "161059.227000", "161059.230000", "161059.233000", "161059.237000", "161059.240000", "161059.243000", "161059.247000", "161059.250000", "161059.253000", "161059.257000", "161059.260000", "161059.263000", "161059.267000", "161059.270000", "161059.273000", "161059.277000", "161059.280000", "161059.283000", "161059.287000", "161059.290000", "161059.293000", "161059.297000", "161059.300000", "161059.303000", "161059.307000", "161059.310000", "161139.213000", "161139.217000", "161139.220000", "161139.224000", "161139.227000", "161139.230000", "161139.234000", "161139.238000", "161139.241000", "161139.244000", "161139.248000", "161139.251000", "161139.254000", "161139.258000", "161139.261000", "161139.264000", "161139.282000", "161139.285000", "161139.288000", "161139.291000", "161139.295000", "161139.298000", "161139.301000", "161139.305000", "161139.308000", "161139.311000", "161139.315000", "161219.213000", "161219.217000", "161219.220000", "161219.224000", "161219.227000", "161219.230000", "161219.234000", "161219.237000", "161219.240000", "161219.244000", "161219.247000", "161219.250000", "161219.254000", "161219.257000", "161219.260000", "161219.264000", "161219.267000", "161219.270000", "161219.274000", "161219.277000", "161219.280000", "161219.284000", "161219.287000", "161219.290000", "161219.294000", "161219.297000", "161219.300000", "161259.213000", "161259.217000", "161259.220000", "161259.223000", "161259.227000", "161259.230000", "161259.234000", "161259.237000", "161259.240000", "161259.244000", "161259.247000", "161259.250000", "161259.254000", "161259.257000", "161259.260000", "161259.264000", "161259.267000", "161259.270000", "161259.274000", "161259.277000", "161259.280000", "161259.297000", "161259.300000", "161259.303000", "161259.307000", "161259.310000", "161259.313000", "161339.213000", "161339.217000", "161339.220000", "161339.224000", "161339.227000", "161339.230000", "161339.234000", "161339.237000", "161339.240000", "161339.244000", "161339.247000", "161339.251000", "161339.254000", "161339.257000", "161339.261000", "161339.264000", "161339.267000", "161339.271000", "161339.274000", "161339.277000", "161339.281000", "161339.284000", "161339.287000", "161339.291000", "161339.294000", "161339.297000", "161339.301000", "161419.213000", "161419.217000", "161419.220000", "161419.224000", "161419.227000", "161419.230000", "161419.234000", "161419.253000", "161419.257000", "161419.260000", "161419.263000", "161419.267000", "161419.270000", "161419.273000", "161419.277000", "161419.280000", "161419.283000", "161419.287000", "161419.290000", "161419.293000", "161419.297000", "161419.300000", "161419.303000", "161419.307000", "161419.310000", "161419.313000", "161419.316000", "161459.213000", "161459.217000", "161459.220000", "161459.224000", "161459.227000", "161459.230000", "161459.234000", "161459.237000", "161459.241000", "161459.244000", "161459.247000", "161459.251000", "161459.254000", "161459.257000", "161459.261000", "161459.264000", "161459.267000", "161459.270000", "161459.275000", "161459.278000", "161459.282000", "161459.285000", "161459.289000", "161459.292000", "161459.295000", "161459.299000", "161539.213000", "161539.217000", "161539.220000", "161539.224000", "161539.227000", "161539.231000", "161539.234000", "161539.237000", "161539.241000", "161539.244000", "161539.247000", "161539.251000", "161539.254000", "161539.257000", "161539.261000", "161539.264000", "161539.268000", "161539.271000", "161539.274000", "161539.278000", "161539.281000", "161539.284000", "161539.288000", "161539.291000", "161539.294000", "161539.297000", "161539.301000", "161619.213000", "161619.217000", "161619.220000", "161619.224000", "161619.227000", "161619.231000", "161619.234000", "161619.237000", "161619.241000", "161619.244000", "161619.247000", "161619.251000", "161619.254000", "161619.257000", "161619.261000", "161619.264000", "161619.267000", "161619.271000", "161619.274000", "161619.278000", "161619.281000", "161619.284000", "161619.299000", "161619.303000", "161619.306000", "161619.309000", "161619.312000", "161659.213000", "161659.217000", "161659.220000", "161659.224000", "161659.227000", "161659.230000", "161659.234000", "161659.237000", "161659.240000", "161659.244000", "161659.247000", "161659.250000", "161659.254000", "161659.257000", "161659.261000", "161659.264000", "161659.267000", "161659.271000", "161659.274000", "161659.277000", "161659.281000", "161659.284000", "161659.287000", "161659.291000", "161659.294000", "161659.297000", "161659.300000", "161739.213000", "161739.217000", "161739.220000", "161739.223000", "161739.227000", "161739.230000", "161739.233000", "161739.237000", "161739.240000", "161739.243000", "161739.247000", "161739.250000", "161739.253000", "161739.257000", "161739.260000", "161739.263000", "161739.267000", "161739.270000", "161739.274000", "161739.277000", "161739.280000", "161739.283000", "161739.287000", "161739.290000", "161739.293000", "161739.297000", "161739.300000", "161819.213000", "161819.217000", "161819.220000", "161819.224000", "161819.227000", "161819.230000", "161819.234000", "161819.237000", "161819.241000", "161819.244000", "161819.247000", "161819.251000", "161819.254000", "161819.257000", "161819.261000", "161819.264000", "161819.267000", "161819.271000", "161819.274000", "161819.277000", "161819.281000", "161819.284000", "161819.287000", "161819.291000", "161819.294000", "161819.297000", "161819.301000", "161859.213000", "161859.217000", "161859.220000", "161859.224000", "161859.227000", "161859.230000", "161859.234000", "161859.237000", "161859.240000", "161859.244000", "161859.247000", "161859.250000", "161859.254000", "161859.257000", "161859.260000", "161859.264000", "161859.267000", "161859.270000", "161859.274000", "161859.277000", "161859.282000", "161859.285000", "161859.289000", "161859.292000", "161859.295000", "161859.299000", "161939.213000", "161939.217000", "161939.220000", "161939.223000", "161939.227000", "161939.231000", "161939.234000", "161939.237000", "161939.241000", "161939.244000", "161939.248000", "161939.251000", "161939.254000", "161939.258000", "161939.261000", "161939.265000", "161939.268000", "161939.272000", "161939.275000", "161939.278000", "161939.282000", "161939.285000", "161939.288000", "161939.292000", "161939.295000", "161939.298000", "161939.302000", "161955.846000", "161955.850000", "161955.854000", "161955.857000", "161955.861000", "161955.864000", "161955.868000", "161955.871000", "161955.875000", "161955.878000", "161955.881000"],
