{
  "AcquisitionMatrixPE": 104,
  "AcquisitionNumber": 1,
  "AcquisitionTime": "11:23:51.087500",
  "BandwidthPerPixelPhaseEncode": 17.17,
  "BaseResolution": 104,
  "BodyPartExamined": "BRAIN",
  "CoilCombinationMethod": "Sum of Squares",
  "ConsistencyInfo": "N4_VE11C_LATEST_20160120",
  "ConversionSoftware": "dcm2niix",
  "ConversionSoftwareVersion": "v1.0.20211006",
  "DerivedVendorReportedEchoSpacing": 0.000560011,
  "DeviceSerialNumber": "167006",
  "DwellTime": 2.1e-06,
  "EchoTime": 0.037,
  "EchoTrainLength": 104,
  "EffectiveEchoSpacing": 0.000560011,
  "FlipAngle": 52,
  "HeudiconvVersion": "0.10.0",
  "ImageComments": "Unaliased MB4/PE3/LB",
  "ImageOrientationPatientDICOM": [0.999186, 0.0124449, 0.0383684, 0.0102894, 0.841106, -0.540772],
  "ImageOrientationText": "Tra>Cor(-32.8)>Sag(2.2)",
  "ImageType": [
    "ORIGINAL",
    "PRIMARY",
    "M",
    "MB",
    "ND",
    "MOSAIC"
],
  "ImagingFrequency": 123.259,
  "InPlanePhaseEncodingDirectionDICOM": "COL",
  "InstitutionAddress": "Chemin Queen-Mary 4565,Montreal,District,CA,H3W 1W5",
  "InstitutionName": "IUGM",
  "InstitutionalDepartmentName": "Department",
  "MRAcquisitionType": "2D",
  "MagneticFieldStrength": 3,
  "Manufacturer": "Siemens",
  "ManufacturersModelName": "Prisma_fit",
  "MatrixCoilMode": "SENSE",
  "Modality": "MR",
  "MultibandAccelerationFactor": 4,
  "PartialFourier": 1,
  "PatientPosition": "HFS",
  "PercentPhaseFOV": 100,
  "PercentSampling": 100,
  "PhaseEncodingDirection": "j",
  "PhaseEncodingSteps": 104,
  "PhaseResolution": 1,
  "PixelBandwidth": 2290,
  "ProcedureStepDescription": "games^mario",
  "ProtocolName": "func_task-mario_run-03",
  "PulseSequenceDetails": "%CustomerSeq%\\cmrr_mbep2d_bold",
  "ReceiveCoilActiveElements": "HC1-7;NC1,2",
  "ReceiveCoilName": "HeadNeck_64",
  "ReconMatrixPE": 104,
  "RepetitionTime": 1.49,
  "SAR": 0.0679611,
  "ScanOptions": "FS",
  "ScanningSequence": "EP",
  "SequenceName": "epfid2d1_104",
  "SequenceVariant": "SK\\SS",
  "SeriesDescription": "func_task-mario_run-03",
  "SeriesNumber": 16,
  "ShimSetting": [622, -7173, -8875, 238, 52, -251, -30, -10],
  "SliceThickness": 2,
  "SliceTiming": [0, 0.785, 0.0975, 0.8825, 0.195, 0.98, 0.295, 1.0775, 0.3925, 1.175, 0.49, 1.275, 0.5875, 1.3725, 0.685, 0, 0.785, 0.0975, 0.8825, 0.195, 0.98, 0.295, 1.0775, 0.3925, 1.175, 0.49, 1.275, 0.5875, 1.3725, 0.685, 0, 0.785, 0.0975, 0.8825, 0.195, 0.98, 0.295, 1.0775, 0.3925, 1.175, 0.49, 1.275, 0.5875, 1.3725, 0.685, 0, 0.785, 0.0975, 0.8825, 0.195, 0.98, 0.295, 1.0775, 0.3925, 1.175, 0.49, 1.275, 0.5875, 1.3725, 0.685],
  "SoftwareVersions": "syngo MR E11",
  "SpacingBetweenSlices": 2,
  "StationName": "MRC35049",
  "TaskName": "mario",
  "TotalReadoutTime": 0.0576811,
  "TxRefAmp": 327.157,
  "WipMemBlock": "93a97fc7-2825-4160-8eb1-2ef462273728||Sequence: R016 ve11c/master r/e634e98; Dec 19 2017 11:00:25 by eja",
  "dcmmeta_affine": [
    [-1.9983723163604736, 0.020578863099217415, 0.07800358533859253, 104.14569854736328],
    [-0.02488989382982254, 1.6822121143341064, -1.0814540386199951, -45.84778594970703],
    [0.07673683762550354, 1.0815446376800537, 1.6805870532989502, -110.73590850830078],
    [0.0, 0.0, 0.0, 1.0]
],
  "dcmmeta_reorient_transform": [
    [0.0, -1.0, 0.0, 103.0],
    [1.0, 0.0, 0.0, 0.0],
    [0.0, 0.0, 1.0, 0.0],
    [0.0, 0.0, 0.0, 1.0]
],
  "dcmmeta_shape": [104, 104, 60, 496],
  "dcmmeta_slice_dim": 2,
  "dcmmeta_version": 0.6,
  "global": {
    "const": {
      "AcquisitionMatrix": [104, 0, 0, 104],
      "AngioFlag": "N",
      "BitsAllocated": 16,
      "BitsStored": 16,
      "BodyPartExamined": "BRAIN",
      "Columns": 832,
      "EchoNumbers": 1,
      "EchoTime": 37.0,
      "EchoTrainLength": 104,
      "FlipAngle": 52.0,
      "HighBit": 15,
      "ImageOrientationPatient": [0.99918616274225, 0.01244494682115, 0.03836841778134, 0.01028943145613, 0.84110607850705, -0.5407723109579],
      "ImagePositionPatient": [-841.16355188934, -748.8052137237, 366.41322424257],
      "ImageType": [
        "ORIGINAL",
        "PRIMARY",
        "M",
        "MB",
        "ND",
        "MOSAIC"
],
      "ImagedNucleus": "1H",
      "ImagingFrequency": 123.258897,
      "InPlanePhaseEncodingDirection": "COL",
      "MRAcquisitionType": "2D",
      "MagneticFieldStrength": 3.0,
      "Manufacturer": "SIEMENS",
      "ManufacturerModelName": "Prisma_fit",
      "Modality": "MR",
      "NumberOfAverages": 1.0,
      "NumberOfPhaseEncodingSteps": 104,
      "PercentPhaseFieldOfView": 100.0,
      "PercentSampling": 100.0,
      "PerformedProcedureStepStartTime": "101933.988000",
      "PhotometricInterpretation": "MONOCHROME2",
      "PixelBandwidth": 2290.0,
      "PixelRepresentation": 0,
      "PixelSpacing": [2.0, 2.0],
      "ProtocolName": "func_task-mario_run-03",
      "RepetitionTime": 1490.0,
      "Rows": 832,
      "SAR": 0.06796115243862,
      "SamplesPerPixel": 1,
      "ScanOptions": "FS",
      "ScanningSequence": "EP",
      "SequenceName": "epfid2d1_104",
      "SequenceVariant": [
        "SK",
        "SS"
],
      "SeriesDescription": "func_task-mario_run-03",
      "SeriesNumber": 16,
      "SeriesTime": "112519.026000",
      "SliceLocation": -64.197658514779,
      "SliceThickness": 2.0,
      "SmallestImagePixelValue": 0,
      "SoftwareVersions": "syngo MR E11",
      "SpacingBetweenSlices": 1.9999999892965,
      "SpecificCharacterSet": "ISO_IR 100",
      "StudyID": "1",
      "StudyTime": "101933.909000",
      "TransmitCoilName": "Body",
      "VariableFlipAngleFlag": "N",
      "WindowCenterWidthExplanation": "Algo1",
      "dBdt": 0.0},
    "slices": {}
  },
  "time": {
    "samples": {
      "AcquisitionNumber": [1, 2, 3, 4, 5, 6, 7, 8, 9, 10, 11, 12, 13, 14, 15, 16, 17, 18, 19, 20, 21, 22, 23, 24, 25, 26, 27, 28, 29, 30, 31, 32, 33, 34, 35, 36, 37, 38, 39, 40, 41, 42, 43, 44, 45, 46, 47, 48, 49, 50, 51, 52, 53, 54, 55, 56, 57, 58, 59, 60, 61, 62, 63, 64, 65, 66, 67, 68, 69, 70, 71, 72, 73, 74, 75, 76, 77, 78, 79, 80, 81, 82, 83, 84, 85, 86, 87, 88, 89, 90, 91, 92, 93, 94, 95, 96, 97, 98, 99, 100, 101, 102, 103, 104, 105, 106, 107, 108, 109, 110, 111, 112, 113, 114, 115, 116, 117, 118, 119, 120, 121, 122, 123, 124, 125, 126, 127, 128, 129, 130, 131, 132, 133, 134, 135, 136, 137, 138, 139, 140, 141, 142, 143, 144, 145, 146, 147, 148, 149, 150, 151, 152, 153, 154, 155, 156, 157, 158, 159, 160, 161, 162, 163, 164, 165, 166, 167, 168, 169, 170, 171, 172, 173, 174, 175, 176, 177, 178, 179, 180, 181, 182, 183, 184, 185, 186, 187, 188, 189, 190, 191, 192, 193, 194, 195, 196, 197, 198, 199, 200, 201, 202, 203, 204, 205, 206, 207, 208, 209, 210, 211, 212, 213, 214, 215, 216, 217, 218, 219, 220, 221, 222, 223, 224, 225, 226, 227, 228, 229, 230, 231, 232, 233, 234, 235, 236, 237, 238, 239, 240, 241, 242, 243, 244, 245, 246, 247, 248, 249, 250, 251, 252, 253, 254, 255, 256, 257, 258, 259, 260, 261, 262, 263, 264, 265, 266, 267, 268, 269, 270, 271, 272, 273, 274, 275, 276, 277, 278, 279, 280, 281, 282, 283, 284, 285, 286, 287, 288, 289, 290, 291, 292, 293, 294, 295, 296, 297, 298, 299, 300, 301, 302, 303, 304, 305, 306, 307, 308, 309, 310, 311, 312, 313, 314, 315, 316, 317, 318, 319, 320, 321, 322, 323, 324, 325, 326, 327, 328, 329, 330, 331, 332, 333, 334, 335, 336, 337, 338, 339, 340, 341, 342, 343, 344, 345, 346, 347, 348, 349, 350, 351, 352, 353, 354, 355, 356, 357, 358, 359, 360, 361, 362, 363, 364, 365, 366, 367, 368, 369, 370, 371, 372, 373, 374, 375, 376, 377, 378, 379, 380, 381, 382, 383, 384, 385, 386, 387, 388, 389, 390, 391, 392, 393, 394, 395, 396, 397, 398, 399, 400, 401, 402, 403, 404, 405, 406, 407, 408, 409, 410, 411, 412, 413, 414, 415, 416, 417, 418, 419, 420, 421, 422, 423, 424, 425, 426, 427, 428, 429, 430, 431, 432, 433, 434, 435, 436, 437, 438, 439, 440, 441, 442, 443, 444, 445, 446, 447, 448, 449, 450, 451, 452, 453, 454, 455, 456, 457, 458, 459, 460, 461, 462, 463, 464, 465, 466, 467, 468, 469, 470, 471, 472, 473, 474, 475, 476, 477, 478, 479, 480, 481, 482, 483, 484, 485, 486, 487, 488, 489, 490, 491, 492, 493, 494, 495, 496],
      "AcquisitionTime": ["112351.087500", "112352.577500", "112354.067500", "112355.557500", "112357.047500", "112358.537500", "112400.027500", "112401.517500", "112403.007500", "112404.497500", "112405.987500", "112407.477500", "112408.967500", "112410.457500", "112411.947500", "112413.437500", "112414.927500", "112416.417500", "112417.907500", "112419.397500", "112420.887500", "112422.377500", "112423.867500", "112425.357500", "112426.847500", "112428.337500", "112429.827500", "112431.317500", "112432.807500", "112434.297500", "112435.787500", "112437.277500", "112438.767500", "112440.257500", "112441.747500", "112443.237500", "112444.727500", "112446.217500", "112447.707500", "112449.197500", "112450.687500", "112452.177500", "112453.667500", "112455.157500", "112456.647500", "112458.137500", "112459.627500", "112501.117500", "112502.607500", "112504.097500", "112505.587500", "112507.077500", "112508.567500", "112510.057500", "112511.547500", "112513.037500", "112514.527500", "112516.017500", "112517.507500", "112518.997500", "112520.487500", "112521.977500", "112523.467500", "112524.957500", "112526.447500", "112527.937500", "112529.427500", "112530.917500", "112532.407500", "112533.897500", "112535.387500", "112536.877500", "112538.367500", "112539.857500", "112541.347500", "112542.837500", "112544.327500", "112545.817500", "112547.307500", "112548.797500", "112550.287500", "112551.777500", "112553.267500", "112554.757500", "112556.247500", "112557.737500", "112559.227500", "112600.717500", "112602.207500", "112603.697500", "112605.187500", "112606.677500", "112608.167500", "112609.657500", "112611.147500", "112612.637500", "112614.127500", "112615.617500", "112617.107500", "112618.597500", "112620.087500", "112621.577500", "112623.067500", "112624.557500", "112626.047500", "112627.537500", "112629.027500", "112630.517500", "112632.007500", "112633.497500", "112634.987500", "112636.477500", "112637.967500", "112639.457500", "112640.947500", "112642.437500", "112643.927500", "112645.417500", "112646.907500", "112648.397500", "112649.887500", "112651.377500", "112652.867500", "112654.357500", "112655.847500", "112657.337500", "112658.827500", "112700.317500", "112701.807500", "112703.297500", "112704.787500", "112706.277500", "112707.767500", "112709.257500", "112710.747500", "112712.237500", "112713.727500", "112715.217500", "112716.707500", "112718.197500", "112719.687500", "112721.177500", "112722.667500", "112724.157500", "112725.647500", "112727.137500", "112728.627500", "112730.117500", "112731.607500", "112733.097500", "112734.587500", "112736.077500", "112737.567500", "112739.057500", "112740.547500", "112742.037500", "112743.527500", "112745.017500", "112746.507500", "112747.997500", "112749.487500", "112750.977500", "112752.467500", "112753.957500", "112755.447500", "112756.937500", "112758.427500", "112759.917500", "112801.407500", "112802.897500", "112804.387500", "112805.877500", "112807.367500", "112808.857500", "112810.347500", "112811.837500", "112813.327500", "112814.817500", "112816.307500", "112817.797500", "112819.287500", "112820.777500", "112822.267500", "112823.757500", "112825.247500", "112826.737500", "112828.227500", "112829.717500", "112831.207500", "112832.697500", "112834.187500", "112835.677500", "112837.167500", "112838.657500", "112840.147500", "112841.637500", "112843.127500", "112844.617500", "112846.107500", "112847.597500", "112849.087500", "112850.577500", "112852.067500", "112853.557500", "112855.047500", "112856.537500", "112858.027500", "112859.517500", "112901.007500", "112902.497500", "112903.987500", "112905.477500", "112906.967500", "112908.457500", "112909.947500", "112911.437500", "112912.927500", "112914.417500", "112915.907500", "112917.397500", "112918.887500", "112920.377500", "112921.867500", "112923.357500", "112924.847500", "112926.337500", "112927.827500", "112929.317500", "112930.807500", "112932.297500", "112933.787500", "112935.277500", "112936.767500", "112938.257500", "112939.747500", "112941.237500", "112942.727500", "112944.217500", "112945.707500", "112947.197500", "112948.687500", "112950.177500", "112951.667500", "112953.157500", "112954.647500", "112956.137500", "112957.627500", "112959.117500", "113000.607500", "113002.097500", "113003.587500", "113005.077500", "113006.567500", "113008.057500", "113009.547500", "113011.037500", "113012.527500", "113014.017500", "113015.507500", "113016.997500", "113018.487500", "113019.977500", "113021.467500", "113022.957500", "113024.447500", "113025.937500", "113027.427500", "113028.917500", "113030.407500", "113031.897500", "113033.387500", "113034.877500", "113036.367500", "113037.857500", "113039.347500", "113040.837500", "113042.327500", "113043.817500", "113045.307500", "113046.797500", "113048.287500", "113049.777500", "113051.267500", "113052.757500", "113054.247500", "113055.737500", "113057.227500", "113058.717500", "113100.207500", "113101.697500", "113103.187500", "113104.677500", "113106.167500", "113107.657500", "113109.147500", "113110.637500", "113112.127500", "113113.617500", "113115.107500", "113116.597500", "113118.087500", "113119.577500", "113121.067500", "113122.557500", "113124.047500", "113125.537500", "113127.027500", "113128.517500", "113130.007500", "113131.497500", "113132.987500", "113134.477500", "113135.967500", "113137.457500", "113138.947500", "113140.437500", "113141.927500", "113143.417500", "113144.907500", "113146.397500", "113147.887500", "113149.377500", "113150.867500", "113152.357500", "113153.847500", "113155.337500", "113156.827500", "113158.317500", "113159.807500", "113201.297500", "113202.787500", "113204.277500", "113205.767500", "113207.257500", "113208.747500", "113210.237500", "113211.727500", "113213.217500", "113214.707500", "113216.197500", "113217.687500", "113219.177500", "113220.667500", "113222.157500", "113223.647500", "113225.137500", "113226.627500", "113228.117500", "113229.607500", "113231.097500", "113232.587500", "113234.077500", "113235.567500", "113237.057500", "113238.547500", "113240.037500", "113241.527500", "113243.017500", "113244.507500", "113245.997500", "113247.487500", "113248.977500", "113250.467500", "113251.957500", "113253.447500", "113254.937500", "113256.427500", "113257.917500", "113259.407500", "113300.897500", "113302.387500", "113303.877500", "113305.367500", "113306.857500", "113308.347500", "113309.837500", "113311.327500", "113312.817500", "113314.307500", "113315.797500", "113317.287500", "113318.777500", "113320.267500", "113321.757500", "113323.247500", "113324.737500", "113326.227500", "113327.717500", "113329.207500", "113330.697500", "113332.187500", "113333.677500", "113335.167500", "113336.657500", "113338.147500", "113339.637500", "113341.127500", "113342.617500", "113344.107500", "113345.597500", "113347.087500", "113348.577500", "113350.067500", "113351.557500", "113353.047500", "113354.537500", "113356.027500", "113357.517500", "113359.007500", "113400.497500", "113401.987500", "113403.477500", "113404.967500", "113406.457500", "113407.947500", "113409.437500", "113410.927500", "113412.417500", "113413.907500", "113415.397500", "113416.887500", "113418.377500", "113419.867500", "113421.357500", "113422.847500", "113424.337500", "113425.827500", "113427.317500", "113428.807500", "113430.297500", "113431.787500", "113433.277500", "113434.767500", "113436.257500", "113437.747500", "113439.237500", "113440.727500", "113442.217500", "113443.707500", "113445.197500", "113446.687500", "113448.177500", "113449.667500", "113451.157500", "113452.647500", "113454.137500", "113455.627500", "113457.117500", "113458.607500", "113500.097500", "113501.587500", "113503.077500", "113504.567500", "113506.057500", "113507.547500", "113509.037500", "113510.527500", "113512.017500", "113513.507500", "113514.997500", "113516.487500", "113517.977500", "113519.467500", "113520.957500", "113522.447500", "113523.937500", "113525.427500", "113526.917500", "113528.407500", "113529.897500", "113531.387500", "113532.877500", "113534.367500", "113535.857500", "113537.347500", "113538.837500", "113540.327500", "113541.817500", "113543.307500", "113544.797500", "113546.287500", "113547.777500", "113549.267500", "113550.757500", "113552.247500", "113553.737500", "113555.227500", "113556.717500", "113558.207500", "113559.697500", "113601.187500", "113602.677500", "113604.167500", "113605.657500", "113607.147500", "113608.637500"],
      "ContentTime": ["112519.029000", "112519.033000", "112519.036000", "112519.039000", "112519.047000", "112519.050000", "112519.067000", "112519.070000", "112519.083000", "112519.087000", "112519.090000", "112519.093000", "112519.097000", "112519.100000", "112519.103000", "112519.107000", "112519.110000", "112519.113000", "112519.117000", "112519.120000", "112519.123000", "112519.127000", "112519.130000", "112519.133000", "112519.136000", "112519.140000", "112519.143000", "112519.146000", "112519.150000", "112519.153000", "112519.156000", "112519.160000", "112519.163000", "112519.166000", "112538.998000", "112539.003000", "112539.007000", "112539.010000", "112539.013000", "112539.016000", "112539.020000", "112539.023000", "112539.026000", "112539.030000", "112539.033000", "112539.036000", "112539.040000", "112539.043000", "112539.046000", "112539.050000", "112539.053000", "112539.066000", "112539.070000", "112539.073000", "112539.076000", "112558.998000", "112559.003000", "112559.006000", "112559.009000", "112559.013000", "112559.016000", "112559.019000", "112559.023000", "112559.026000", "112559.029000", "112559.033000", "112559.036000", "112559.039000", "112559.043000", "112559.046000", "112559.049000", "112559.053000", "112559.056000", "112559.059000", "112559.063000", "112618.998000", "112619.003000", "112619.006000", "112619.010000", "112619.013000", "112619.016000", "112619.020000", "112619.023000", "112619.026000", "112619.030000", "112619.033000", "112619.036000", "112619.040000", "112619.043000", "112619.046000", "112619.049000", "112619.053000", "112619.056000", "112619.059000", "112619.063000", "112658.997000", "112659.002000", "112659.005000", "112659.009000", "112659.012000", "112659.016000", "112659.019000", "112659.022000", "112659.026000", "112659.029000", "112659.032000", "112659.036000", "112659.039000", "112659.042000", "112659.046000", "112659.049000", "112659.052000", "112659.056000", "112659.059000", "112659.074000", "112659.077000", "112659.081000", "112659.084000", "112659.087000", "112659.091000", "112659.094000", "112659.097000", "112659.100000", "112659.104000", "112659.107000", "112738.997000", "112739.002000", "112739.005000", "112739.008000", "112739.012000", "112739.015000", "112739.018000", "112739.022000", "112739.025000", "112739.028000", "112739.032000", "112739.035000", "112739.039000", "112739.042000", "112739.045000", "112739.048000", "112739.052000", "112739.055000", "112739.058000", "112739.062000", "112739.065000", "112739.068000", "112739.072000", "112739.075000", "112739.078000", "112739.082000", "112739.085000", "112818.998000", "112819.004000", "112819.007000", "112819.011000", "112819.014000", "112819.017000", "112819.021000", "112819.024000", "112819.028000", "112819.031000", "112819.034000", "112819.038000", "112819.041000", "112819.044000", "112819.048000", "112819.051000", "112819.055000", "112819.058000", "112819.062000", "112819.065000", "112819.068000", "112819.072000", "112819.075000", "112819.078000", "112819.082000", "112819.085000", "112819.088000", "112858.998000", "112859.017000", "112859.020000", "112859.023000", "112859.035000", "112859.038000", "112859.041000", "112859.045000", "112859.048000", "112859.052000", "112859.055000", "112859.058000", "112859.062000", "112859.065000", "112859.068000", "112859.072000", "112859.075000", "112859.078000", "112859.082000", "112859.085000", "112859.088000", "112859.091000", "112859.095000", "112859.098000", "112859.101000", "112859.105000", "112859.108000", "112938.997000", "112939.001000", "112939.004000", "112939.008000", "112939.011000", "112939.014000", "112939.018000", "112939.042000", "112939.046000", "112939.049000", "112939.052000", "112939.056000", "112939.059000", "112939.062000", "112939.067000", "112939.070000", "112939.074000", "112939.077000", "112939.081000", "112939.084000", "112939.087000", "112939.090000", "112939.094000", "112939.097000", "112939.100000", "112939.104000", "113018.998000", "113019.003000", "113019.006000", "113019.010000", "113019.013000", "113019.016000", "113019.020000", "113019.023000", "113019.027000", "113019.030000", "113019.033000", "113019.037000", "113019.040000", "113019.043000", "113019.047000", "113019.050000", "113019.053000", "113019.057000", "113019.060000", "113019.063000", "113019.067000", "113019.070000", "113019.073000", "113019.077000", "113019.080000", "113019.083000", "113019.087000", "113058.998000", "113059.003000", "113059.006000", "113059.009000", "113059.013000", "113059.016000", "113059.020000", "113059.023000", "113059.026000", "113059.030000", "113059.033000", "113059.036000", "113059.040000", "113059.043000", "113059.046000", "113059.050000", "113059.053000", "113059.056000", "113059.060000", "113059.063000", "113059.066000", "113059.076000", "113059.080000", "113059.089000", "113059.093000", "113059.096000", "113059.099000", "113138.997000", "113139.002000", "113139.006000", "113139.009000", "113139.012000", "113139.015000", "113139.019000", "113139.022000", "113139.026000", "113139.039000", "113139.042000", "113139.046000", "113139.049000", "113139.052000", "113139.056000", "113139.059000", "113139.062000", "113139.066000", "113139.069000", "113139.072000", "113139.075000", "113139.079000", "113139.099000", "113139.102000", "113139.106000", "113139.109000", "113139.112000", "113218.997000", "113219.002000", "113219.005000", "113219.009000", "113219.012000", "113219.016000", "113219.019000", "113219.022000", "113219.026000", "113219.029000", "113219.033000", "113219.036000", "113219.039000", "113219.043000", "113219.046000", "113219.050000", "113219.062000", "113219.065000", "113219.068000", "113219.072000", "113219.075000", "113219.078000", "113219.082000", "113219.085000", "113219.089000", "113219.092000", "113219.095000", "113258.998000", "113259.003000", "113259.006000", "113259.010000", "113259.013000", "113259.016000", "113259.020000", "113259.023000", "113259.026000", "113259.030000", "113259.033000", "113259.037000", "113259.040000", "113259.043000", "113259.047000", "113259.050000", "113259.053000", "113259.057000", "113259.060000", "113259.063000", "113259.067000", "113259.070000", "113259.074000", "113259.077000", "113259.080000", "113259.083000", "113259.087000", "113338.998000", "113339.003000", "113339.006000", "113339.010000", "113339.013000", "113339.017000", "113339.020000", "113339.025000", "113339.028000", "113339.032000", "113339.035000", "113339.038000", "113339.042000", "113339.045000", "113339.048000", "113339.058000", "113339.062000", "113339.065000", "113339.068000", "113339.072000", "113339.075000", "113339.079000", "113339.082000", "113339.086000", "113339.091000", "113339.094000", "113419.015000", "113419.018000", "113419.022000", "113419.025000", "113419.028000", "113419.032000", "113419.035000", "113419.038000", "113419.042000", "113419.045000", "113419.048000", "113419.052000", "113419.055000", "113419.058000", "113419.062000", "113419.065000", "113419.068000", "113419.072000", "113419.075000", "113419.078000", "113419.082000", "113419.085000", "113419.088000", "113419.091000", "113419.095000", "113419.098000", "113419.116000", "113458.998000", "113459.003000", "113459.006000", "113459.010000", "113459.013000", "113459.016000", "113459.020000", "113459.023000", "113459.026000", "113459.030000", "113459.033000", "113459.036000", "113459.040000", "113459.043000", "113459.046000", "113459.050000", "113459.053000", "113459.056000", "113459.060000", "113459.063000", "113459.066000", "113459.069000", "113459.073000", "113459.076000", "113459.079000", "113459.083000", "113459.086000", "113538.998000", "113539.003000", "113539.006000", "113539.009000", "113539.013000", "113539.016000", "113539.020000", "113539.023000", "113539.026000", "113539.030000", "113539.033000", "113539.036000", "113539.040000", "113539.043000", "113539.046000", "113539.049000", "113539.053000", "113539.056000", "113539.059000", "113539.063000", "113539.066000", "113539.069000", "113539.073000", "113539.076000", "113539.079000", "113539.083000", "113539.086000", "113612.472000", "113612.475000", "113612.479000", "113612.482000", "113612.485000", "113612.489000", "113612.492000", "113612.495000", "113612.499000", "113612.502000", "113612.505000", "113612.509000", "113612.512000", "113612.515000", "113612.531000", "113612.535000", "113612.538000", "113612.541000", "113612.545000", "113612.548000", "113612.552000", "113612.555000"],
