{
  "AcquisitionMatrixPE": 104,
  "AcquisitionNumber": 1,
  "AcquisitionTime": "14:25:25.825000",
  "BandwidthPerPixelPhaseEncode": 17.17,
  "BaseResolution": 104,
  "BodyPartExamined": "BRAIN",
  "CoilString": "HC1-7;NC1_2",
  "ConsistencyInfo": "N4_VE11C_LATEST_20160120",
  "ConversionSoftware": "dcm2niix",
  "ConversionSoftwareVersion": "v1.0.20190902",
  "DerivedVendorReportedEchoSpacing": 0.000560011,
  "DeviceSerialNumber": "167006",
  "DwellTime": 2.1e-06,
  "EchoTime": 0.037,
  "EchoTrainLength": 104,
  "EffectiveEchoSpacing": 0.000560011,
  "FlipAngle": 52,
  "HeudiconvVersion": "0.10.0",
  "ImageComments": "Unaliased_MB4_PE3_LB",
  "ImageOrientationPatientDICOM": [0.999846, 0.0135674, 0.0111374, -0.00628228, 0.869053, -0.494679],
  "ImageType": [
    "ORIGINAL",
    "PRIMARY",
    "P",
    "MB",
    "ND",
    "MOSAIC"
],
  "ImagingFrequency": 123.259,
  "InPlanePhaseEncodingDirectionDICOM": "COL",
  "InstitutionAddress": "Chemin_Queen-Mary_4565_Montreal_District_CA_H3W_1W5",
  "InstitutionName": "IUGM",
  "InstitutionalDepartmentName": "Department",
  "MRAcquisitionType": "2D",
  "MagneticFieldStrength": 3,
  "Manufacturer": "Siemens",
  "ManufacturersModelName": "Prisma_fit",
  "Modality": "MR",
  "MultibandAccelerationFactor": 4,
  "PartialFourier": 1,
  "PatientPosition": "HFS",
  "PercentPhaseFOV": 100,
  "PhaseEncodingDirection": "j",
  "PhaseEncodingSteps": 104,
  "PhaseResolution": 1,
  "PixelBandwidth": 2290,
  "ProcedureStepDescription": "games_mario",
  "ProtocolName": "func_task-mario_run-03",
  "PulseSequenceDetails": "%CustomerSeq%_cmrr_mbep2d_bold",
  "ReceiveCoilActiveElements": "HC1-7;NC1,2",
  "ReceiveCoilName": "HeadNeck_64",
  "ReconMatrixPE": 104,
  "RepetitionTime": 1.49,
  "SAR": 0.0538722,
  "ScanOptions": "FS",
  "ScanningSequence": "EP",
  "SequenceName": "epfid2d1_104",
  "SequenceVariant": "SK_SS",
  "SeriesDescription": "func_task-mario_run-03",
  "SeriesNumber": 25,
  "ShimSetting": [607, -7193, -8848, 313, 14, -192, -45, -41],
  "SliceThickness": 2,
  "SliceTiming": [0, 0.785, 0.1, 0.8825, 0.1975, 0.98, 0.295, 1.08, 0.3925, 1.1775, 0.49, 1.275, 0.59, 1.3725, 0.6875, 0, 0.785, 0.1, 0.8825, 0.1975, 0.98, 0.295, 1.08, 0.3925, 1.1775, 0.49, 1.275, 0.59, 1.3725, 0.6875, 0, 0.785, 0.1, 0.8825, 0.1975, 0.98, 0.295, 1.08, 0.3925, 1.1775, 0.49, 1.275, 0.59, 1.3725, 0.6875, 0, 0.785, 0.1, 0.8825, 0.1975, 0.98, 0.295, 1.08, 0.3925, 1.1775, 0.49, 1.275, 0.59, 1.3725, 0.6875],
  "SoftwareVersions": "syngo_MR_E11",
  "SpacingBetweenSlices": 2,
  "StationName": "MRC35049",
  "TaskName": "mario",
  "TotalReadoutTime": 0.0576811,
  "TxRefAmp": 281.608,
  "WipMemBlock": "e068a992-f29d-4114-8415-c60d377c44fb||Sequence: R016 ve11c/master r/e634e98; Dec 19 2017 11:00:25 by eja",
  "dcmmeta_affine": [
    [-1.9996918439865112, -0.01256456971168518, 0.0327809676527977, 107.13866424560547],
    [-0.02713472954928875, 1.7381057739257812, -0.9890661835670471, -50.75491714477539],
    [0.0222748015075922, 0.9893585443496704, 1.7380084991455078, -86.13307189941406],
    [0.0, 0.0, 0.0, 1.0]
],
  "dcmmeta_reorient_transform": [
    [0.0, -1.0, 0.0, 103.0],
    [1.0, 0.0, 0.0, 0.0],
    [0.0, 0.0, 1.0, 0.0],
    [0.0, 0.0, 0.0, 1.0]
],
  "dcmmeta_shape": [104, 104, 60, 458],
  "dcmmeta_slice_dim": 2,
  "dcmmeta_version": 0.6,
  "global": {
    "const": {
      "AcquisitionMatrix": [104, 0, 0, 104],
      "AngioFlag": "N",
      "BitsAllocated": 16,
      "BitsStored": 16,
      "BodyPartExamined": "BRAIN",
      "Columns": 832,
      "EchoNumbers": 1,
      "EchoTime": 37.0,
      "EchoTrainLength": 104,
      "FlipAngle": 52.0,
      "HighBit": 15,
      "ImageOrientationPatient": [0.99984593059024, 0.0135673650212, 0.01113740043809, -0.0062822847365, 0.86905290421095, -0.4946792724392],
      "ImagePositionPatient": [-829.15885053088, -770.8175382138, 367.7893394886],
      "ImageType": [
        "ORIGINAL",
        "PRIMARY",
        "P",
        "MB",
        "ND",
        "MOSAIC"
],
      "ImagedNucleus": "1H",
      "ImagingFrequency": 123.258936,
      "InPlanePhaseEncodingDirection": "COL",
      "LargestImagePixelValue": 4095,
      "MRAcquisitionType": "2D",
      "MagneticFieldStrength": 3.0,
      "Manufacturer": "SIEMENS",
      "ManufacturerModelName": "Prisma_fit",
      "Modality": "MR",
      "NumberOfAverages": 1.0,
      "NumberOfPhaseEncodingSteps": 104,
      "PercentPhaseFieldOfView": 100.0,
      "PercentSampling": 100.0,
      "PerformedProcedureStepStartTime": "133450.959000",
      "PhotometricInterpretation": "MONOCHROME2",
      "PixelBandwidth": 2290.0,
      "PixelRepresentation": 0,
      "PixelSpacing": [2.0, 2.0],
      "ProtocolName": "func_task-mario_run-03",
      "RepetitionTime": 1490.0,
      "RescaleIntercept": -4096.0,
      "RescaleSlope": 2.0,
      "RescaleType": "US",
      "Rows": 832,
      "SAR": 0.05387222560139,
      "SamplesPerPixel": 1,
      "ScanOptions": "FS",
      "ScanningSequence": "EP",
      "SequenceName": "epfid2d1_104",
      "SequenceVariant": [
        "SK",
        "SS"
],
      "SeriesDescription": "func_task-mario_run-03",
      "SeriesNumber": 25,
      "SeriesTime": "142646.738000",
      "SliceLocation": -47.993966276359,
      "SliceThickness": 2.0,
      "SmallestImagePixelValue": 0,
      "SoftwareVersions": "syngo MR E11",
      "SpacingBetweenSlices": 1.999999979527,
      "SpecificCharacterSet": "ISO_IR 100",
      "StudyID": "1",
      "StudyTime": "133450.847000",
      "TransmitCoilName": "Body",
      "VariableFlipAngleFlag": "N",
      "WindowCenterWidthExplanation": "Algo1",
      "dBdt": 0.0},
    "slices": {}
  },
  "time": {
    "samples": {
      "AcquisitionNumber": [1, 2, 3, 4, 5, 6, 7, 8, 9, 10, 11, 12, 13, 14, 15, 16, 17, 18, 19, 20, 21, 22, 23, 24, 25, 26, 27, 28, 29, 30, 31, 32, 33, 34, 35, 36, 37, 38, 39, 40, 41, 42, 43, 44, 45, 46, 47, 48, 49, 50, 51, 52, 53, 54, 55, 56, 57, 58, 59, 60, 61, 62, 63, 64, 65, 66, 67, 68, 69, 70, 71, 72, 73, 74, 75, 76, 77, 78, 79, 80, 81, 82, 83, 84, 85, 86, 87, 88, 89, 90, 91, 92, 93, 94, 95, 96, 97, 98, 99, 100, 101, 102, 103, 104, 105, 106, 107, 108, 109, 110, 111, 112, 113, 114, 115, 116, 117, 118, 119, 120, 121, 122, 123, 124, 125, 126, 127, 128, 129, 130, 131, 132, 133, 134, 135, 136, 137, 138, 139, 140, 141, 142, 143, 144, 145, 146, 147, 148, 149, 150, 151, 152, 153, 154, 155, 156, 157, 158, 159, 160, 161, 162, 163, 164, 165, 166, 167, 168, 169, 170, 171, 172, 173, 174, 175, 176, 177, 178, 179, 180, 181, 182, 183, 184, 185, 186, 187, 188, 189, 190, 191, 192, 193, 194, 195, 196, 197, 198, 199, 200, 201, 202, 203, 204, 205, 206, 207, 208, 209, 210, 211, 212, 213, 214, 215, 216, 217, 218, 219, 220, 221, 222, 223, 224, 225, 226, 227, 228, 229, 230, 231, 232, 233, 234, 235, 236, 237, 238, 239, 240, 241, 242, 243, 244, 245, 246, 247, 248, 249, 250, 251, 252, 253, 254, 255, 256, 257, 258, 259, 260, 261, 262, 263, 264, 265, 266, 267, 268, 269, 270, 271, 272, 273, 274, 275, 276, 277, 278, 279, 280, 281, 282, 283, 284, 285, 286, 287, 288, 289, 290, 291, 292, 293, 294, 295, 296, 297, 298, 299, 300, 301, 302, 303, 304, 305, 306, 307, 308, 309, 310, 311, 312, 313, 314, 315, 316, 317, 318, 319, 320, 321, 322, 323, 324, 325, 326, 327, 328, 329, 330, 331, 332, 333, 334, 335, 336, 337, 338, 339, 340, 341, 342, 343, 344, 345, 346, 347, 348, 349, 350, 351, 352, 353, 354, 355, 356, 357, 358, 359, 360, 361, 362, 363, 364, 365, 366, 367, 368, 369, 370, 371, 372, 373, 374, 375, 376, 377, 378, 379, 380, 381, 382, 383, 384, 385, 386, 387, 388, 389, 390, 391, 392, 393, 394, 395, 396, 397, 398, 399, 400, 401, 402, 403, 404, 405, 406, 407, 408, 409, 410, 411, 412, 413, 414, 415, 416, 417, 418, 419, 420, 421, 422, 423, 424, 425, 426, 427, 428, 429, 430, 431, 432, 433, 434, 435, 436, 437, 438, 439, 440, 441, 442, 443, 444, 445, 446, 447, 448, 449, 450, 451, 452, 453, 454, 455, 456, 457, 458],
      "AcquisitionTime": ["142525.825000", "142527.315000", "142528.805000", "142530.295000", "142531.785000", "142533.275000", "142534.765000", "142536.255000", "142537.745000", "142539.235000", "142540.725000", "142542.215000", "142543.705000", "142545.195000", "142546.685000", "142548.175000", "142549.665000", "142551.155000", "142552.645000", "142554.135000", "142555.625000", "142557.115000", "142558.605000", "142600.095000", "142601.585000", "142603.075000", "142604.565000", "142606.055000", "142607.545000", "142609.035000", "142610.525000", "142612.015000", "142613.505000", "142614.995000", "142616.485000", "142617.975000", "142619.465000", "142620.955000", "142622.445000", "142623.935000", "142625.425000", "142626.915000", "142628.405000", "142629.895000", "142631.385000", "142632.875000", "142634.365000", "142635.855000", "142637.345000", "142638.835000", "142640.325000", "142641.815000", "142643.305000", "142644.795000", "142646.285000", "142647.775000", "142649.265000", "142650.755000", "142652.245000", "142653.735000", "142655.225000", "142656.715000", "142658.205000", "142659.695000", "142701.185000", "142702.675000", "142704.165000", "142705.655000", "142707.145000", "142708.635000", "142710.125000", "142711.615000", "142713.105000", "142714.595000", "142716.085000", "142717.575000", "142719.065000", "142720.555000", "142722.045000", "142723.535000", "142725.025000", "142726.515000", "142728.005000", "142729.495000", "142730.985000", "142732.475000", "142733.965000", "142735.455000", "142736.945000", "142738.435000", "142739.925000", "142741.415000", "142742.905000", "142744.395000", "142745.885000", "142747.375000", "142748.865000", "142750.355000", "142751.845000", "142753.335000", "142754.825000", "142756.315000", "142757.805000", "142759.295000", "142800.785000", "142802.275000", "142803.765000", "142805.255000", "142806.745000", "142808.235000", "142809.725000", "142811.215000", "142812.705000", "142814.195000", "142815.685000", "142817.175000", "142818.665000", "142820.155000", "142821.645000", "142823.135000", "142824.625000", "142826.115000", "142827.605000", "142829.095000", "142830.585000", "142832.075000", "142833.565000", "142835.055000", "142836.545000", "142838.035000", "142839.525000", "142841.015000", "142842.505000", "142843.995000", "142845.485000", "142846.975000", "142848.465000", "142849.955000", "142851.445000", "142852.935000", "142854.425000", "142855.915000", "142857.405000", "142858.895000", "142900.385000", "142901.875000", "142903.365000", "142904.855000", "142906.345000", "142907.835000", "142909.325000", "142910.815000", "142912.305000", "142913.795000", "142915.285000", "142916.775000", "142918.265000", "142919.755000", "142921.245000", "142922.735000", "142924.225000", "142925.715000", "142927.205000", "142928.695000", "142930.185000", "142931.675000", "142933.165000", "142934.655000", "142936.145000", "142937.635000", "142939.125000", "142940.615000", "142942.105000", "142943.595000", "142945.085000", "142946.575000", "142948.065000", "142949.555000", "142951.045000", "142952.535000", "142954.025000", "142955.515000", "142957.005000", "142958.495000", "142959.985000", "143001.475000", "143002.965000", "143004.455000", "143005.945000", "143007.435000", "143008.925000", "143010.415000", "143011.905000", "143013.395000", "143014.885000", "143016.375000", "143017.865000", "143019.355000", "143020.845000", "143022.335000", "143023.825000", "143025.315000", "143026.805000", "143028.295000", "143029.785000", "143031.275000", "143032.765000", "143034.255000", "143035.745000", "143037.235000", "143038.725000", "143040.215000", "143041.705000", "143043.195000", "143044.685000", "143046.175000", "143047.665000", "143049.155000", "143050.645000", "143052.135000", "143053.625000", "143055.115000", "143056.605000", "143058.095000", "143059.585000", "143101.075000", "143102.565000", "143104.055000", "143105.545000", "143107.035000", "143108.525000", "143110.015000", "143111.505000", "143112.995000", "143114.485000", "143115.975000", "143117.465000", "143118.955000", "143120.445000", "143121.935000", "143123.425000", "143124.915000", "143126.405000", "143127.895000", "143129.385000", "143130.875000", "143132.365000", "143133.855000", "143135.345000", "143136.835000", "143138.325000", "143139.815000", "143141.305000", "143142.795000", "143144.285000", "143145.775000", "143147.265000", "143148.755000", "143150.245000", "143151.735000", "143153.225000", "143154.715000", "143156.205000", "143157.695000", "143159.185000", "143200.675000", "143202.165000", "143203.655000", "143205.145000", "143206.635000", "143208.125000", "143209.615000", "143211.105000", "143212.595000", "143214.085000", "143215.575000", "143217.065000", "143218.555000", "143220.045000", "143221.535000", "143223.025000", "143224.515000", "143226.005000", "143227.495000", "143228.985000", "143230.475000", "143231.965000", "143233.455000", "143234.945000", "143236.435000", "143237.925000", "143239.415000", "143240.905000", "143242.395000", "143243.885000", "143245.375000", "143246.865000", "143248.355000", "143249.845000", "143251.335000", "143252.825000", "143254.315000", "143255.805000", "143257.295000", "143258.785000", "143300.275000", "143301.765000", "143303.255000", "143304.745000", "143306.235000", "143307.725000", "143309.215000", "143310.705000", "143312.195000", "143313.685000", "143315.175000", "143316.665000", "143318.155000", "143319.645000", "143321.135000", "143322.625000", "143324.115000", "143325.605000", "143327.095000", "143328.585000", "143330.075000", "143331.565000", "143333.055000", "143334.545000", "143336.035000", "143337.525000", "143339.015000", "143340.505000", "143341.995000", "143343.485000", "143344.975000", "143346.465000", "143347.955000", "143349.445000", "143350.935000", "143352.425000", "143353.915000", "143355.405000", "143356.895000", "143358.385000", "143359.875000", "143401.365000", "143402.855000", "143404.345000", "143405.835000", "143407.325000", "143408.815000", "143410.305000", "143411.795000", "143413.285000", "143414.775000", "143416.265000", "143417.755000", "143419.245000", "143420.735000", "143422.225000", "143423.715000", "143425.205000", "143426.695000", "143428.185000", "143429.675000", "143431.165000", "143432.655000", "143434.145000", "143435.635000", "143437.125000", "143438.615000", "143440.105000", "143441.595000", "143443.085000", "143444.575000", "143446.065000", "143447.555000", "143449.045000", "143450.535000", "143452.025000", "143453.515000", "143455.005000", "143456.495000", "143457.985000", "143459.475000", "143500.965000", "143502.455000", "143503.945000", "143505.435000", "143506.925000", "143508.415000", "143509.905000", "143511.395000", "143512.885000", "143514.375000", "143515.865000", "143517.355000", "143518.845000", "143520.335000", "143521.825000", "143523.315000", "143524.805000", "143526.295000", "143527.785000", "143529.275000", "143530.765000", "143532.255000", "143533.745000", "143535.235000", "143536.725000", "143538.215000", "143539.705000", "143541.195000", "143542.685000", "143544.175000", "143545.665000", "143547.155000", "143548.645000", "143550.135000", "143551.625000", "143553.115000", "143554.605000", "143556.095000", "143557.585000", "143559.075000", "143600.565000", "143602.055000", "143603.545000", "143605.035000", "143606.525000", "143608.015000", "143609.505000", "143610.995000", "143612.485000", "143613.975000", "143615.465000", "143616.955000", "143618.445000", "143619.935000", "143621.425000", "143622.915000", "143624.405000", "143625.895000", "143627.385000", "143628.875000", "143630.365000", "143631.855000", "143633.345000", "143634.835000", "143636.325000", "143637.815000", "143639.305000", "143640.795000", "143642.285000", "143643.775000", "143645.265000", "143646.755000"],
      "ContentTime": ["142646.740000", "142646.743000", "142646.745000", "142646.748000", "142646.750000", "142646.753000", "142646.755000", "142646.758000", "142646.760000", "142646.763000", "142646.765000", "142646.768000", "142646.770000", "142646.772000", "142646.775000", "142646.777000", "142646.780000", "142646.782000", "142646.785000", "142646.787000", "142646.790000", "142646.792000", "142646.795000", "142646.797000", "142646.800000", "142646.802000", "142646.804000", "142646.807000", "142706.680000", "142706.682000", "142706.685000", "142706.687000", "142706.690000", "142706.692000", "142706.695000", "142706.697000", "142706.700000", "142706.702000", "142706.705000", "142706.707000", "142706.710000", "142706.712000", "142706.715000", "142706.717000", "142706.720000", "142706.722000", "142706.725000", "142706.727000", "142726.679000", "142726.682000", "142726.685000", "142726.687000", "142726.690000", "142726.692000", "142726.695000", "142726.697000", "142726.700000", "142726.702000", "142726.705000", "142726.707000", "142726.710000", "142726.712000", "142726.715000", "142726.717000", "142726.720000", "142726.722000", "142726.725000", "142726.727000", "142746.667000", "142746.670000", "142746.672000", "142746.674000", "142746.677000", "142746.680000", "142746.682000", "142746.685000", "142746.687000", "142746.689000", "142746.692000", "142746.694000", "142746.697000", "142746.699000", "142746.702000", "142746.704000", "142746.707000", "142746.709000", "142746.712000", "142746.714000", "142806.660000", "142806.663000", "142806.665000", "142806.668000", "142806.679000", "142806.681000", "142806.684000", "142806.686000", "142806.689000", "142806.692000", "142806.694000", "142806.697000", "142806.700000", "142806.702000", "142806.705000", "142806.707000", "142806.710000", "142806.712000", "142806.715000", "142846.721000", "142846.724000", "142846.726000", "142846.729000", "142846.731000", "142846.734000", "142846.736000", "142846.739000", "142846.741000", "142846.744000", "142846.746000", "142846.749000", "142846.751000", "142846.754000", "142846.756000", "142846.759000", "142846.761000", "142846.764000", "142846.766000", "142846.769000", "142846.772000", "142846.774000", "142846.777000", "142846.779000", "142846.781000", "142846.784000", "142846.786000", "142926.703000", "142926.706000", "142926.708000", "142926.711000", "142926.713000", "142926.716000", "142926.718000", "142926.721000", "142926.724000", "142926.726000", "142926.728000", "142926.731000", "142926.734000", "142926.736000", "142926.739000", "142926.741000", "142926.744000", "142926.746000", "142926.749000", "142926.751000", "142926.754000", "142926.757000", "142926.759000", "142926.762000", "142926.764000", "142926.767000", "142926.769000", "143007.110000", "143007.113000", "143007.115000", "143007.118000", "143007.120000", "143007.123000", "143007.125000", "143007.128000", "143007.130000", "143007.133000", "143007.135000", "143007.138000", "143007.140000", "143007.143000", "143007.145000", "143007.148000", "143007.150000", "143007.153000", "143007.155000", "143007.158000", "143007.160000", "143007.163000", "143007.165000", "143007.168000", "143007.170000", "143007.173000", "143007.175000", "143046.708000", "143046.711000", "143046.713000", "143046.716000", "143046.718000", "143046.721000", "143046.723000", "143046.726000", "143046.728000", "143046.731000", "143046.733000", "143046.736000", "143046.738000", "143046.741000", "143046.743000", "143046.746000", "143046.748000", "143046.751000", "143046.753000", "143046.756000", "143046.758000", "143046.761000", "143046.763000", "143046.766000", "143046.768000", "143046.771000", "143126.703000", "143126.706000", "143126.709000", "143126.711000", "143126.714000", "143126.716000", "143126.719000", "143126.721000", "143126.724000", "143126.726000", "143126.729000", "143126.731000", "143126.734000", "143126.736000", "143126.739000", "143126.741000", "143126.744000", "143126.746000", "143126.749000", "143126.751000", "143126.754000", "143126.756000", "143126.759000", "143126.761000", "143126.764000", "143126.766000", "143126.769000", "143206.706000", "143206.709000", "143206.711000", "143206.714000", "143206.716000", "143206.719000", "143206.722000", "143206.724000", "143206.727000", "143206.729000", "143206.732000", "143206.734000", "143206.737000", "143206.739000", "143206.742000", "143206.745000", "143206.747000", "143206.750000", "143206.752000", "143206.755000", "143206.757000", "143206.760000", "143206.762000", "143206.765000", "143206.767000", "143206.770000", "143206.772000", "143246.702000", "143246.705000", "143246.708000", "143246.710000", "143246.713000", "143246.715000", "143246.718000", "143246.721000", "143246.723000", "143246.726000", "143246.728000", "143246.731000", "143246.733000", "143246.736000", "143246.738000", "143246.741000", "143246.743000", "143246.746000", "143246.748000", "143246.751000", "143246.753000", "143246.756000", "143246.758000", "143246.761000", "143246.763000", "143246.766000", "143246.768000", "143326.704000", "143326.707000", "143326.710000", "143326.712000", "143326.715000", "143326.717000", "143326.720000", "143326.722000", "143326.725000", "143326.727000", "143326.730000", "143326.732000", "143326.735000", "143326.737000", "143326.740000", "143326.742000", "143326.745000", "143326.747000", "143326.750000", "143326.752000", "143326.755000", "143326.757000", "143326.760000", "143326.763000", "143326.765000", "143326.768000", "143326.770000", "143406.701000", "143406.704000", "143406.706000", "143406.709000", "143406.711000", "143406.714000", "143406.716000", "143406.719000", "143406.721000", "143406.724000", "143406.726000", "143406.729000", "143406.732000", "143406.734000", "143406.736000", "143406.739000", "143406.742000", "143406.744000", "143406.747000", "143406.749000", "143406.752000", "143406.754000", "143406.757000", "143406.759000", "143406.762000", "143406.764000", "143406.767000", "143446.693000", "143446.695000", "143446.698000", "143446.706000", "143446.708000", "143446.711000", "143446.713000", "143446.716000", "143446.718000", "143446.721000", "143446.724000", "143446.726000", "143446.729000", "143446.731000", "143446.734000", "143446.736000", "143446.739000", "143446.741000", "143446.744000", "143446.747000", "143446.749000", "143446.752000", "143446.754000", "143446.757000", "143446.759000", "143446.762000", "143526.718000", "143526.721000", "143526.723000", "143526.726000", "143526.729000", "143526.731000", "143526.734000", "143526.737000", "143526.739000", "143526.742000", "143526.744000", "143526.747000", "143526.749000", "143526.752000", "143526.754000", "143526.757000", "143526.759000", "143526.762000", "143526.765000", "143526.767000", "143526.770000", "143526.772000", "143526.775000", "143526.778000", "143526.780000", "143526.783000", "143526.785000", "143606.709000", "143606.712000", "143606.714000", "143606.717000", "143606.719000", "143606.722000", "143606.724000", "143606.727000", "143606.730000", "143606.732000", "143606.735000", "143606.737000", "143606.740000", "143606.742000", "143606.745000", "143606.747000", "143606.750000", "143606.752000", "143606.755000", "143606.757000", "143606.760000", "143606.763000", "143606.765000", "143606.768000", "143606.770000", "143606.773000", "143606.775000", "143646.707000", "143646.709000", "143646.712000", "143646.715000", "143646.717000", "143646.720000", "143646.722000", "143646.725000", "143646.727000", "143646.730000", "143646.733000", "143646.735000", "143646.738000", "143646.740000", "143646.743000", "143646.745000", "143646.748000", "143646.750000", "143646.753000", "143646.756000", "143646.758000", "143646.761000", "143646.763000", "143646.766000", "143646.768000", "143646.771000", "143646.773000", "143649.016000", "143649.019000"],
