{
  "AcquisitionMatrixPE": 104,
  "AcquisitionNumber": 1,
  "AcquisitionTime": "13:58:48.780000",
  "BandwidthPerPixelPhaseEncode": 17.17,
  "BaseResolution": 104,
  "BodyPartExamined": "BRAIN",
  "CoilString": "HC1-7;NC1_2",
  "ConsistencyInfo": "N4_VE11C_LATEST_20160120",
  "ConversionSoftware": "dcm2niix",
  "ConversionSoftwareVersion": "v1.0.20190902",
  "DerivedVendorReportedEchoSpacing": 0.000560011,
  "DeviceSerialNumber": "167006",
  "DwellTime": 2.1e-06,
  "EchoTime": 0.037,
  "EchoTrainLength": 104,
  "EffectiveEchoSpacing": 0.000560011,
  "FlipAngle": 52,
  "HeudiconvVersion": "0.10.0",
  "ImageComments": "Unaliased_MB4_PE3_LB",
  "ImageOrientationPatientDICOM": [0.999846, 0.0135674, 0.0111374, -0.00628228, 0.869053, -0.494679],
  "ImageType": [
    "ORIGINAL",
    "PRIMARY",
    "M",
    "MB",
    "ND",
    "MOSAIC"
],
  "ImagingFrequency": 123.259,
  "InPlanePhaseEncodingDirectionDICOM": "COL",
  "InstitutionAddress": "Chemin_Queen-Mary_4565_Montreal_District_CA_H3W_1W5",
  "InstitutionName": "IUGM",
  "InstitutionalDepartmentName": "Department",
  "MRAcquisitionType": "2D",
  "MagneticFieldStrength": 3,
  "Manufacturer": "Siemens",
  "ManufacturersModelName": "Prisma_fit",
  "Modality": "MR",
  "MultibandAccelerationFactor": 4,
  "PartialFourier": 1,
  "PatientPosition": "HFS",
  "PercentPhaseFOV": 100,
  "PhaseEncodingDirection": "j",
  "PhaseEncodingSteps": 104,
  "PhaseResolution": 1,
  "PixelBandwidth": 2290,
  "ProcedureStepDescription": "games_mario",
  "ProtocolName": "func_task-mario_run-01",
  "PulseSequenceDetails": "%CustomerSeq%_cmrr_mbep2d_bold",
  "ReceiveCoilActiveElements": "HC1-7;NC1,2",
  "ReceiveCoilName": "HeadNeck_64",
  "ReconMatrixPE": 104,
  "RepetitionTime": 1.49,
  "SAR": 0.0538722,
  "ScanOptions": "FS",
  "ScanningSequence": "EP",
  "SequenceName": "epfid2d1_104",
  "SequenceVariant": "SK_SS",
  "SeriesDescription": "func_task-mario_run-01",
  "SeriesNumber": 18,
  "ShimSetting": [607, -7193, -8848, 313, 14, -192, -45, -41],
  "SliceThickness": 2,
  "SliceTiming": [0, 0.7825, 0.0975, 0.88, 0.195, 0.9775, 0.2925, 1.0775, 0.39, 1.175, 0.49, 1.2725, 0.5875, 1.37, 0.685, 0, 0.7825, 0.0975, 0.88, 0.195, 0.9775, 0.2925, 1.0775, 0.39, 1.175, 0.49, 1.2725, 0.5875, 1.37, 0.685, 0, 0.7825, 0.0975, 0.88, 0.195, 0.9775, 0.2925, 1.0775, 0.39, 1.175, 0.49, 1.2725, 0.5875, 1.37, 0.685, 0, 0.7825, 0.0975, 0.88, 0.195, 0.9775, 0.2925, 1.0775, 0.39, 1.175, 0.49, 1.2725, 0.5875, 1.37, 0.685],
  "SoftwareVersions": "syngo_MR_E11",
  "SpacingBetweenSlices": 2,
  "StationName": "MRC35049",
  "TaskName": "mario",
  "TotalReadoutTime": 0.0576811,
  "TxRefAmp": 281.608,
  "WipMemBlock": "931ec946-03ca-4b41-ae34-a47b1d03412d||Sequence: R016 ve11c/master r/e634e98; Dec 19 2017 11:00:25 by eja",
  "dcmmeta_affine": [
    [-1.9996918439865112, -0.01256456971168518, 0.0327809676527977, 107.13866424560547],
    [-0.02713472954928875, 1.7381057739257812, -0.9890661835670471, -50.75491714477539],
    [0.0222748015075922, 0.9893585443496704, 1.7380084991455078, -86.13307189941406],
    [0.0, 0.0, 0.0, 1.0]
],
  "dcmmeta_reorient_transform": [
    [0.0, -1.0, 0.0, 103.0],
    [1.0, 0.0, 0.0, 0.0],
    [0.0, 0.0, 1.0, 0.0],
    [0.0, 0.0, 0.0, 1.0]
],
  "dcmmeta_shape": [104, 104, 60, 443],
  "dcmmeta_slice_dim": 2,
  "dcmmeta_version": 0.6,
  "global": {
    "const": {
      "AcquisitionMatrix": [104, 0, 0, 104],
      "AngioFlag": "N",
      "BitsAllocated": 16,
      "BitsStored": 16,
      "BodyPartExamined": "BRAIN",
      "Columns": 832,
      "EchoNumbers": 1,
      "EchoTime": 37.0,
      "EchoTrainLength": 104,
      "FlipAngle": 52.0,
      "HighBit": 15,
      "ImageOrientationPatient": [0.99984593059024, 0.0135673650212, 0.01113740043809, -0.0062822847365, 0.86905290421095, -0.4946792724392],
      "ImagePositionPatient": [-829.15885053088, -770.8175382138, 367.7893394886],
      "ImageType": [
        "ORIGINAL",
        "PRIMARY",
        "M",
        "MB",
        "ND",
        "MOSAIC"
],
      "ImagedNucleus": "1H",
      "ImagingFrequency": 123.25892,
      "InPlanePhaseEncodingDirection": "COL",
      "MRAcquisitionType": "2D",
      "MagneticFieldStrength": 3.0,
      "Manufacturer": "SIEMENS",
      "ManufacturerModelName": "Prisma_fit",
      "Modality": "MR",
      "NumberOfAverages": 1.0,
      "NumberOfPhaseEncodingSteps": 104,
      "PercentPhaseFieldOfView": 100.0,
      "PercentSampling": 100.0,
      "PerformedProcedureStepStartTime": "133450.959000",
      "PhotometricInterpretation": "MONOCHROME2",
      "PixelBandwidth": 2290.0,
      "PixelRepresentation": 0,
      "PixelSpacing": [2.0, 2.0],
      "ProtocolName": "func_task-mario_run-01",
      "RepetitionTime": 1490.0,
      "Rows": 832,
      "SAR": 0.05387222560139,
      "SamplesPerPixel": 1,
      "ScanOptions": "FS",
      "ScanningSequence": "EP",
      "SequenceName": "epfid2d1_104",
      "SequenceVariant": [
        "SK",
        "SS"
],
      "SeriesDescription": "func_task-mario_run-01",
      "SeriesNumber": 18,
      "SeriesTime": "140024.992000",
      "SliceLocation": -47.993966276359,
      "SliceThickness": 2.0,
      "SmallestImagePixelValue": 0,
      "SoftwareVersions": "syngo MR E11",
      "SpacingBetweenSlices": 1.999999979527,
      "SpecificCharacterSet": "ISO_IR 100",
      "StudyID": "1",
      "StudyTime": "133450.847000",
      "TransmitCoilName": "Body",
      "VariableFlipAngleFlag": "N",
      "WindowCenterWidthExplanation": "Algo1",
      "dBdt": 0.0},
    "slices": {}
  },
  "time": {
    "samples": {
      "AcquisitionNumber": [1, 2, 3, 4, 5, 6, 7, 8, 9, 10, 11, 12, 13, 14, 15, 16, 17, 18, 19, 20, 21, 22, 23, 24, 25, 26, 27, 28, 29, 30, 31, 32, 33, 34, 35, 36, 37, 38, 39, 40, 41, 42, 43, 44, 45, 46, 47, 48, 49, 50, 51, 52, 53, 54, 55, 56, 57, 58, 59, 60, 61, 62, 63, 64, 65, 66, 67, 68, 69, 70, 71, 72, 73, 74, 75, 76, 77, 78, 79, 80, 81, 82, 83, 84, 85, 86, 87, 88, 89, 90, 91, 92, 93, 94, 95, 96, 97, 98, 99, 100, 101, 102, 103, 104, 105, 106, 107, 108, 109, 110, 111, 112, 113, 114, 115, 116, 117, 118, 119, 120, 121, 122, 123, 124, 125, 126, 127, 128, 129, 130, 131, 132, 133, 134, 135, 136, 137, 138, 139, 140, 141, 142, 143, 144, 145, 146, 147, 148, 149, 150, 151, 152, 153, 154, 155, 156, 157, 158, 159, 160, 161, 162, 163, 164, 165, 166, 167, 168, 169, 170, 171, 172, 173, 174, 175, 176, 177, 178, 179, 180, 181, 182, 183, 184, 185, 186, 187, 188, 189, 190, 191, 192, 193, 194, 195, 196, 197, 198, 199, 200, 201, 202, 203, 204, 205, 206, 207, 208, 209, 210, 211, 212, 213, 214, 215, 216, 217, 218, 219, 220, 221, 222, 223, 224, 225, 226, 227, 228, 229, 230, 231, 232, 233, 234, 235, 236, 237, 238, 239, 240, 241, 242, 243, 244, 245, 246, 247, 248, 249, 250, 251, 252, 253, 254, 255, 256, 257, 258, 259, 260, 261, 262, 263, 264, 265, 266, 267, 268, 269, 270, 271, 272, 273, 274, 275, 276, 277, 278, 279, 280, 281, 282, 283, 284, 285, 286, 287, 288, 289, 290, 291, 292, 293, 294, 295, 296, 297, 298, 299, 300, 301, 302, 303, 304, 305, 306, 307, 308, 309, 310, 311, 312, 313, 314, 315, 316, 317, 318, 319, 320, 321, 322, 323, 324, 325, 326, 327, 328, 329, 330, 331, 332, 333, 334, 335, 336, 337, 338, 339, 340, 341, 342, 343, 344, 345, 346, 347, 348, 349, 350, 351, 352, 353, 354, 355, 356, 357, 358, 359, 360, 361, 362, 363, 364, 365, 366, 367, 368, 369, 370, 371, 372, 373, 374, 375, 376, 377, 378, 379, 380, 381, 382, 383, 384, 385, 386, 387, 388, 389, 390, 391, 392, 393, 394, 395, 396, 397, 398, 399, 400, 401, 402, 403, 404, 405, 406, 407, 408, 409, 410, 411, 412, 413, 414, 415, 416, 417, 418, 419, 420, 421, 422, 423, 424, 425, 426, 427, 428, 429, 430, 431, 432, 433, 434, 435, 436, 437, 438, 439, 440, 441, 442, 443],
      "AcquisitionTime": ["135848.780000", "135850.270000", "135851.760000", "135853.250000", "135854.740000", "135856.230000", "135857.720000", "135859.210000", "135900.700000", "135902.190000", "135903.680000", "135905.170000", "135906.660000", "135908.150000", "135909.640000", "135911.130000", "135912.620000", "135914.110000", "135915.600000", "135917.090000", "135918.580000", "135920.070000", "135921.560000", "135923.050000", "135924.540000", "135926.030000", "135927.520000", "135929.010000", "135930.500000", "135931.990000", "135933.480000", "135934.970000", "135936.460000", "135937.950000", "135939.440000", "135940.930000", "135942.420000", "135943.910000", "135945.400000", "135946.890000", "135948.380000", "135949.870000", "135951.360000", "135952.850000", "135954.340000", "135955.830000", "135957.320000", "135958.810000", "140000.300000", "140001.790000", "140003.280000", "140004.770000", "140006.260000", "140007.750000", "140009.240000", "140010.730000", "140012.220000", "140013.710000", "140015.200000", "140016.690000", "140018.180000", "140019.670000", "140021.160000", "140022.650000", "140024.140000", "140025.630000", "140027.120000", "140028.610000", "140030.100000", "140031.590000", "140033.080000", "140034.570000", "140036.060000", "140037.550000", "140039.040000", "140040.530000", "140042.020000", "140043.510000", "140045.000000", "140046.490000", "140047.980000", "140049.470000", "140050.960000", "140052.450000", "140053.940000", "140055.430000", "140056.920000", "140058.410000", "140059.900000", "140101.390000", "140102.880000", "140104.370000", "140105.860000", "140107.350000", "140108.840000", "140110.330000", "140111.820000", "140113.310000", "140114.800000", "140116.290000", "140117.780000", "140119.270000", "140120.760000", "140122.250000", "140123.740000", "140125.230000", "140126.720000", "140128.210000", "140129.700000", "140131.190000", "140132.680000", "140134.170000", "140135.660000", "140137.150000", "140138.640000", "140140.130000", "140141.620000", "140143.110000", "140144.600000", "140146.090000", "140147.580000", "140149.070000", "140150.560000", "140152.050000", "140153.540000", "140155.030000", "140156.520000", "140158.010000", "140159.500000", "140200.990000", "140202.480000", "140203.970000", "140205.460000", "140206.950000", "140208.440000", "140209.930000", "140211.420000", "140212.910000", "140214.400000", "140215.890000", "140217.380000", "140218.870000", "140220.360000", "140221.850000", "140223.340000", "140224.830000", "140226.320000", "140227.810000", "140229.300000", "140230.790000", "140232.280000", "140233.770000", "140235.260000", "140236.750000", "140238.240000", "140239.730000", "140241.220000", "140242.710000", "140244.200000", "140245.690000", "140247.180000", "140248.670000", "140250.160000", "140251.650000", "140253.140000", "140254.630000", "140256.120000", "140257.610000", "140259.100000", "140300.590000", "140302.080000", "140303.570000", "140305.060000", "140306.550000", "140308.040000", "140309.530000", "140311.020000", "140312.510000", "140314.000000", "140315.490000", "140316.980000", "140318.470000", "140319.960000", "140321.450000", "140322.940000", "140324.430000", "140325.920000", "140327.410000", "140328.900000", "140330.390000", "140331.880000", "140333.370000", "140334.860000", "140336.350000", "140337.840000", "140339.330000", "140340.820000", "140342.310000", "140343.800000", "140345.290000", "140346.780000", "140348.270000", "140349.760000", "140351.250000", "140352.740000", "140354.230000", "140355.720000", "140357.210000", "140358.700000", "140400.190000", "140401.680000", "140403.170000", "140404.660000", "140406.150000", "140407.640000", "140409.130000", "140410.620000", "140412.110000", "140413.600000", "140415.090000", "140416.580000", "140418.070000", "140419.560000", "140421.050000", "140422.540000", "140424.030000", "140425.520000", "140427.010000", "140428.500000", "140429.990000", "140431.480000", "140432.970000", "140434.460000", "140435.950000", "140437.440000", "140438.930000", "140440.420000", "140441.910000", "140443.400000", "140444.890000", "140446.380000", "140447.870000", "140449.360000", "140450.850000", "140452.340000", "140453.830000", "140455.320000", "140456.810000", "140458.300000", "140459.790000", "140501.280000", "140502.770000", "140504.260000", "140505.750000", "140507.240000", "140508.730000", "140510.220000", "140511.710000", "140513.200000", "140514.690000", "140516.180000", "140517.670000", "140519.160000", "140520.650000", "140522.140000", "140523.630000", "140525.120000", "140526.610000", "140528.100000", "140529.590000", "140531.080000", "140532.570000", "140534.060000", "140535.550000", "140537.040000", "140538.530000", "140540.020000", "140541.510000", "140543.000000", "140544.490000", "140545.980000", "140547.470000", "140548.960000", "140550.450000", "140551.940000", "140553.430000", "140554.920000", "140556.410000", "140557.900000", "140559.390000", "140600.880000", "140602.370000", "140603.860000", "140605.350000", "140606.840000", "140608.330000", "140609.820000", "140611.310000", "140612.800000", "140614.290000", "140615.780000", "140617.270000", "140618.760000", "140620.250000", "140621.740000", "140623.230000", "140624.720000", "140626.210000", "140627.700000", "140629.190000", "140630.680000", "140632.170000", "140633.660000", "140635.150000", "140636.640000", "140638.130000", "140639.620000", "140641.110000", "140642.600000", "140644.090000", "140645.580000", "140647.070000", "140648.560000", "140650.050000", "140651.540000", "140653.030000", "140654.520000", "140656.010000", "140657.500000", "140658.990000", "140700.480000", "140701.970000", "140703.460000", "140704.950000", "140706.440000", "140707.930000", "140709.420000", "140710.910000", "140712.400000", "140713.890000", "140715.380000", "140716.870000", "140718.360000", "140719.850000", "140721.340000", "140722.830000", "140724.320000", "140725.810000", "140727.300000", "140728.790000", "140730.280000", "140731.770000", "140733.260000", "140734.750000", "140736.240000", "140737.730000", "140739.220000", "140740.710000", "140742.200000", "140743.690000", "140745.180000", "140746.670000", "140748.160000", "140749.650000", "140751.140000", "140752.630000", "140754.120000", "140755.610000", "140757.100000", "140758.590000", "140800.080000", "140801.570000", "140803.060000", "140804.550000", "140806.040000", "140807.530000", "140809.020000", "140810.510000", "140812.000000", "140813.490000", "140814.980000", "140816.470000", "140817.960000", "140819.450000", "140820.940000", "140822.430000", "140823.920000", "140825.410000", "140826.900000", "140828.390000", "140829.880000", "140831.370000", "140832.860000", "140834.350000", "140835.840000", "140837.330000", "140838.820000", "140840.310000", "140841.800000", "140843.290000", "140844.780000", "140846.270000", "140847.760000", "140849.250000", "140850.740000", "140852.230000", "140853.720000", "140855.210000", "140856.700000", "140858.190000", "140859.680000", "140901.170000", "140902.660000", "140904.150000", "140905.640000", "140907.130000", "140908.620000", "140910.110000", "140911.600000", "140913.090000", "140914.580000", "140916.070000", "140917.560000", "140919.050000", "140920.540000", "140922.030000", "140923.520000", "140925.010000", "140926.500000", "140927.990000", "140929.480000", "140930.970000", "140932.460000", "140933.950000", "140935.440000", "140936.930000", "140938.420000", "140939.910000", "140941.400000", "140942.890000", "140944.380000", "140945.870000", "140947.360000"],
      "ContentTime": ["140024.995000", "140025.000000", "140025.004000", "140025.007000", "140025.010000", "140025.013000", "140025.017000", "140025.020000", "140025.023000", "140025.027000", "140025.030000", "140025.035000", "140025.038000", "140025.042000", "140025.045000", "140025.048000", "140025.052000", "140025.055000", "140025.058000", "140025.062000", "140025.065000", "140025.068000", "140025.072000", "140025.075000", "140025.078000", "140025.082000", "140025.085000", "140025.088000", "140025.091000", "140025.095000", "140025.098000", "140025.101000", "140025.105000", "140025.108000", "140025.111000", "140025.115000", "140025.131000", "140025.135000", "140025.138000", "140044.955000", "140044.959000", "140044.962000", "140044.965000", "140044.976000", "140044.980000", "140044.983000", "140044.986000", "140044.990000", "140044.993000", "140044.996000", "140045.000000", "140045.004000", "140045.007000", "140045.010000", "140045.014000", "140045.024000", "140045.027000", "140045.031000", "140045.034000", "140104.954000", "140104.958000", "140104.961000", "140104.964000", "140104.967000", "140104.971000", "140104.974000", "140104.977000", "140104.981000", "140104.984000", "140104.987000", "140104.991000", "140104.994000", "140104.997000", "140105.001000", "140105.005000", "140105.008000", "140105.011000", "140105.014000", "140105.018000", "140124.954000", "140124.958000", "140124.961000", "140124.964000", "140124.967000", "140124.971000", "140124.974000", "140124.978000", "140124.981000", "140124.984000", "140124.987000", "140124.991000", "140124.994000", "140124.997000", "140125.001000", "140125.005000", "140125.008000", "140125.011000", "140125.015000", "140125.019000", "140204.954000", "140204.958000", "140204.961000", "140204.965000", "140204.968000", "140204.972000", "140204.975000", "140204.978000", "140204.982000", "140204.985000", "140204.988000", "140204.991000", "140204.995000", "140204.998000", "140205.002000", "140205.006000", "140205.009000", "140205.013000", "140205.016000", "140205.019000", "140205.022000", "140205.026000", "140205.029000", "140205.033000", "140205.036000", "140205.039000", "140205.042000", "140205.046000", "140205.049000", "140205.052000", "140205.056000", "140205.059000", "140244.955000", "140244.970000", "140244.973000", "140244.976000", "140244.980000", "140244.983000", "140244.986000", "140244.990000", "140244.993000", "140244.996000", "140245.000000", "140245.004000", "140245.007000", "140245.010000", "140245.014000", "140245.017000", "140245.020000", "140245.024000", "140245.027000", "140245.030000", "140245.034000", "140245.037000", "140245.040000", "140245.043000", "140245.049000", "140245.052000", "140245.056000", "140324.954000", "140324.958000", "140324.961000", "140324.965000", "140324.968000", "140324.971000", "140324.974000", "140324.978000", "140324.981000", "140324.985000", "140324.988000", "140324.991000", "140324.994000", "140324.998000", "140325.002000", "140325.005000", "140325.009000", "140325.012000", "140325.015000", "140325.019000", "140325.022000", "140325.025000", "140325.028000", "140325.032000", "140325.035000", "140325.038000", "140325.042000", "140404.954000", "140404.958000", "140404.961000", "140404.965000", "140404.968000", "140404.972000", "140404.975000", "140404.978000", "140404.990000", "140404.993000", "140404.997000", "140405.001000", "140405.004000", "140405.008000", "140405.011000", "140405.015000", "140405.018000", "140405.022000", "140405.025000", "140405.029000", "140405.033000", "140405.036000", "140405.040000", "140405.043000", "140405.047000", "140405.051000", "140444.955000", "140444.959000", "140444.962000", "140444.966000", "140444.969000", "140444.972000", "140444.976000", "140444.984000", "140444.987000", "140444.991000", "140444.994000", "140444.998000", "140445.001000", "140445.004000", "140445.007000", "140445.011000", "140445.014000", "140445.036000", "140445.039000", "140445.043000", "140445.046000", "140445.049000", "140445.053000", "140445.056000", "140445.059000", "140445.063000", "140445.066000", "140524.955000", "140524.959000", "140524.963000", "140524.966000", "140524.969000", "140524.973000", "140524.976000", "140524.979000", "140524.982000", "140524.986000", "140524.989000", "140524.993000", "140524.996000", "140525.000000", "140525.004000", "140525.007000", "140525.010000", "140525.014000", "140525.017000", "140525.020000", "140525.024000", "140525.027000", "140525.030000", "140525.033000", "140525.037000", "140525.040000", "140525.043000", "140604.954000", "140604.958000", "140604.961000", "140604.965000", "140604.968000", "140604.971000", "140604.975000", "140604.978000", "140604.981000", "140604.985000", "140604.988000", "140604.991000", "140604.995000", "140604.998000", "140605.002000", "140605.005000", "140605.009000", "140605.012000", "140605.015000", "140605.019000", "140605.022000", "140605.025000", "140605.029000", "140605.032000", "140605.035000", "140605.039000", "140605.042000", "140644.955000", "140644.959000", "140644.962000", "140644.966000", "140644.969000", "140644.972000", "140644.975000", "140644.979000", "140644.982000", "140644.985000", "140644.989000", "140644.992000", "140644.995000", "140644.999000", "140645.002000", "140645.005000", "140645.009000", "140645.012000", "140645.015000", "140645.019000", "140645.022000", "140645.025000", "140645.029000", "140645.032000", "140645.035000", "140645.039000", "140645.042000", "140724.967000", "140724.970000", "140724.974000", "140724.977000", "140724.980000", "140724.984000", "140724.987000", "140724.990000", "140724.994000", "140724.997000", "140725.001000", "140725.005000", "140725.008000", "140725.011000", "140725.014000", "140725.018000", "140725.021000", "140725.024000", "140725.028000", "140725.031000", "140725.034000", "140725.038000", "140725.041000", "140725.044000", "140725.047000", "140725.051000", "140725.054000", "140804.954000", "140804.958000", "140804.961000", "140804.965000", "140804.968000", "140804.971000", "140804.974000", "140804.978000", "140804.981000", "140804.985000", "140804.988000", "140804.991000", "140804.994000", "140805.009000", "140805.012000", "140805.015000", "140805.019000", "140805.022000", "140805.025000", "140805.029000", "140805.032000", "140805.035000", "140805.038000", "140805.042000", "140805.045000", "140805.048000", "140805.052000", "140844.954000", "140844.958000", "140844.961000", "140844.965000", "140844.968000", "140844.971000", "140844.976000", "140844.979000", "140844.982000", "140844.986000", "140844.989000", "140844.992000", "140844.996000", "140845.000000", "140845.003000", "140845.007000", "140845.011000", "140845.014000", "140845.018000", "140845.021000", "140845.024000", "140845.027000", "140845.031000", "140845.034000", "140845.037000", "140845.041000", "140924.955000", "140924.959000", "140924.962000", "140924.966000", "140924.969000", "140924.972000", "140924.975000", "140924.979000", "140924.982000", "140924.985000", "140924.989000", "140924.992000", "140924.995000", "140925.000000", "140925.003000", "140925.006000", "140925.023000", "140925.026000", "140925.030000", "140925.033000", "140925.036000", "140925.040000", "140925.043000", "140925.047000", "140925.050000", "140925.053000", "140925.056000", "140949.445000", "140949.449000", "140949.452000", "140949.455000", "140949.458000", "140949.462000", "140949.465000", "140949.468000", "140949.472000", "140949.475000", "140949.478000", "140949.482000", "140949.485000", "140949.488000", "140949.492000", "140949.495000", "140949.498000"],
