{
  "AcquisitionMatrixPE": 104,
  "AcquisitionNumber": 1,
  "AcquisitionTime": "13:58:48.780000",
  "BandwidthPerPixelPhaseEncode": 17.17,
  "BaseResolution": 104,
  "BodyPartExamined": "BRAIN",
  "CoilString": "HC1-7;NC1_2",
  "ConsistencyInfo": "N4_VE11C_LATEST_20160120",
  "ConversionSoftware": "dcm2niix",
  "ConversionSoftwareVersion": "v1.0.20190902",
  "DerivedVendorReportedEchoSpacing": 0.000560011,
  "DeviceSerialNumber": "167006",
  "DwellTime": 2.1e-06,
  "EchoTime": 0.037,
  "EchoTrainLength": 104,
  "EffectiveEchoSpacing": 0.000560011,
  "FlipAngle": 52,
  "HeudiconvVersion": "0.10.0",
  "ImageComments": "Unaliased_MB4_PE3_LB",
  "ImageOrientationPatientDICOM": [0.999846, 0.0135674, 0.0111374, -0.00628228, 0.869053, -0.494679],
  "ImageType": [
    "ORIGINAL",
    "PRIMARY",
    "P",
    "MB",
    "ND",
    "MOSAIC"
],
  "ImagingFrequency": 123.259,
  "InPlanePhaseEncodingDirectionDICOM": "COL",
  "InstitutionAddress": "Chemin_Queen-Mary_4565_Montreal_District_CA_H3W_1W5",
  "InstitutionName": "IUGM",
  "InstitutionalDepartmentName": "Department",
  "MRAcquisitionType": "2D",
  "MagneticFieldStrength": 3,
  "Manufacturer": "Siemens",
  "ManufacturersModelName": "Prisma_fit",
  "Modality": "MR",
  "MultibandAccelerationFactor": 4,
  "PartialFourier": 1,
  "PatientPosition": "HFS",
  "PercentPhaseFOV": 100,
  "PhaseEncodingDirection": "j",
  "PhaseEncodingSteps": 104,
  "PhaseResolution": 1,
  "PixelBandwidth": 2290,
  "ProcedureStepDescription": "games_mario",
  "ProtocolName": "func_task-mario_run-01",
  "PulseSequenceDetails": "%CustomerSeq%_cmrr_mbep2d_bold",
  "ReceiveCoilActiveElements": "HC1-7;NC1,2",
  "ReceiveCoilName": "HeadNeck_64",
  "ReconMatrixPE": 104,
  "RepetitionTime": 1.49,
  "SAR": 0.0538722,
  "ScanOptions": "FS",
  "ScanningSequence": "EP",
  "SequenceName": "epfid2d1_104",
  "SequenceVariant": "SK_SS",
  "SeriesDescription": "func_task-mario_run-01",
  "SeriesNumber": 19,
  "ShimSetting": [607, -7193, -8848, 313, 14, -192, -45, -41],
  "SliceThickness": 2,
  "SliceTiming": [0, 0.7825, 0.0975, 0.88, 0.195, 0.9775, 0.2925, 1.0775, 0.39, 1.175, 0.49, 1.2725, 0.5875, 1.37, 0.685, 0, 0.7825, 0.0975, 0.88, 0.195, 0.9775, 0.2925, 1.0775, 0.39, 1.175, 0.49, 1.2725, 0.5875, 1.37, 0.685, 0, 0.7825, 0.0975, 0.88, 0.195, 0.9775, 0.2925, 1.0775, 0.39, 1.175, 0.49, 1.2725, 0.5875, 1.37, 0.685, 0, 0.7825, 0.0975, 0.88, 0.195, 0.9775, 0.2925, 1.0775, 0.39, 1.175, 0.49, 1.2725, 0.5875, 1.37, 0.685],
  "SoftwareVersions": "syngo_MR_E11",
  "SpacingBetweenSlices": 2,
  "StationName": "MRC35049",
  "TaskName": "mario",
  "TotalReadoutTime": 0.0576811,
  "TxRefAmp": 281.608,
  "WipMemBlock": "931ec946-03ca-4b41-ae34-a47b1d03412d||Sequence: R016 ve11c/master r/e634e98; Dec 19 2017 11:00:25 by eja",
  "dcmmeta_affine": [
    [-1.9996918439865112, -0.01256456971168518, 0.0327809676527977, 107.13866424560547],
    [-0.02713472954928875, 1.7381057739257812, -0.9890661835670471, -50.75491714477539],
    [0.0222748015075922, 0.9893585443496704, 1.7380084991455078, -86.13307189941406],
    [0.0, 0.0, 0.0, 1.0]
],
  "dcmmeta_reorient_transform": [
    [0.0, -1.0, 0.0, 103.0],
    [1.0, 0.0, 0.0, 0.0],
    [0.0, 0.0, 1.0, 0.0],
    [0.0, 0.0, 0.0, 1.0]
],
  "dcmmeta_shape": [104, 104, 60, 443],
  "dcmmeta_slice_dim": 2,
  "dcmmeta_version": 0.6,
  "global": {
    "const": {
      "AcquisitionMatrix": [104, 0, 0, 104],
      "AngioFlag": "N",
      "BitsAllocated": 16,
      "BitsStored": 16,
      "BodyPartExamined": "BRAIN",
      "Columns": 832,
      "EchoNumbers": 1,
      "EchoTime": 37.0,
      "EchoTrainLength": 104,
      "FlipAngle": 52.0,
      "HighBit": 15,
      "ImageOrientationPatient": [0.99984593059024, 0.0135673650212, 0.01113740043809, -0.0062822847365, 0.86905290421095, -0.4946792724392],
      "ImagePositionPatient": [-829.15885053088, -770.8175382138, 367.7893394886],
      "ImageType": [
        "ORIGINAL",
        "PRIMARY",
        "P",
        "MB",
        "ND",
        "MOSAIC"
],
      "ImagedNucleus": "1H",
      "ImagingFrequency": 123.25892,
      "InPlanePhaseEncodingDirection": "COL",
      "LargestImagePixelValue": 4095,
      "MRAcquisitionType": "2D",
      "MagneticFieldStrength": 3.0,
      "Manufacturer": "SIEMENS",
      "ManufacturerModelName": "Prisma_fit",
      "Modality": "MR",
      "NumberOfAverages": 1.0,
      "NumberOfPhaseEncodingSteps": 104,
      "PercentPhaseFieldOfView": 100.0,
      "PercentSampling": 100.0,
      "PerformedProcedureStepStartTime": "133450.959000",
      "PhotometricInterpretation": "MONOCHROME2",
      "PixelBandwidth": 2290.0,
      "PixelRepresentation": 0,
      "PixelSpacing": [2.0, 2.0],
      "ProtocolName": "func_task-mario_run-01",
      "RepetitionTime": 1490.0,
      "RescaleIntercept": -4096.0,
      "RescaleSlope": 2.0,
      "RescaleType": "US",
      "Rows": 832,
      "SAR": 0.05387222560139,
      "SamplesPerPixel": 1,
      "ScanOptions": "FS",
      "ScanningSequence": "EP",
      "SequenceName": "epfid2d1_104",
      "SequenceVariant": [
        "SK",
        "SS"
],
      "SeriesDescription": "func_task-mario_run-01",
      "SeriesNumber": 19,
      "SeriesTime": "140025.192000",
      "SliceLocation": -47.993966276359,
      "SliceThickness": 2.0,
      "SmallestImagePixelValue": 0,
      "SoftwareVersions": "syngo MR E11",
      "SpacingBetweenSlices": 1.999999979527,
      "SpecificCharacterSet": "ISO_IR 100",
      "StudyID": "1",
      "StudyTime": "133450.847000",
      "TransmitCoilName": "Body",
      "VariableFlipAngleFlag": "N",
      "WindowCenterWidthExplanation": "Algo1",
      "dBdt": 0.0},
    "slices": {}
  },
  "time": {
    "samples": {
      "AcquisitionNumber": [1, 2, 3, 4, 5, 6, 7, 8, 9, 10, 11, 12, 13, 14, 15, 16, 17, 18, 19, 20, 21, 22, 23, 24, 25, 26, 27, 28, 29, 30, 31, 32, 33, 34, 35, 36, 37, 38, 39, 40, 41, 42, 43, 44, 45, 46, 47, 48, 49, 50, 51, 52, 53, 54, 55, 56, 57, 58, 59, 60, 61, 62, 63, 64, 65, 66, 67, 68, 69, 70, 71, 72, 73, 74, 75, 76, 77, 78, 79, 80, 81, 82, 83, 84, 85, 86, 87, 88, 89, 90, 91, 92, 93, 94, 95, 96, 97, 98, 99, 100, 101, 102, 103, 104, 105, 106, 107, 108, 109, 110, 111, 112, 113, 114, 115, 116, 117, 118, 119, 120, 121, 122, 123, 124, 125, 126, 127, 128, 129, 130, 131, 132, 133, 134, 135, 136, 137, 138, 139, 140, 141, 142, 143, 144, 145, 146, 147, 148, 149, 150, 151, 152, 153, 154, 155, 156, 157, 158, 159, 160, 161, 162, 163, 164, 165, 166, 167, 168, 169, 170, 171, 172, 173, 174, 175, 176, 177, 178, 179, 180, 181, 182, 183, 184, 185, 186, 187, 188, 189, 190, 191, 192, 193, 194, 195, 196, 197, 198, 199, 200, 201, 202, 203, 204, 205, 206, 207, 208, 209, 210, 211, 212, 213, 214, 215, 216, 217, 218, 219, 220, 221, 222, 223, 224, 225, 226, 227, 228, 229, 230, 231, 232, 233, 234, 235, 236, 237, 238, 239, 240, 241, 242, 243, 244, 245, 246, 247, 248, 249, 250, 251, 252, 253, 254, 255, 256, 257, 258, 259, 260, 261, 262, 263, 264, 265, 266, 267, 268, 269, 270, 271, 272, 273, 274, 275, 276, 277, 278, 279, 280, 281, 282, 283, 284, 285, 286, 287, 288, 289, 290, 291, 292, 293, 294, 295, 296, 297, 298, 299, 300, 301, 302, 303, 304, 305, 306, 307, 308, 309, 310, 311, 312, 313, 314, 315, 316, 317, 318, 319, 320, 321, 322, 323, 324, 325, 326, 327, 328, 329, 330, 331, 332, 333, 334, 335, 336, 337, 338, 339, 340, 341, 342, 343, 344, 345, 346, 347, 348, 349, 350, 351, 352, 353, 354, 355, 356, 357, 358, 359, 360, 361, 362, 363, 364, 365, 366, 367, 368, 369, 370, 371, 372, 373, 374, 375, 376, 377, 378, 379, 380, 381, 382, 383, 384, 385, 386, 387, 388, 389, 390, 391, 392, 393, 394, 395, 396, 397, 398, 399, 400, 401, 402, 403, 404, 405, 406, 407, 408, 409, 410, 411, 412, 413, 414, 415, 416, 417, 418, 419, 420, 421, 422, 423, 424, 425, 426, 427, 428, 429, 430, 431, 432, 433, 434, 435, 436, 437, 438, 439, 440, 441, 442, 443],
      "AcquisitionTime": ["135848.780000", "135850.270000", "135851.760000", "135853.250000", "135854.740000", "135856.230000", "135857.720000", "135859.210000", "135900.700000", "135902.190000", "135903.680000", "135905.170000", "135906.660000", "135908.150000", "135909.640000", "135911.130000", "135912.620000", "135914.110000", "135915.600000", "135917.090000", "135918.580000", "135920.070000", "135921.560000", "135923.050000", "135924.540000", "135926.030000", "135927.520000", "135929.010000", "135930.500000", "135931.990000", "135933.480000", "135934.970000", "135936.460000", "135937.950000", "135939.440000", "135940.930000", "135942.420000", "135943.910000", "135945.400000", "135946.890000", "135948.380000", "135949.870000", "135951.360000", "135952.850000", "135954.340000", "135955.830000", "135957.320000", "135958.810000", "140000.300000", "140001.790000", "140003.280000", "140004.770000", "140006.260000", "140007.750000", "140009.240000", "140010.730000", "140012.220000", "140013.710000", "140015.200000", "140016.690000", "140018.180000", "140019.670000", "140021.160000", "140022.650000", "140024.140000", "140025.630000", "140027.120000", "140028.610000", "140030.100000", "140031.590000", "140033.080000", "140034.570000", "140036.060000", "140037.550000", "140039.040000", "140040.530000", "140042.020000", "140043.510000", "140045.000000", "140046.490000", "140047.980000", "140049.470000", "140050.960000", "140052.450000", "140053.940000", "140055.430000", "140056.920000", "140058.410000", "140059.900000", "140101.390000", "140102.880000", "140104.370000", "140105.860000", "140107.350000", "140108.840000", "140110.330000", "140111.820000", "140113.310000", "140114.800000", "140116.290000", "140117.780000", "140119.270000", "140120.760000", "140122.250000", "140123.740000", "140125.230000", "140126.720000", "140128.210000", "140129.700000", "140131.190000", "140132.680000", "140134.170000", "140135.660000", "140137.150000", "140138.640000", "140140.130000", "140141.620000", "140143.110000", "140144.600000", "140146.090000", "140147.580000", "140149.070000", "140150.560000", "140152.050000", "140153.540000", "140155.030000", "140156.520000", "140158.010000", "140159.500000", "140200.990000", "140202.480000", "140203.970000", "140205.460000", "140206.950000", "140208.440000", "140209.930000", "140211.420000", "140212.910000", "140214.400000", "140215.890000", "140217.380000", "140218.870000", "140220.360000", "140221.850000", "140223.340000", "140224.830000", "140226.320000", "140227.810000", "140229.300000", "140230.790000", "140232.280000", "140233.770000", "140235.260000", "140236.750000", "140238.240000", "140239.730000", "140241.220000", "140242.710000", "140244.200000", "140245.690000", "140247.180000", "140248.670000", "140250.160000", "140251.650000", "140253.140000", "140254.630000", "140256.120000", "140257.610000", "140259.100000", "140300.590000", "140302.080000", "140303.570000", "140305.060000", "140306.550000", "140308.040000", "140309.530000", "140311.020000", "140312.510000", "140314.000000", "140315.490000", "140316.980000", "140318.470000", "140319.960000", "140321.450000", "140322.940000", "140324.430000", "140325.920000", "140327.410000", "140328.900000", "140330.390000", "140331.880000", "140333.370000", "140334.860000", "140336.350000", "140337.840000", "140339.330000", "140340.820000", "140342.310000", "140343.800000", "140345.290000", "140346.780000", "140348.270000", "140349.760000", "140351.250000", "140352.740000", "140354.230000", "140355.720000", "140357.210000", "140358.700000", "140400.190000", "140401.680000", "140403.170000", "140404.660000", "140406.150000", "140407.640000", "140409.130000", "140410.620000", "140412.110000", "140413.600000", "140415.090000", "140416.580000", "140418.070000", "140419.560000", "140421.050000", "140422.540000", "140424.030000", "140425.520000", "140427.010000", "140428.500000", "140429.990000", "140431.480000", "140432.970000", "140434.460000", "140435.950000", "140437.440000", "140438.930000", "140440.420000", "140441.910000", "140443.400000", "140444.890000", "140446.380000", "140447.870000", "140449.360000", "140450.850000", "140452.340000", "140453.830000", "140455.320000", "140456.810000", "140458.300000", "140459.790000", "140501.280000", "140502.770000", "140504.260000", "140505.750000", "140507.240000", "140508.730000", "140510.220000", "140511.710000", "140513.200000", "140514.690000", "140516.180000", "140517.670000", "140519.160000", "140520.650000", "140522.140000", "140523.630000", "140525.120000", "140526.610000", "140528.100000", "140529.590000", "140531.080000", "140532.570000", "140534.060000", "140535.550000", "140537.040000", "140538.530000", "140540.020000", "140541.510000", "140543.000000", "140544.490000", "140545.980000", "140547.470000", "140548.960000", "140550.450000", "140551.940000", "140553.430000", "140554.920000", "140556.410000", "140557.900000", "140559.390000", "140600.880000", "140602.370000", "140603.860000", "140605.350000", "140606.840000", "140608.330000", "140609.820000", "140611.310000", "140612.800000", "140614.290000", "140615.780000", "140617.270000", "140618.760000", "140620.250000", "140621.740000", "140623.230000", "140624.720000", "140626.210000", "140627.700000", "140629.190000", "140630.680000", "140632.170000", "140633.660000", "140635.150000", "140636.640000", "140638.130000", "140639.620000", "140641.110000", "140642.600000", "140644.090000", "140645.580000", "140647.070000", "140648.560000", "140650.050000", "140651.540000", "140653.030000", "140654.520000", "140656.010000", "140657.500000", "140658.990000", "140700.480000", "140701.970000", "140703.460000", "140704.950000", "140706.440000", "140707.930000", "140709.420000", "140710.910000", "140712.400000", "140713.890000", "140715.380000", "140716.870000", "140718.360000", "140719.850000", "140721.340000", "140722.830000", "140724.320000", "140725.810000", "140727.300000", "140728.790000", "140730.280000", "140731.770000", "140733.260000", "140734.750000", "140736.240000", "140737.730000", "140739.220000", "140740.710000", "140742.200000", "140743.690000", "140745.180000", "140746.670000", "140748.160000", "140749.650000", "140751.140000", "140752.630000", "140754.120000", "140755.610000", "140757.100000", "140758.590000", "140800.080000", "140801.570000", "140803.060000", "140804.550000", "140806.040000", "140807.530000", "140809.020000", "140810.510000", "140812.000000", "140813.490000", "140814.980000", "140816.470000", "140817.960000", "140819.450000", "140820.940000", "140822.430000", "140823.920000", "140825.410000", "140826.900000", "140828.390000", "140829.880000", "140831.370000", "140832.860000", "140834.350000", "140835.840000", "140837.330000", "140838.820000", "140840.310000", "140841.800000", "140843.290000", "140844.780000", "140846.270000", "140847.760000", "140849.250000", "140850.740000", "140852.230000", "140853.720000", "140855.210000", "140856.700000", "140858.190000", "140859.680000", "140901.170000", "140902.660000", "140904.150000", "140905.640000", "140907.130000", "140908.620000", "140910.110000", "140911.600000", "140913.090000", "140914.580000", "140916.070000", "140917.560000", "140919.050000", "140920.540000", "140922.030000", "140923.520000", "140925.010000", "140926.500000", "140927.990000", "140929.480000", "140930.970000", "140932.460000", "140933.950000", "140935.440000", "140936.930000", "140938.420000", "140939.910000", "140941.400000", "140942.890000", "140944.380000", "140945.870000", "140947.360000"],
      "ContentTime": ["140025.194000", "140025.197000", "140025.199000", "140025.202000", "140025.210000", "140025.212000", "140025.214000", "140025.217000", "140025.219000", "140025.222000", "140025.224000", "140025.227000", "140025.229000", "140025.232000", "140025.234000", "140025.237000", "140025.239000", "140025.242000", "140025.244000", "140025.247000", "140025.249000", "140025.252000", "140025.254000", "140025.257000", "140025.259000", "140025.262000", "140025.264000", "140025.267000", "140025.269000", "140025.272000", "140025.274000", "140025.277000", "140025.279000", "140025.282000", "140025.284000", "140025.287000", "140025.289000", "140025.292000", "140025.294000", "140045.089000", "140045.092000", "140045.095000", "140045.097000", "140045.100000", "140045.102000", "140045.104000", "140045.107000", "140045.110000", "140045.112000", "140045.115000", "140045.117000", "140045.130000", "140045.133000", "140045.135000", "140045.138000", "140045.140000", "140045.143000", "140045.145000", "140045.148000", "140105.070000", "140105.073000", "140105.075000", "140105.077000", "140105.080000", "140105.083000", "140105.085000", "140105.087000", "140105.090000", "140105.092000", "140105.095000", "140105.097000", "140105.100000", "140105.102000", "140105.105000", "140105.107000", "140105.110000", "140105.112000", "140105.115000", "140105.117000", "140125.057000", "140125.060000", "140125.063000", "140125.065000", "140125.068000", "140125.070000", "140125.073000", "140125.075000", "140125.078000", "140125.080000", "140125.083000", "140125.085000", "140125.088000", "140125.090000", "140125.093000", "140125.095000", "140125.098000", "140125.100000", "140125.103000", "140125.105000", "140205.117000", "140205.120000", "140205.131000", "140205.133000", "140205.136000", "140205.138000", "140205.141000", "140205.143000", "140205.146000", "140205.148000", "140205.151000", "140205.153000", "140205.156000", "140205.158000", "140205.162000", "140205.164000", "140205.167000", "140205.169000", "140205.172000", "140205.174000", "140205.187000", "140205.189000", "140205.192000", "140205.194000", "140205.197000", "140205.199000", "140205.202000", "140205.204000", "140205.207000", "140205.209000", "140205.212000", "140205.215000", "140245.108000", "140245.111000", "140245.114000", "140245.116000", "140245.119000", "140245.121000", "140245.124000", "140245.126000", "140245.129000", "140245.131000", "140245.134000", "140245.136000", "140245.139000", "140245.141000", "140245.144000", "140245.146000", "140245.149000", "140245.151000", "140245.154000", "140245.156000", "140245.159000", "140245.161000", "140245.164000", "140245.166000", "140245.169000", "140245.172000", "140245.174000", "140325.099000", "140325.101000", "140325.104000", "140325.106000", "140325.109000", "140325.111000", "140325.114000", "140325.116000", "140325.119000", "140325.121000", "140325.124000", "140325.126000", "140325.129000", "140325.131000", "140325.134000", "140325.136000", "140325.139000", "140325.141000", "140325.144000", "140325.146000", "140325.149000", "140325.151000", "140325.154000", "140325.156000", "140325.159000", "140325.161000", "140325.164000", "140405.118000", "140405.120000", "140405.123000", "140405.125000", "140405.128000", "140405.130000", "140405.133000", "140405.141000", "140405.144000", "140405.146000", "140405.149000", "140405.152000", "140405.154000", "140405.157000", "140405.159000", "140405.162000", "140405.164000", "140405.167000", "140405.170000", "140405.173000", "140405.175000", "140405.178000", "140405.181000", "140405.183000", "140405.186000", "140405.188000", "140445.120000", "140445.123000", "140445.125000", "140445.128000", "140445.130000", "140445.133000", "140445.135000", "140445.138000", "140445.140000", "140445.143000", "140445.145000", "140445.148000", "140445.150000", "140445.153000", "140445.156000", "140445.158000", "140445.160000", "140445.163000", "140445.166000", "140445.168000", "140445.171000", "140445.173000", "140445.176000", "140445.178000", "140445.181000", "140445.183000", "140445.186000", "140525.104000", "140525.107000", "140525.109000", "140525.112000", "140525.114000", "140525.117000", "140525.119000", "140525.122000", "140525.124000", "140525.127000", "140525.129000", "140525.132000", "140525.134000", "140525.137000", "140525.139000", "140525.142000", "140525.144000", "140525.147000", "140525.149000", "140525.152000", "140525.154000", "140525.157000", "140525.159000", "140525.162000", "140525.164000", "140525.167000", "140525.169000", "140605.089000", "140605.092000", "140605.094000", "140605.097000", "140605.099000", "140605.102000", "140605.104000", "140605.107000", "140605.109000", "140605.112000", "140605.114000", "140605.117000", "140605.119000", "140605.122000", "140605.124000", "140605.127000", "140605.129000", "140605.132000", "140605.134000", "140605.137000", "140605.140000", "140605.142000", "140605.145000", "140605.147000", "140605.150000", "140605.152000", "140605.155000", "140645.103000", "140645.106000", "140645.109000", "140645.111000", "140645.114000", "140645.116000", "140645.119000", "140645.121000", "140645.124000", "140645.126000", "140645.129000", "140645.131000", "140645.134000", "140645.136000", "140645.139000", "140645.141000", "140645.144000", "140645.146000", "140645.148000", "140645.151000", "140645.153000", "140645.156000", "140645.158000", "140645.161000", "140645.163000", "140645.166000", "140645.168000", "140725.100000", "140725.103000", "140725.105000", "140725.108000", "140725.110000", "140725.113000", "140725.115000", "140725.118000", "140725.120000", "140725.123000", "140725.125000", "140725.128000", "140725.130000", "140725.133000", "140725.135000", "140725.138000", "140725.140000", "140725.143000", "140725.145000", "140725.148000", "140725.150000", "140725.153000", "140725.155000", "140725.158000", "140725.160000", "140725.163000", "140725.165000", "140805.120000", "140805.122000", "140805.125000", "140805.127000", "140805.130000", "140805.132000", "140805.135000", "140805.137000", "140805.140000", "140805.142000", "140805.145000", "140805.147000", "140805.150000", "140805.152000", "140805.155000", "140805.157000", "140805.160000", "140805.162000", "140805.174000", "140805.176000", "140805.179000", "140805.181000", "140805.184000", "140805.186000", "140805.189000", "140805.191000", "140805.194000", "140845.088000", "140845.090000", "140845.093000", "140845.095000", "140845.098000", "140845.100000", "140845.103000", "140845.105000", "140845.108000", "140845.110000", "140845.113000", "140845.115000", "140845.118000", "140845.121000", "140845.123000", "140845.126000", "140845.128000", "140845.131000", "140845.133000", "140845.136000", "140845.138000", "140845.141000", "140845.143000", "140845.146000", "140845.149000", "140845.151000", "140925.108000", "140925.111000", "140925.113000", "140925.116000", "140925.118000", "140925.121000", "140925.123000", "140925.126000", "140925.128000", "140925.131000", "140925.133000", "140925.136000", "140925.138000", "140925.141000", "140925.143000", "140925.146000", "140925.148000", "140925.151000", "140925.153000", "140925.156000", "140925.159000", "140925.161000", "140925.164000", "140925.166000", "140925.169000", "140925.171000", "140925.174000", "140949.550000", "140949.553000", "140949.555000", "140949.558000", "140949.560000", "140949.563000", "140949.565000", "140949.568000", "140949.570000", "140949.573000", "140949.575000", "140949.578000", "140949.580000", "140949.583000", "140949.585000", "140949.588000", "140949.590000"],
