{
  "AcquisitionMatrixPE": 104,
  "AcquisitionNumber": 1,
  "AcquisitionTime": "14:11:33.487500",
  "BandwidthPerPixelPhaseEncode": 17.17,
  "BaseResolution": 104,
  "BodyPartExamined": "BRAIN",
  "CoilString": "HC1-7;NC1_2",
  "ConsistencyInfo": "N4_VE11C_LATEST_20160120",
  "ConversionSoftware": "dcm2niix",
  "ConversionSoftwareVersion": "v1.0.20190902",
  "DerivedVendorReportedEchoSpacing": 0.000560011,
  "DeviceSerialNumber": "167006",
  "DwellTime": 2.1e-06,
  "EchoTime": 0.037,
  "EchoTrainLength": 104,
  "EffectiveEchoSpacing": 0.000560011,
  "FlipAngle": 52,
  "HeudiconvVersion": "0.10.0",
  "ImageComments": "Unaliased_MB4_PE3_LB",
  "ImageOrientationPatientDICOM": [0.999846, 0.0135674, 0.0111374, -0.00628228, 0.869053, -0.494679],
  "ImageType": [
    "ORIGINAL",
    "PRIMARY",
    "P",
    "MB",
    "ND",
    "MOSAIC"
],
  "ImagingFrequency": 123.259,
  "InPlanePhaseEncodingDirectionDICOM": "COL",
  "InstitutionAddress": "Chemin_Queen-Mary_4565_Montreal_District_CA_H3W_1W5",
  "InstitutionName": "IUGM",
  "InstitutionalDepartmentName": "Department",
  "MRAcquisitionType": "2D",
  "MagneticFieldStrength": 3,
  "Manufacturer": "Siemens",
  "ManufacturersModelName": "Prisma_fit",
  "Modality": "MR",
  "MultibandAccelerationFactor": 4,
  "PartialFourier": 1,
  "PatientPosition": "HFS",
  "PercentPhaseFOV": 100,
  "PhaseEncodingDirection": "j",
  "PhaseEncodingSteps": 104,
  "PhaseResolution": 1,
  "PixelBandwidth": 2290,
  "ProcedureStepDescription": "games_mario",
  "ProtocolName": "func_task-mario_run-02",
  "PulseSequenceDetails": "%CustomerSeq%_cmrr_mbep2d_bold",
  "ReceiveCoilActiveElements": "HC1-7;NC1,2",
  "ReceiveCoilName": "HeadNeck_64",
  "ReconMatrixPE": 104,
  "RepetitionTime": 1.49,
  "SAR": 0.0538722,
  "ScanOptions": "FS",
  "ScanningSequence": "EP",
  "SequenceName": "epfid2d1_104",
  "SequenceVariant": "SK_SS",
  "SeriesDescription": "func_task-mario_run-02",
  "SeriesNumber": 22,
  "ShimSetting": [607, -7193, -8848, 313, 14, -192, -45, -41],
  "SliceThickness": 2,
  "SliceTiming": [0, 0.785, 0.1, 0.8825, 0.1975, 0.98, 0.295, 1.08, 0.3925, 1.1775, 0.49, 1.275, 0.59, 1.3725, 0.6875, 0, 0.785, 0.1, 0.8825, 0.1975, 0.98, 0.295, 1.08, 0.3925, 1.1775, 0.49, 1.275, 0.59, 1.3725, 0.6875, 0, 0.785, 0.1, 0.8825, 0.1975, 0.98, 0.295, 1.08, 0.3925, 1.1775, 0.49, 1.275, 0.59, 1.3725, 0.6875, 0, 0.785, 0.1, 0.8825, 0.1975, 0.98, 0.295, 1.08, 0.3925, 1.1775, 0.49, 1.275, 0.59, 1.3725, 0.6875],
  "SoftwareVersions": "syngo_MR_E11",
  "SpacingBetweenSlices": 2,
  "StationName": "MRC35049",
  "TaskName": "mario",
  "TotalReadoutTime": 0.0576811,
  "TxRefAmp": 281.608,
  "WipMemBlock": "b215ba67-fad8-4162-9500-fcbc20eb5c70||Sequence: R016 ve11c/master r/e634e98; Dec 19 2017 11:00:25 by eja",
  "dcmmeta_affine": [
    [-1.9996918439865112, -0.01256456971168518, 0.0327809676527977, 107.13866424560547],
    [-0.02713472954928875, 1.7381057739257812, -0.9890661835670471, -50.75491714477539],
    [0.0222748015075922, 0.9893585443496704, 1.7380084991455078, -86.13307189941406],
    [0.0, 0.0, 0.0, 1.0]
],
  "dcmmeta_reorient_transform": [
    [0.0, -1.0, 0.0, 103.0],
    [1.0, 0.0, 0.0, 0.0],
    [0.0, 0.0, 1.0, 0.0],
    [0.0, 0.0, 0.0, 1.0]
],
  "dcmmeta_shape": [104, 104, 60, 498],
  "dcmmeta_slice_dim": 2,
  "dcmmeta_version": 0.6,
  "global": {
    "const": {
      "AcquisitionMatrix": [104, 0, 0, 104],
      "AngioFlag": "N",
      "BitsAllocated": 16,
      "BitsStored": 16,
      "BodyPartExamined": "BRAIN",
      "Columns": 832,
      "EchoNumbers": 1,
      "EchoTime": 37.0,
      "EchoTrainLength": 104,
      "FlipAngle": 52.0,
      "HighBit": 15,
      "ImageOrientationPatient": [0.99984593059024, 0.0135673650212, 0.01113740043809, -0.0062822847365, 0.86905290421095, -0.4946792724392],
      "ImagePositionPatient": [-829.15885053088, -770.8175382138, 367.7893394886],
      "ImageType": [
        "ORIGINAL",
        "PRIMARY",
        "P",
        "MB",
        "ND",
        "MOSAIC"
],
      "ImagedNucleus": "1H",
      "ImagingFrequency": 123.258928,
      "InPlanePhaseEncodingDirection": "COL",
      "LargestImagePixelValue": 4095,
      "MRAcquisitionType": "2D",
      "MagneticFieldStrength": 3.0,
      "Manufacturer": "SIEMENS",
      "ManufacturerModelName": "Prisma_fit",
      "Modality": "MR",
      "NumberOfAverages": 1.0,
      "NumberOfPhaseEncodingSteps": 104,
      "PercentPhaseFieldOfView": 100.0,
      "PercentSampling": 100.0,
      "PerformedProcedureStepStartTime": "133450.959000",
      "PhotometricInterpretation": "MONOCHROME2",
      "PixelBandwidth": 2290.0,
      "PixelRepresentation": 0,
      "PixelSpacing": [2.0, 2.0],
      "ProtocolName": "func_task-mario_run-02",
      "RepetitionTime": 1490.0,
      "RescaleIntercept": -4096.0,
      "RescaleSlope": 2.0,
      "RescaleType": "US",
      "Rows": 832,
      "SAR": 0.05387222560139,
      "SamplesPerPixel": 1,
      "ScanOptions": "FS",
      "ScanningSequence": "EP",
      "SequenceName": "epfid2d1_104",
      "SequenceVariant": [
        "SK",
        "SS"
],
      "SeriesDescription": "func_task-mario_run-02",
      "SeriesNumber": 22,
      "SeriesTime": "141249.067000",
      "SliceLocation": -47.993966276359,
      "SliceThickness": 2.0,
      "SmallestImagePixelValue": 0,
      "SoftwareVersions": "syngo MR E11",
      "SpacingBetweenSlices": 1.999999979527,
      "SpecificCharacterSet": "ISO_IR 100",
      "StudyID": "1",
      "StudyTime": "133450.847000",
      "TransmitCoilName": "Body",
      "VariableFlipAngleFlag": "N",
      "WindowCenterWidthExplanation": "Algo1",
      "dBdt": 0.0},
    "slices": {}
  },
  "time": {
    "samples": {
      "AcquisitionNumber": [1, 2, 3, 4, 5, 6, 7, 8, 9, 10, 11, 12, 13, 14, 15, 16, 17, 18, 19, 20, 21, 22, 23, 24, 25, 26, 27, 28, 29, 30, 31, 32, 33, 34, 35, 36, 37, 38, 39, 40, 41, 42, 43, 44, 45, 46, 47, 48, 49, 50, 51, 52, 53, 54, 55, 56, 57, 58, 59, 60, 61, 62, 63, 64, 65, 66, 67, 68, 69, 70, 71, 72, 73, 74, 75, 76, 77, 78, 79, 80, 81, 82, 83, 84, 85, 86, 87, 88, 89, 90, 91, 92, 93, 94, 95, 96, 97, 98, 99, 100, 101, 102, 103, 104, 105, 106, 107, 108, 109, 110, 111, 112, 113, 114, 115, 116, 117, 118, 119, 120, 121, 122, 123, 124, 125, 126, 127, 128, 129, 130, 131, 132, 133, 134, 135, 136, 137, 138, 139, 140, 141, 142, 143, 144, 145, 146, 147, 148, 149, 150, 151, 152, 153, 154, 155, 156, 157, 158, 159, 160, 161, 162, 163, 164, 165, 166, 167, 168, 169, 170, 171, 172, 173, 174, 175, 176, 177, 178, 179, 180, 181, 182, 183, 184, 185, 186, 187, 188, 189, 190, 191, 192, 193, 194, 195, 196, 197, 198, 199, 200, 201, 202, 203, 204, 205, 206, 207, 208, 209, 210, 211, 212, 213, 214, 215, 216, 217, 218, 219, 220, 221, 222, 223, 224, 225, 226, 227, 228, 229, 230, 231, 232, 233, 234, 235, 236, 237, 238, 239, 240, 241, 242, 243, 244, 245, 246, 247, 248, 249, 250, 251, 252, 253, 254, 255, 256, 257, 258, 259, 260, 261, 262, 263, 264, 265, 266, 267, 268, 269, 270, 271, 272, 273, 274, 275, 276, 277, 278, 279, 280, 281, 282, 283, 284, 285, 286, 287, 288, 289, 290, 291, 292, 293, 294, 295, 296, 297, 298, 299, 300, 301, 302, 303, 304, 305, 306, 307, 308, 309, 310, 311, 312, 313, 314, 315, 316, 317, 318, 319, 320, 321, 322, 323, 324, 325, 326, 327, 328, 329, 330, 331, 332, 333, 334, 335, 336, 337, 338, 339, 340, 341, 342, 343, 344, 345, 346, 347, 348, 349, 350, 351, 352, 353, 354, 355, 356, 357, 358, 359, 360, 361, 362, 363, 364, 365, 366, 367, 368, 369, 370, 371, 372, 373, 374, 375, 376, 377, 378, 379, 380, 381, 382, 383, 384, 385, 386, 387, 388, 389, 390, 391, 392, 393, 394, 395, 396, 397, 398, 399, 400, 401, 402, 403, 404, 405, 406, 407, 408, 409, 410, 411, 412, 413, 414, 415, 416, 417, 418, 419, 420, 421, 422, 423, 424, 425, 426, 427, 428, 429, 430, 431, 432, 433, 434, 435, 436, 437, 438, 439, 440, 441, 442, 443, 444, 445, 446, 447, 448, 449, 450, 451, 452, 453, 454, 455, 456, 457, 458, 459, 460, 461, 462, 463, 464, 465, 466, 467, 468, 469, 470, 471, 472, 473, 474, 475, 476, 477, 478, 479, 480, 481, 482, 483, 484, 485, 486, 487, 488, 489, 490, 491, 492, 493, 494, 495, 496, 497, 498],
      "AcquisitionTime": ["141133.487500", "141134.977500", "141136.467500", "141137.957500", "141139.447500", "141140.937500", "141142.427500", "141143.917500", "141145.407500", "141146.897500", "141148.387500", "141149.877500", "141151.367500", "141152.857500", "141154.347500", "141155.837500", "141157.327500", "141158.817500", "141200.307500", "141201.797500", "141203.287500", "141204.777500", "141206.267500", "141207.757500", "141209.247500", "141210.737500", "141212.227500", "141213.717500", "141215.207500", "141216.697500", "141218.187500", "141219.677500", "141221.167500", "141222.657500", "141224.147500", "141225.637500", "141227.127500", "141228.617500", "141230.107500", "141231.597500", "141233.087500", "141234.577500", "141236.067500", "141237.557500", "141239.047500", "141240.537500", "141242.027500", "141243.517500", "141245.007500", "141246.497500", "141247.987500", "141249.477500", "141250.967500", "141252.457500", "141253.947500", "141255.437500", "141256.927500", "141258.417500", "141259.907500", "141301.397500", "141302.887500", "141304.377500", "141305.867500", "141307.357500", "141308.847500", "141310.337500", "141311.827500", "141313.317500", "141314.807500", "141316.297500", "141317.787500", "141319.277500", "141320.767500", "141322.257500", "141323.747500", "141325.237500", "141326.727500", "141328.217500", "141329.707500", "141331.197500", "141332.687500", "141334.177500", "141335.667500", "141337.157500", "141338.647500", "141340.137500", "141341.627500", "141343.117500", "141344.607500", "141346.097500", "141347.587500", "141349.077500", "141350.567500", "141352.057500", "141353.547500", "141355.037500", "141356.527500", "141358.017500", "141359.507500", "141400.997500", "141402.487500", "141403.977500", "141405.467500", "141406.957500", "141408.447500", "141409.937500", "141411.427500", "141412.917500", "141414.407500", "141415.897500", "141417.387500", "141418.877500", "141420.367500", "141421.857500", "141423.347500", "141424.837500", "141426.327500", "141427.817500", "141429.307500", "141430.797500", "141432.287500", "141433.777500", "141435.267500", "141436.757500", "141438.247500", "141439.737500", "141441.227500", "141442.717500", "141444.207500", "141445.697500", "141447.187500", "141448.677500", "141450.167500", "141451.657500", "141453.147500", "141454.637500", "141456.127500", "141457.617500", "141459.107500", "141500.597500", "141502.087500", "141503.577500", "141505.067500", "141506.557500", "141508.047500", "141509.537500", "141511.027500", "141512.517500", "141514.007500", "141515.497500", "141516.987500", "141518.477500", "141519.967500", "141521.457500", "141522.947500", "141524.437500", "141525.927500", "141527.417500", "141528.907500", "141530.397500", "141531.887500", "141533.377500", "141534.867500", "141536.357500", "141537.847500", "141539.337500", "141540.827500", "141542.317500", "141543.807500", "141545.297500", "141546.787500", "141548.277500", "141549.767500", "141551.257500", "141552.747500", "141554.237500", "141555.727500", "141557.217500", "141558.707500", "141600.197500", "141601.687500", "141603.177500", "141604.667500", "141606.157500", "141607.647500", "141609.137500", "141610.627500", "141612.117500", "141613.607500", "141615.097500", "141616.587500", "141618.077500", "141619.567500", "141621.057500", "141622.547500", "141624.037500", "141625.527500", "141627.017500", "141628.507500", "141629.997500", "141631.487500", "141632.977500", "141634.467500", "141635.957500", "141637.447500", "141638.937500", "141640.427500", "141641.917500", "141643.407500", "141644.897500", "141646.387500", "141647.877500", "141649.367500", "141650.857500", "141652.347500", "141653.837500", "141655.327500", "141656.817500", "141658.307500", "141659.797500", "141701.287500", "141702.777500", "141704.267500", "141705.757500", "141707.247500", "141708.737500", "141710.227500", "141711.717500", "141713.207500", "141714.697500", "141716.187500", "141717.677500", "141719.167500", "141720.657500", "141722.147500", "141723.637500", "141725.127500", "141726.617500", "141728.107500", "141729.597500", "141731.087500", "141732.577500", "141734.067500", "141735.557500", "141737.047500", "141738.537500", "141740.027500", "141741.517500", "141743.007500", "141744.497500", "141745.987500", "141747.477500", "141748.967500", "141750.457500", "141751.947500", "141753.437500", "141754.927500", "141756.417500", "141757.907500", "141759.397500", "141800.887500", "141802.377500", "141803.867500", "141805.357500", "141806.847500", "141808.337500", "141809.827500", "141811.317500", "141812.807500", "141814.297500", "141815.787500", "141817.277500", "141818.767500", "141820.257500", "141821.747500", "141823.237500", "141824.727500", "141826.217500", "141827.707500", "141829.197500", "141830.687500", "141832.177500", "141833.667500", "141835.157500", "141836.647500", "141838.137500", "141839.627500", "141841.117500", "141842.607500", "141844.097500", "141845.587500", "141847.077500", "141848.567500", "141850.057500", "141851.547500", "141853.037500", "141854.527500", "141856.017500", "141857.507500", "141858.997500", "141900.487500", "141901.977500", "141903.467500", "141904.957500", "141906.447500", "141907.937500", "141909.427500", "141910.917500", "141912.407500", "141913.897500", "141915.387500", "141916.877500", "141918.367500", "141919.857500", "141921.347500", "141922.837500", "141924.327500", "141925.817500", "141927.307500", "141928.797500", "141930.287500", "141931.777500", "141933.267500", "141934.757500", "141936.247500", "141937.737500", "141939.227500", "141940.717500", "141942.207500", "141943.697500", "141945.187500", "141946.677500", "141948.167500", "141949.657500", "141951.147500", "141952.637500", "141954.127500", "141955.617500", "141957.107500", "141958.597500", "142000.087500", "142001.577500", "142003.067500", "142004.557500", "142006.047500", "142007.537500", "142009.027500", "142010.517500", "142012.007500", "142013.497500", "142014.987500", "142016.477500", "142017.967500", "142019.457500", "142020.947500", "142022.437500", "142023.927500", "142025.417500", "142026.907500", "142028.397500", "142029.887500", "142031.377500", "142032.867500", "142034.357500", "142035.847500", "142037.337500", "142038.827500", "142040.317500", "142041.807500", "142043.297500", "142044.787500", "142046.277500", "142047.767500", "142049.257500", "142050.747500", "142052.237500", "142053.727500", "142055.217500", "142056.707500", "142058.197500", "142059.687500", "142101.177500", "142102.667500", "142104.157500", "142105.647500", "142107.137500", "142108.627500", "142110.117500", "142111.607500", "142113.097500", "142114.587500", "142116.077500", "142117.567500", "142119.057500", "142120.547500", "142122.037500", "142123.527500", "142125.017500", "142126.507500", "142127.997500", "142129.487500", "142130.977500", "142132.467500", "142133.957500", "142135.447500", "142136.937500", "142138.427500", "142139.917500", "142141.407500", "142142.897500", "142144.387500", "142145.877500", "142147.367500", "142148.857500", "142150.347500", "142151.837500", "142153.327500", "142154.817500", "142156.307500", "142157.797500", "142159.287500", "142200.777500", "142202.267500", "142203.757500", "142205.247500", "142206.737500", "142208.227500", "142209.717500", "142211.207500", "142212.697500", "142214.187500", "142215.677500", "142217.167500", "142218.657500", "142220.147500", "142221.637500", "142223.127500", "142224.617500", "142226.107500", "142227.597500", "142229.087500", "142230.577500", "142232.067500", "142233.557500", "142235.047500", "142236.537500", "142238.027500", "142239.517500", "142241.007500", "142242.497500", "142243.987500", "142245.477500", "142246.967500", "142248.457500", "142249.947500", "142251.437500", "142252.927500", "142254.417500", "142255.907500", "142257.397500", "142258.887500", "142300.377500", "142301.867500", "142303.357500", "142304.847500", "142306.337500", "142307.827500", "142309.317500", "142310.807500", "142312.297500", "142313.787500", "142315.277500", "142316.767500", "142318.257500", "142319.747500", "142321.237500", "142322.727500", "142324.217500", "142325.707500", "142327.197500", "142328.687500", "142330.177500", "142331.667500", "142333.157500", "142334.647500", "142336.137500", "142337.627500", "142339.117500", "142340.607500", "142342.097500", "142343.587500", "142345.077500", "142346.567500", "142348.057500", "142349.547500", "142351.037500", "142352.527500", "142354.017500"],
      "ContentTime": ["141249.069000", "141249.072000", "141249.074000", "141249.077000", "141249.079000", "141249.082000", "141249.084000", "141249.087000", "141249.089000", "141249.092000", "141249.094000", "141249.097000", "141249.099000", "141249.102000", "141249.104000", "141249.107000", "141249.109000", "141249.111000", "141249.114000", "141249.116000", "141249.119000", "141309.009000", "141309.012000", "141309.015000", "141309.017000", "141309.020000", "141309.022000", "141309.025000", "141309.027000", "141309.029000", "141309.032000", "141309.034000", "141309.037000", "141309.039000", "141309.042000", "141309.044000", "141309.047000", "141309.049000", "141309.052000", "141309.061000", "141309.064000", "141329.020000", "141329.023000", "141329.026000", "141329.028000", "141329.031000", "141329.033000", "141329.036000", "141329.038000", "141329.040000", "141329.043000", "141329.046000", "141329.048000", "141329.050000", "141329.053000", "141329.055000", "141329.058000", "141329.060000", "141329.063000", "141329.067000", "141329.069000", "141349.008000", "141349.010000", "141349.013000", "141349.016000", "141349.018000", "141349.020000", "141349.023000", "141349.025000", "141349.028000", "141349.030000", "141349.033000", "141349.035000", "141349.038000", "141349.040000", "141349.043000", "141349.045000", "141349.048000", "141349.050000", "141349.053000", "141349.055000", "141409.007000", "141409.010000", "141409.012000", "141409.015000", "141409.017000", "141409.020000", "141409.022000", "141409.025000", "141409.027000", "141409.030000", "141409.032000", "141409.035000", "141409.037000", "141409.040000", "141409.042000", "141409.045000", "141409.047000", "141409.049000", "141409.052000", "141409.055000", "141449.049000", "141449.052000", "141449.054000", "141449.057000", "141449.059000", "141449.062000", "141449.064000", "141449.067000", "141449.069000", "141449.072000", "141449.074000", "141449.077000", "141449.079000", "141449.082000", "141449.084000", "141449.087000", "141449.090000", "141449.093000", "141449.095000", "141449.098000", "141449.100000", "141449.103000", "141449.105000", "141449.108000", "141449.110000", "141449.120000", "141449.122000", "141449.125000", "141449.127000", "141529.050000", "141529.053000", "141529.056000", "141529.058000", "141529.061000", "141529.063000", "141529.066000", "141529.068000", "141529.071000", "141529.073000", "141529.076000", "141529.078000", "141529.081000", "141529.083000", "141529.086000", "141529.088000", "141529.091000", "141529.093000", "141529.096000", "141529.098000", "141529.101000", "141529.103000", "141529.106000", "141529.108000", "141529.111000", "141529.113000", "141529.116000", "141609.053000", "141609.056000", "141609.058000", "141609.061000", "141609.064000", "141609.066000", "141609.068000", "141609.071000", "141609.073000", "141609.076000", "141609.078000", "141609.081000", "141609.083000", "141609.086000", "141609.088000", "141609.091000", "141609.093000", "141609.096000", "141609.098000", "141609.101000", "141609.103000", "141609.106000", "141609.108000", "141609.111000", "141609.113000", "141609.116000", "141609.118000", "141649.044000", "141649.047000", "141649.049000", "141649.052000", "141649.054000", "141649.057000", "141649.059000", "141649.062000", "141649.069000", "141649.071000", "141649.074000", "141649.076000", "141649.079000", "141649.081000", "141649.084000", "141649.086000", "141649.089000", "141649.091000", "141649.094000", "141649.096000", "141649.099000", "141649.101000", "141649.104000", "141649.106000", "141649.109000", "141649.111000", "141649.114000", "141729.038000", "141729.041000", "141729.044000", "141729.046000", "141729.049000", "141729.051000", "141729.054000", "141729.056000", "141729.059000", "141729.061000", "141729.064000", "141729.066000", "141729.068000", "141729.071000", "141729.074000", "141729.076000", "141729.079000", "141729.081000", "141729.084000", "141729.086000", "141729.089000", "141729.092000", "141729.096000", "141729.100000", "141729.102000", "141729.105000", "141809.469000", "141809.472000", "141809.475000", "141809.477000", "141809.480000", "141809.482000", "141809.484000", "141809.487000", "141809.489000", "141809.492000", "141809.494000", "141809.497000", "141809.499000", "141809.502000", "141809.504000", "141809.507000", "141809.509000", "141809.512000", "141809.514000", "141809.517000", "141809.519000", "141809.522000", "141809.524000", "141809.527000", "141809.530000", "141809.532000", "141809.535000", "141849.043000", "141849.046000", "141849.049000", "141849.051000", "141849.054000", "141849.056000", "141849.059000", "141849.061000", "141849.064000", "141849.066000", "141849.069000", "141849.071000", "141849.074000", "141849.076000", "141849.079000", "141849.081000", "141849.084000", "141849.086000", "141849.089000", "141849.091000", "141849.094000", "141849.096000", "141849.099000", "141849.101000", "141849.104000", "141849.106000", "141849.109000", "141929.051000", "141929.054000", "141929.057000", "141929.059000", "141929.062000", "141929.064000", "141929.067000", "141929.069000", "141929.071000", "141929.074000", "141929.076000", "141929.079000", "141929.081000", "141929.084000", "141929.086000", "141929.089000", "141929.091000", "141929.094000", "141929.096000", "141929.099000", "141929.101000", "141929.104000", "141929.106000", "141929.109000", "141929.111000", "141929.114000", "141929.117000", "142009.048000", "142009.050000", "142009.053000", "142009.055000", "142009.058000", "142009.060000", "142009.063000", "142009.066000", "142009.068000", "142009.071000", "142009.073000", "142009.076000", "142009.078000", "142009.081000", "142009.083000", "142009.086000", "142009.088000", "142009.091000", "142009.093000", "142009.096000", "142009.098000", "142009.101000", "142009.103000", "142009.106000", "142009.108000", "142009.111000", "142009.113000", "142049.040000", "142049.042000", "142049.045000", "142049.047000", "142049.050000", "142049.053000", "142049.055000", "142049.057000", "142049.060000", "142049.063000", "142049.065000", "142049.068000", "142049.070000", "142049.073000", "142049.075000", "142049.078000", "142049.080000", "142049.083000", "142049.085000", "142049.088000", "142049.090000", "142049.093000", "142049.095000", "142049.098000", "142049.100000", "142049.103000", "142049.105000", "142129.065000", "142129.067000", "142129.070000", "142129.072000", "142129.075000", "142129.077000", "142129.080000", "142129.082000", "142129.085000", "142129.087000", "142129.090000", "142129.092000", "142129.095000", "142129.097000", "142129.100000", "142129.102000", "142129.105000", "142129.107000", "142129.110000", "142129.112000", "142129.115000", "142129.117000", "142129.120000", "142129.122000", "142129.125000", "142129.127000", "142209.056000", "142209.058000", "142209.061000", "142209.063000", "142209.067000", "142209.069000", "142209.072000", "142209.074000", "142209.077000", "142209.079000", "142209.082000", "142209.084000", "142209.087000", "142209.089000", "142209.092000", "142209.094000", "142209.097000", "142209.099000", "142209.102000", "142209.104000", "142209.107000", "142209.109000", "142209.112000", "142209.114000", "142209.117000", "142209.119000", "142209.122000", "142249.048000", "142249.050000", "142249.053000", "142249.055000", "142249.058000", "142249.060000", "142249.063000", "142249.065000", "142249.068000", "142249.070000", "142249.073000", "142249.075000", "142249.078000", "142249.080000", "142249.083000", "142249.085000", "142249.088000", "142249.090000", "142249.093000", "142249.095000", "142249.098000", "142249.100000", "142249.103000", "142249.105000", "142249.108000", "142249.110000", "142249.113000", "142329.044000", "142329.047000", "142329.050000", "142329.052000", "142329.055000", "142329.057000", "142329.060000", "142329.062000", "142329.065000", "142329.067000", "142329.070000", "142329.072000", "142329.075000", "142329.077000", "142329.080000", "142329.082000", "142329.084000", "142329.087000", "142329.089000", "142329.092000", "142329.095000", "142329.097000", "142329.100000", "142329.102000", "142329.105000", "142329.107000", "142329.110000", "142358.006000", "142358.008000", "142358.011000", "142358.013000", "142358.016000", "142358.018000", "142358.021000", "142358.023000", "142358.026000", "142358.028000", "142358.031000", "142358.033000", "142358.036000", "142358.038000", "142358.041000", "142358.044000", "142358.046000", "142358.049000", "142358.051000"],
