{
  "AcquisitionMatrixPE": 104,
  "AcquisitionNumber": 1,
  "AcquisitionTime": "14:11:33.487500",
  "BandwidthPerPixelPhaseEncode": 17.17,
  "BaseResolution": 104,
  "BodyPartExamined": "BRAIN",
  "CoilString": "HC1-7;NC1_2",
  "ConsistencyInfo": "N4_VE11C_LATEST_20160120",
  "ConversionSoftware": "dcm2niix",
  "ConversionSoftwareVersion": "v1.0.20190902",
  "DerivedVendorReportedEchoSpacing": 0.000560011,
  "DeviceSerialNumber": "167006",
  "DwellTime": 2.1e-06,
  "EchoTime": 0.037,
  "EchoTrainLength": 104,
  "EffectiveEchoSpacing": 0.000560011,
  "FlipAngle": 52,
  "HeudiconvVersion": "0.10.0",
  "ImageComments": "Unaliased_MB4_PE3_LB",
  "ImageOrientationPatientDICOM": [0.999846, 0.0135674, 0.0111374, -0.00628228, 0.869053, -0.494679],
  "ImageType": [
    "ORIGINAL",
    "PRIMARY",
    "M",
    "MB",
    "ND",
    "MOSAIC"
],
  "ImagingFrequency": 123.259,
  "InPlanePhaseEncodingDirectionDICOM": "COL",
  "InstitutionAddress": "Chemin_Queen-Mary_4565_Montreal_District_CA_H3W_1W5",
  "InstitutionName": "IUGM",
  "InstitutionalDepartmentName": "Department",
  "MRAcquisitionType": "2D",
  "MagneticFieldStrength": 3,
  "Manufacturer": "Siemens",
  "ManufacturersModelName": "Prisma_fit",
  "Modality": "MR",
  "MultibandAccelerationFactor": 4,
  "PartialFourier": 1,
  "PatientPosition": "HFS",
  "PercentPhaseFOV": 100,
  "PhaseEncodingDirection": "j",
  "PhaseEncodingSteps": 104,
  "PhaseResolution": 1,
  "PixelBandwidth": 2290,
  "ProcedureStepDescription": "games_mario",
  "ProtocolName": "func_task-mario_run-02",
  "PulseSequenceDetails": "%CustomerSeq%_cmrr_mbep2d_bold",
  "ReceiveCoilActiveElements": "HC1-7;NC1,2",
  "ReceiveCoilName": "HeadNeck_64",
  "ReconMatrixPE": 104,
  "RepetitionTime": 1.49,
  "SAR": 0.0538722,
  "ScanOptions": "FS",
  "ScanningSequence": "EP",
  "SequenceName": "epfid2d1_104",
  "SequenceVariant": "SK_SS",
  "SeriesDescription": "func_task-mario_run-02",
  "SeriesNumber": 21,
  "ShimSetting": [607, -7193, -8848, 313, 14, -192, -45, -41],
  "SliceThickness": 2,
  "SliceTiming": [0, 0.785, 0.1, 0.8825, 0.1975, 0.98, 0.295, 1.08, 0.3925, 1.1775, 0.49, 1.275, 0.59, 1.3725, 0.6875, 0, 0.785, 0.1, 0.8825, 0.1975, 0.98, 0.295, 1.08, 0.3925, 1.1775, 0.49, 1.275, 0.59, 1.3725, 0.6875, 0, 0.785, 0.1, 0.8825, 0.1975, 0.98, 0.295, 1.08, 0.3925, 1.1775, 0.49, 1.275, 0.59, 1.3725, 0.6875, 0, 0.785, 0.1, 0.8825, 0.1975, 0.98, 0.295, 1.08, 0.3925, 1.1775, 0.49, 1.275, 0.59, 1.3725, 0.6875],
  "SoftwareVersions": "syngo_MR_E11",
  "SpacingBetweenSlices": 2,
  "StationName": "MRC35049",
  "TaskName": "mario",
  "TotalReadoutTime": 0.0576811,
  "TxRefAmp": 281.608,
  "WipMemBlock": "b215ba67-fad8-4162-9500-fcbc20eb5c70||Sequence: R016 ve11c/master r/e634e98; Dec 19 2017 11:00:25 by eja",
  "dcmmeta_affine": [
    [-1.9996918439865112, -0.01256456971168518, 0.0327809676527977, 107.13866424560547],
    [-0.02713472954928875, 1.7381057739257812, -0.9890661835670471, -50.75491714477539],
    [0.0222748015075922, 0.9893585443496704, 1.7380084991455078, -86.13307189941406],
    [0.0, 0.0, 0.0, 1.0]
],
  "dcmmeta_reorient_transform": [
    [0.0, -1.0, 0.0, 103.0],
    [1.0, 0.0, 0.0, 0.0],
    [0.0, 0.0, 1.0, 0.0],
    [0.0, 0.0, 0.0, 1.0]
],
  "dcmmeta_shape": [104, 104, 60, 498],
  "dcmmeta_slice_dim": 2,
  "dcmmeta_version": 0.6,
  "global": {
    "const": {
      "AcquisitionMatrix": [104, 0, 0, 104],
      "AngioFlag": "N",
      "BitsAllocated": 16,
      "BitsStored": 16,
      "BodyPartExamined": "BRAIN",
      "Columns": 832,
      "EchoNumbers": 1,
      "EchoTime": 37.0,
      "EchoTrainLength": 104,
      "FlipAngle": 52.0,
      "HighBit": 15,
      "ImageOrientationPatient": [0.99984593059024, 0.0135673650212, 0.01113740043809, -0.0062822847365, 0.86905290421095, -0.4946792724392],
      "ImagePositionPatient": [-829.15885053088, -770.8175382138, 367.7893394886],
      "ImageType": [
        "ORIGINAL",
        "PRIMARY",
        "M",
        "MB",
        "ND",
        "MOSAIC"
],
      "ImagedNucleus": "1H",
      "ImagingFrequency": 123.258928,
      "InPlanePhaseEncodingDirection": "COL",
      "MRAcquisitionType": "2D",
      "MagneticFieldStrength": 3.0,
      "Manufacturer": "SIEMENS",
      "ManufacturerModelName": "Prisma_fit",
      "Modality": "MR",
      "NumberOfAverages": 1.0,
      "NumberOfPhaseEncodingSteps": 104,
      "PercentPhaseFieldOfView": 100.0,
      "PercentSampling": 100.0,
      "PerformedProcedureStepStartTime": "133450.959000",
      "PhotometricInterpretation": "MONOCHROME2",
      "PixelBandwidth": 2290.0,
      "PixelRepresentation": 0,
      "PixelSpacing": [2.0, 2.0],
      "ProtocolName": "func_task-mario_run-02",
      "RepetitionTime": 1490.0,
      "Rows": 832,
      "SAR": 0.05387222560139,
      "SamplesPerPixel": 1,
      "ScanOptions": "FS",
      "ScanningSequence": "EP",
      "SequenceName": "epfid2d1_104",
      "SequenceVariant": [
        "SK",
        "SS"
],
      "SeriesDescription": "func_task-mario_run-02",
      "SeriesNumber": 21,
      "SeriesTime": "141248.934000",
      "SliceLocation": -47.993966276359,
      "SliceThickness": 2.0,
      "SmallestImagePixelValue": 0,
      "SoftwareVersions": "syngo MR E11",
      "SpacingBetweenSlices": 1.999999979527,
      "SpecificCharacterSet": "ISO_IR 100",
      "StudyID": "1",
      "StudyTime": "133450.847000",
      "TransmitCoilName": "Body",
      "VariableFlipAngleFlag": "N",
      "WindowCenterWidthExplanation": "Algo1",
      "dBdt": 0.0},
    "slices": {}
  },
  "time": {
    "samples": {
      "AcquisitionNumber": [1, 2, 3, 4, 5, 6, 7, 8, 9, 10, 11, 12, 13, 14, 15, 16, 17, 18, 19, 20, 21, 22, 23, 24, 25, 26, 27, 28, 29, 30, 31, 32, 33, 34, 35, 36, 37, 38, 39, 40, 41, 42, 43, 44, 45, 46, 47, 48, 49, 50, 51, 52, 53, 54, 55, 56, 57, 58, 59, 60, 61, 62, 63, 64, 65, 66, 67, 68, 69, 70, 71, 72, 73, 74, 75, 76, 77, 78, 79, 80, 81, 82, 83, 84, 85, 86, 87, 88, 89, 90, 91, 92, 93, 94, 95, 96, 97, 98, 99, 100, 101, 102, 103, 104, 105, 106, 107, 108, 109, 110, 111, 112, 113, 114, 115, 116, 117, 118, 119, 120, 121, 122, 123, 124, 125, 126, 127, 128, 129, 130, 131, 132, 133, 134, 135, 136, 137, 138, 139, 140, 141, 142, 143, 144, 145, 146, 147, 148, 149, 150, 151, 152, 153, 154, 155, 156, 157, 158, 159, 160, 161, 162, 163, 164, 165, 166, 167, 168, 169, 170, 171, 172, 173, 174, 175, 176, 177, 178, 179, 180, 181, 182, 183, 184, 185, 186, 187, 188, 189, 190, 191, 192, 193, 194, 195, 196, 197, 198, 199, 200, 201, 202, 203, 204, 205, 206, 207, 208, 209, 210, 211, 212, 213, 214, 215, 216, 217, 218, 219, 220, 221, 222, 223, 224, 225, 226, 227, 228, 229, 230, 231, 232, 233, 234, 235, 236, 237, 238, 239, 240, 241, 242, 243, 244, 245, 246, 247, 248, 249, 250, 251, 252, 253, 254, 255, 256, 257, 258, 259, 260, 261, 262, 263, 264, 265, 266, 267, 268, 269, 270, 271, 272, 273, 274, 275, 276, 277, 278, 279, 280, 281, 282, 283, 284, 285, 286, 287, 288, 289, 290, 291, 292, 293, 294, 295, 296, 297, 298, 299, 300, 301, 302, 303, 304, 305, 306, 307, 308, 309, 310, 311, 312, 313, 314, 315, 316, 317, 318, 319, 320, 321, 322, 323, 324, 325, 326, 327, 328, 329, 330, 331, 332, 333, 334, 335, 336, 337, 338, 339, 340, 341, 342, 343, 344, 345, 346, 347, 348, 349, 350, 351, 352, 353, 354, 355, 356, 357, 358, 359, 360, 361, 362, 363, 364, 365, 366, 367, 368, 369, 370, 371, 372, 373, 374, 375, 376, 377, 378, 379, 380, 381, 382, 383, 384, 385, 386, 387, 388, 389, 390, 391, 392, 393, 394, 395, 396, 397, 398, 399, 400, 401, 402, 403, 404, 405, 406, 407, 408, 409, 410, 411, 412, 413, 414, 415, 416, 417, 418, 419, 420, 421, 422, 423, 424, 425, 426, 427, 428, 429, 430, 431, 432, 433, 434, 435, 436, 437, 438, 439, 440, 441, 442, 443, 444, 445, 446, 447, 448, 449, 450, 451, 452, 453, 454, 455, 456, 457, 458, 459, 460, 461, 462, 463, 464, 465, 466, 467, 468, 469, 470, 471, 472, 473, 474, 475, 476, 477, 478, 479, 480, 481, 482, 483, 484, 485, 486, 487, 488, 489, 490, 491, 492, 493, 494, 495, 496, 497, 498],
      "AcquisitionTime": ["141133.487500", "141134.977500", "141136.467500", "141137.957500", "141139.447500", "141140.937500", "141142.427500", "141143.917500", "141145.407500", "141146.897500", "141148.387500", "141149.877500", "141151.367500", "141152.857500", "141154.347500", "141155.837500", "141157.327500", "141158.817500", "141200.307500", "141201.797500", "141203.287500", "141204.777500", "141206.267500", "141207.757500", "141209.247500", "141210.737500", "141212.227500", "141213.717500", "141215.207500", "141216.697500", "141218.187500", "141219.677500", "141221.167500", "141222.657500", "141224.147500", "141225.637500", "141227.127500", "141228.617500", "141230.107500", "141231.597500", "141233.087500", "141234.577500", "141236.067500", "141237.557500", "141239.047500", "141240.537500", "141242.027500", "141243.517500", "141245.007500", "141246.497500", "141247.987500", "141249.477500", "141250.967500", "141252.457500", "141253.947500", "141255.437500", "141256.927500", "141258.417500", "141259.907500", "141301.397500", "141302.887500", "141304.377500", "141305.867500", "141307.357500", "141308.847500", "141310.337500", "141311.827500", "141313.317500", "141314.807500", "141316.297500", "141317.787500", "141319.277500", "141320.767500", "141322.257500", "141323.747500", "141325.237500", "141326.727500", "141328.217500", "141329.707500", "141331.197500", "141332.687500", "141334.177500", "141335.667500", "141337.157500", "141338.647500", "141340.137500", "141341.627500", "141343.117500", "141344.607500", "141346.097500", "141347.587500", "141349.077500", "141350.567500", "141352.057500", "141353.547500", "141355.037500", "141356.527500", "141358.017500", "141359.507500", "141400.997500", "141402.487500", "141403.977500", "141405.467500", "141406.957500", "141408.447500", "141409.937500", "141411.427500", "141412.917500", "141414.407500", "141415.897500", "141417.387500", "141418.877500", "141420.367500", "141421.857500", "141423.347500", "141424.837500", "141426.327500", "141427.817500", "141429.307500", "141430.797500", "141432.287500", "141433.777500", "141435.267500", "141436.757500", "141438.247500", "141439.737500", "141441.227500", "141442.717500", "141444.207500", "141445.697500", "141447.187500", "141448.677500", "141450.167500", "141451.657500", "141453.147500", "141454.637500", "141456.127500", "141457.617500", "141459.107500", "141500.597500", "141502.087500", "141503.577500", "141505.067500", "141506.557500", "141508.047500", "141509.537500", "141511.027500", "141512.517500", "141514.007500", "141515.497500", "141516.987500", "141518.477500", "141519.967500", "141521.457500", "141522.947500", "141524.437500", "141525.927500", "141527.417500", "141528.907500", "141530.397500", "141531.887500", "141533.377500", "141534.867500", "141536.357500", "141537.847500", "141539.337500", "141540.827500", "141542.317500", "141543.807500", "141545.297500", "141546.787500", "141548.277500", "141549.767500", "141551.257500", "141552.747500", "141554.237500", "141555.727500", "141557.217500", "141558.707500", "141600.197500", "141601.687500", "141603.177500", "141604.667500", "141606.157500", "141607.647500", "141609.137500", "141610.627500", "141612.117500", "141613.607500", "141615.097500", "141616.587500", "141618.077500", "141619.567500", "141621.057500", "141622.547500", "141624.037500", "141625.527500", "141627.017500", "141628.507500", "141629.997500", "141631.487500", "141632.977500", "141634.467500", "141635.957500", "141637.447500", "141638.937500", "141640.427500", "141641.917500", "141643.407500", "141644.897500", "141646.387500", "141647.877500", "141649.367500", "141650.857500", "141652.347500", "141653.837500", "141655.327500", "141656.817500", "141658.307500", "141659.797500", "141701.287500", "141702.777500", "141704.267500", "141705.757500", "141707.247500", "141708.737500", "141710.227500", "141711.717500", "141713.207500", "141714.697500", "141716.187500", "141717.677500", "141719.167500", "141720.657500", "141722.147500", "141723.637500", "141725.127500", "141726.617500", "141728.107500", "141729.597500", "141731.087500", "141732.577500", "141734.067500", "141735.557500", "141737.047500", "141738.537500", "141740.027500", "141741.517500", "141743.007500", "141744.497500", "141745.987500", "141747.477500", "141748.967500", "141750.457500", "141751.947500", "141753.437500", "141754.927500", "141756.417500", "141757.907500", "141759.397500", "141800.887500", "141802.377500", "141803.867500", "141805.357500", "141806.847500", "141808.337500", "141809.827500", "141811.317500", "141812.807500", "141814.297500", "141815.787500", "141817.277500", "141818.767500", "141820.257500", "141821.747500", "141823.237500", "141824.727500", "141826.217500", "141827.707500", "141829.197500", "141830.687500", "141832.177500", "141833.667500", "141835.157500", "141836.647500", "141838.137500", "141839.627500", "141841.117500", "141842.607500", "141844.097500", "141845.587500", "141847.077500", "141848.567500", "141850.057500", "141851.547500", "141853.037500", "141854.527500", "141856.017500", "141857.507500", "141858.997500", "141900.487500", "141901.977500", "141903.467500", "141904.957500", "141906.447500", "141907.937500", "141909.427500", "141910.917500", "141912.407500", "141913.897500", "141915.387500", "141916.877500", "141918.367500", "141919.857500", "141921.347500", "141922.837500", "141924.327500", "141925.817500", "141927.307500", "141928.797500", "141930.287500", "141931.777500", "141933.267500", "141934.757500", "141936.247500", "141937.737500", "141939.227500", "141940.717500", "141942.207500", "141943.697500", "141945.187500", "141946.677500", "141948.167500", "141949.657500", "141951.147500", "141952.637500", "141954.127500", "141955.617500", "141957.107500", "141958.597500", "142000.087500", "142001.577500", "142003.067500", "142004.557500", "142006.047500", "142007.537500", "142009.027500", "142010.517500", "142012.007500", "142013.497500", "142014.987500", "142016.477500", "142017.967500", "142019.457500", "142020.947500", "142022.437500", "142023.927500", "142025.417500", "142026.907500", "142028.397500", "142029.887500", "142031.377500", "142032.867500", "142034.357500", "142035.847500", "142037.337500", "142038.827500", "142040.317500", "142041.807500", "142043.297500", "142044.787500", "142046.277500", "142047.767500", "142049.257500", "142050.747500", "142052.237500", "142053.727500", "142055.217500", "142056.707500", "142058.197500", "142059.687500", "142101.177500", "142102.667500", "142104.157500", "142105.647500", "142107.137500", "142108.627500", "142110.117500", "142111.607500", "142113.097500", "142114.587500", "142116.077500", "142117.567500", "142119.057500", "142120.547500", "142122.037500", "142123.527500", "142125.017500", "142126.507500", "142127.997500", "142129.487500", "142130.977500", "142132.467500", "142133.957500", "142135.447500", "142136.937500", "142138.427500", "142139.917500", "142141.407500", "142142.897500", "142144.387500", "142145.877500", "142147.367500", "142148.857500", "142150.347500", "142151.837500", "142153.327500", "142154.817500", "142156.307500", "142157.797500", "142159.287500", "142200.777500", "142202.267500", "142203.757500", "142205.247500", "142206.737500", "142208.227500", "142209.717500", "142211.207500", "142212.697500", "142214.187500", "142215.677500", "142217.167500", "142218.657500", "142220.147500", "142221.637500", "142223.127500", "142224.617500", "142226.107500", "142227.597500", "142229.087500", "142230.577500", "142232.067500", "142233.557500", "142235.047500", "142236.537500", "142238.027500", "142239.517500", "142241.007500", "142242.497500", "142243.987500", "142245.477500", "142246.967500", "142248.457500", "142249.947500", "142251.437500", "142252.927500", "142254.417500", "142255.907500", "142257.397500", "142258.887500", "142300.377500", "142301.867500", "142303.357500", "142304.847500", "142306.337500", "142307.827500", "142309.317500", "142310.807500", "142312.297500", "142313.787500", "142315.277500", "142316.767500", "142318.257500", "142319.747500", "142321.237500", "142322.727500", "142324.217500", "142325.707500", "142327.197500", "142328.687500", "142330.177500", "142331.667500", "142333.157500", "142334.647500", "142336.137500", "142337.627500", "142339.117500", "142340.607500", "142342.097500", "142343.587500", "142345.077500", "142346.567500", "142348.057500", "142349.547500", "142351.037500", "142352.527500", "142354.017500"],
      "ContentTime": ["141248.937000", "141248.940000", "141248.944000", "141248.947000", "141248.950000", "141248.954000", "141248.957000", "141248.960000", "141248.964000", "141248.967000", "141248.970000", "141248.974000", "141248.977000", "141248.980000", "141248.983000", "141248.987000", "141248.990000", "141248.993000", "141249.000000", "141249.003000", "141249.007000", "141308.902000", "141308.906000", "141308.909000", "141308.912000", "141308.916000", "141308.919000", "141308.922000", "141308.925000", "141308.929000", "141308.932000", "141308.935000", "141308.938000", "141308.942000", "141308.945000", "141308.948000", "141308.952000", "141308.955000", "141308.958000", "141308.962000", "141308.965000", "141328.903000", "141328.907000", "141328.910000", "141328.913000", "141328.916000", "141328.920000", "141328.923000", "141328.926000", "141328.929000", "141328.933000", "141328.936000", "141328.939000", "141328.952000", "141328.963000", "141328.966000", "141328.970000", "141328.973000", "141328.976000", "141328.979000", "141328.983000", "141348.903000", "141348.907000", "141348.910000", "141348.913000", "141348.916000", "141348.920000", "141348.923000", "141348.926000", "141348.929000", "141348.933000", "141348.936000", "141348.939000", "141348.943000", "141348.946000", "141348.949000", "141348.952000", "141348.956000", "141348.959000", "141348.962000", "141348.965000", "141408.903000", "141408.907000", "141408.910000", "141408.913000", "141408.916000", "141408.920000", "141408.923000", "141408.926000", "141408.930000", "141408.933000", "141408.936000", "141408.940000", "141408.943000", "141408.946000", "141408.949000", "141408.953000", "141408.956000", "141408.959000", "141408.962000", "141408.966000", "141448.903000", "141448.907000", "141448.910000", "141448.913000", "141448.917000", "141448.920000", "141448.923000", "141448.927000", "141448.930000", "141448.933000", "141448.936000", "141448.940000", "141448.943000", "141448.946000", "141448.950000", "141448.953000", "141448.956000", "141448.959000", "141448.963000", "141448.966000", "141448.969000", "141448.973000", "141448.976000", "141448.979000", "141448.982000", "141448.986000", "141448.989000", "141448.992000", "141448.995000", "141528.902000", "141528.906000", "141528.909000", "141528.912000", "141528.916000", "141528.919000", "141528.922000", "141528.926000", "141528.929000", "141528.932000", "141528.936000", "141528.939000", "141528.942000", "141528.945000", "141528.949000", "141528.952000", "141528.955000", "141528.959000", "141528.962000", "141528.965000", "141528.969000", "141528.972000", "141528.975000", "141528.979000", "141528.982000", "141528.998000", "141529.002000", "141608.903000", "141608.907000", "141608.910000", "141608.913000", "141608.917000", "141608.920000", "141608.923000", "141608.926000", "141608.930000", "141608.933000", "141608.936000", "141608.940000", "141608.943000", "141608.946000", "141608.950000", "141608.953000", "141608.956000", "141608.960000", "141608.963000", "141608.966000", "141608.969000", "141608.973000", "141608.976000", "141608.979000", "141608.983000", "141608.986000", "141608.989000", "141648.903000", "141648.907000", "141648.910000", "141648.913000", "141648.917000", "141648.920000", "141648.923000", "141648.927000", "141648.930000", "141648.933000", "141648.936000", "141648.940000", "141648.943000", "141648.946000", "141648.950000", "141648.953000", "141648.956000", "141648.959000", "141648.963000", "141648.966000", "141648.969000", "141648.973000", "141648.976000", "141648.979000", "141648.983000", "141648.986000", "141648.989000", "141728.903000", "141728.907000", "141728.910000", "141728.913000", "141728.917000", "141728.920000", "141728.923000", "141728.927000", "141728.930000", "141728.933000", "141728.937000", "141728.940000", "141728.943000", "141728.946000", "141728.950000", "141728.954000", "141728.957000", "141728.961000", "141728.964000", "141728.967000", "141728.971000", "141728.974000", "141728.977000", "141728.980000", "141728.984000", "141728.987000", "141808.903000", "141808.907000", "141808.910000", "141808.913000", "141808.917000", "141808.920000", "141808.923000", "141808.927000", "141808.930000", "141808.933000", "141808.937000", "141808.940000", "141808.943000", "141808.946000", "141808.950000", "141808.953000", "141808.956000", "141808.977000", "141808.980000", "141808.983000", "141808.986000", "141808.990000", "141808.993000", "141808.996000", "141809.001000", "141809.004000", "141809.007000", "141848.903000", "141848.907000", "141848.910000", "141848.914000", "141848.917000", "141848.920000", "141848.923000", "141848.927000", "141848.930000", "141848.933000", "141848.937000", "141848.940000", "141848.943000", "141848.946000", "141848.950000", "141848.953000", "141848.956000", "141848.960000", "141848.963000", "141848.966000", "141848.970000", "141848.973000", "141848.976000", "141848.980000", "141848.983000", "141848.986000", "141848.990000", "141928.903000", "141928.907000", "141928.910000", "141928.914000", "141928.917000", "141928.920000", "141928.924000", "141928.927000", "141928.930000", "141928.934000", "141928.937000", "141928.940000", "141928.944000", "141928.947000", "141928.950000", "141928.954000", "141928.957000", "141928.960000", "141928.963000", "141928.967000", "141928.970000", "141928.973000", "141928.977000", "141928.980000", "141928.983000", "141928.987000", "141928.990000", "142008.902000", "142008.906000", "142008.909000", "142008.912000", "142008.916000", "142008.919000", "142008.922000", "142008.926000", "142008.929000", "142008.932000", "142008.936000", "142008.939000", "142008.942000", "142008.946000", "142008.949000", "142008.952000", "142008.955000", "142008.959000", "142008.962000", "142008.965000", "142008.969000", "142008.972000", "142008.975000", "142008.979000", "142008.982000", "142008.985000", "142008.989000", "142048.903000", "142048.907000", "142048.910000", "142048.914000", "142048.917000", "142048.920000", "142048.924000", "142048.927000", "142048.930000", "142048.934000", "142048.937000", "142048.941000", "142048.944000", "142048.947000", "142048.951000", "142048.954000", "142048.957000", "142048.961000", "142048.964000", "142048.968000", "142048.971000", "142048.974000", "142048.977000", "142048.981000", "142048.984000", "142048.987000", "142048.991000", "142128.903000", "142128.907000", "142128.910000", "142128.914000", "142128.918000", "142128.922000", "142128.925000", "142128.928000", "142128.932000", "142128.935000", "142128.938000", "142128.942000", "142128.945000", "142128.948000", "142128.952000", "142128.955000", "142128.958000", "142128.962000", "142128.965000", "142128.970000", "142128.973000", "142128.976000", "142128.980000", "142128.983000", "142128.986000", "142128.990000", "142208.903000", "142208.907000", "142208.910000", "142208.913000", "142208.917000", "142208.920000", "142208.923000", "142208.926000", "142208.930000", "142208.933000", "142208.936000", "142208.940000", "142208.943000", "142208.946000", "142208.950000", "142208.953000", "142208.956000", "142208.960000", "142208.963000", "142208.966000", "142208.969000", "142208.973000", "142208.976000", "142208.979000", "142208.982000", "142208.986000", "142208.989000", "142248.903000", "142248.920000", "142248.924000", "142248.927000", "142248.931000", "142248.934000", "142248.937000", "142248.940000", "142248.944000", "142248.947000", "142248.950000", "142248.954000", "142248.957000", "142248.960000", "142248.963000", "142248.967000", "142248.970000", "142248.973000", "142248.977000", "142248.980000", "142248.983000", "142248.987000", "142248.990000", "142248.993000", "142248.997000", "142249.001000", "142249.004000", "142328.903000", "142328.907000", "142328.910000", "142328.914000", "142328.917000", "142328.920000", "142328.923000", "142328.927000", "142328.930000", "142328.934000", "142328.937000", "142328.940000", "142328.944000", "142328.947000", "142328.950000", "142328.954000", "142328.957000", "142328.960000", "142328.964000", "142328.967000", "142328.970000", "142328.973000", "142328.977000", "142328.980000", "142328.983000", "142328.987000", "142328.990000", "142357.882000", "142357.886000", "142357.889000", "142357.892000", "142357.896000", "142357.899000", "142357.903000", "142357.906000", "142357.909000", "142357.913000", "142357.916000", "142357.919000", "142357.923000", "142357.926000", "142357.929000", "142357.933000", "142357.936000", "142357.939000", "142357.943000"],
