{
  "AcquisitionMatrixPE": 104,
  "AcquisitionNumber": 1,
  "AcquisitionTime": "11:18:50.405000",
  "BandwidthPerPixelPhaseEncode": 17.17,
  "BaseResolution": 104,
  "BodyPartExamined": "BRAIN",
  "CoilString": "HC1-7;NC1_2",
  "ConsistencyInfo": "N4_VE11C_LATEST_20160120",
  "ConversionSoftware": "dcm2niix",
  "ConversionSoftwareVersion": "v1.0.20190902",
  "DerivedVendorReportedEchoSpacing": 0.000560011,
  "DeviceSerialNumber": "167006",
  "DwellTime": 2.1e-06,
  "EchoTime": 0.037,
  "EchoTrainLength": 104,
  "EffectiveEchoSpacing": 0.000560011,
  "FlipAngle": 52,
  "HeudiconvVersion": "0.10.0",
  "ImageComments": "Unaliased_MB4_PE3_LB",
  "ImageOrientationPatientDICOM": [0.997083, 0.0588225, 0.0486336, -0.0318572, 0.899788, -0.435162],
  "ImageType": [
    "ORIGINAL",
    "PRIMARY",
    "M",
    "MB",
    "ND",
    "MOSAIC"
],
  "ImagingFrequency": 123.259,
  "InPlanePhaseEncodingDirectionDICOM": "COL",
  "InstitutionAddress": "Chemin_Queen-Mary_4565_Montreal_District_CA_H3W_1W5",
  "InstitutionName": "IUGM",
  "InstitutionalDepartmentName": "Department",
  "MRAcquisitionType": "2D",
  "MagneticFieldStrength": 3,
  "Manufacturer": "Siemens",
  "ManufacturersModelName": "Prisma_fit",
  "Modality": "MR",
  "MultibandAccelerationFactor": 4,
  "PartialFourier": 1,
  "PatientPosition": "HFS",
  "PercentPhaseFOV": 100,
  "PhaseEncodingDirection": "j",
  "PhaseEncodingSteps": 104,
  "PhaseResolution": 1,
  "PixelBandwidth": 2290,
  "ProcedureStepDescription": "games_mario",
  "ProtocolName": "func_task-mario_run-02",
  "PulseSequenceDetails": "%CustomerSeq%_cmrr_mbep2d_bold",
  "ReceiveCoilActiveElements": "HC1-7;NC1,2",
  "ReceiveCoilName": "HeadNeck_64",
  "ReconMatrixPE": 104,
  "RepetitionTime": 1.49,
  "SAR": 0.0417906,
  "ScanOptions": "FS",
  "ScanningSequence": "EP",
  "SequenceName": "epfid2d1_104",
  "SequenceVariant": "SK_SS",
  "SeriesDescription": "func_task-mario_run-02",
  "SeriesNumber": 13,
  "ShimSetting": [638, -7138, -8846, 551, 100, 148, -30, -16],
  "SliceThickness": 2,
  "SliceTiming": [0, 0.785, 0.0975, 0.8825, 0.1975, 0.98, 0.295, 1.0775, 0.3925, 1.1775, 0.49, 1.275, 0.5875, 1.3725, 0.6875, 0, 0.785, 0.0975, 0.8825, 0.1975, 0.98, 0.295, 1.0775, 0.3925, 1.1775, 0.49, 1.275, 0.5875, 1.3725, 0.6875, 0, 0.785, 0.0975, 0.8825, 0.1975, 0.98, 0.295, 1.0775, 0.3925, 1.1775, 0.49, 1.275, 0.5875, 1.3725, 0.6875, 0, 0.785, 0.0975, 0.8825, 0.1975, 0.98, 0.295, 1.0775, 0.3925, 1.1775, 0.49, 1.275, 0.5875, 1.3725, 0.6875],
  "SoftwareVersions": "syngo_MR_E11",
  "SpacingBetweenSlices": 2,
  "StationName": "MRC35049",
  "TaskName": "mario",
  "TotalReadoutTime": 0.0576811,
  "TxRefAmp": 253.398,
  "WipMemBlock": "e1ac2e15-2198-4e89-a3e4-34ef7736314e||Sequence: R016 ve11c/master r/e634e98; Dec 19 2017 11:00:25 by eja",
  "dcmmeta_affine": [
    [-1.9941661357879639, -0.0637143924832344, 0.13871456682682037, 106.61688232421875],
    [-0.11764499545097351, 1.7995764017105103, -0.8646875023841858, -48.36288833618164],
    [0.09726721048355103, 0.8703248500823975, 1.7980750799179077, -72.85359191894531],
    [0.0, 0.0, 0.0, 1.0]
],
  "dcmmeta_reorient_transform": [
    [0.0, -1.0, 0.0, 103.0],
    [1.0, 0.0, 0.0, 0.0],
    [0.0, 0.0, 1.0, 0.0],
    [0.0, 0.0, 0.0, 1.0]
],
  "dcmmeta_shape": [104, 104, 60, 433],
  "dcmmeta_slice_dim": 2,
  "dcmmeta_version": 0.6,
  "global": {
    "const": {
      "AcquisitionMatrix": [104, 0, 0, 104],
      "AngioFlag": "N",
      "BitsAllocated": 16,
      "BitsStored": 16,
      "BodyPartExamined": "BRAIN",
      "Columns": 832,
      "EchoNumbers": 1,
      "EchoTime": 37.0,
      "EchoTrainLength": 104,
      "FlipAngle": 52.0,
      "HighBit": 15,
      "ImageOrientationPatient": [0.99708308881568, 0.05882249947782, 0.04863360518163, -0.0318571978503, 0.89978819149424, -0.4351624172567],
      "ImagePositionPatient": [-802.73874861501, -834.86206089217, 298.18284345733],
      "ImageType": [
        "ORIGINAL",
        "PRIMARY",
        "M",
        "MB",
        "ND",
        "MOSAIC"
],
      "ImagedNucleus": "1H",
      "ImagingFrequency": 123.258954,
      "InPlanePhaseEncodingDirection": "COL",
      "MRAcquisitionType": "2D",
      "MagneticFieldStrength": 3.0,
      "Manufacturer": "SIEMENS",
      "ManufacturerModelName": "Prisma_fit",
      "Modality": "MR",
      "NumberOfAverages": 1.0,
      "NumberOfPhaseEncodingSteps": 104,
      "PercentPhaseFieldOfView": 100.0,
      "PercentSampling": 100.0,
      "PerformedProcedureStepStartTime": "100706.423000",
      "PhotometricInterpretation": "MONOCHROME2",
      "PixelBandwidth": 2290.0,
      "PixelRepresentation": 0,
      "PixelSpacing": [2.0, 2.0],
      "ProtocolName": "func_task-mario_run-02",
      "RepetitionTime": 1490.0,
      "Rows": 832,
      "SAR": 0.04179058680048,
      "SamplesPerPixel": 1,
      "ScanOptions": "FS",
      "ScanningSequence": "EP",
      "SequenceName": "epfid2d1_104",
      "SequenceVariant": [
        "SK",
        "SS"
],
      "SeriesDescription": "func_task-mario_run-02",
      "SeriesNumber": 13,
      "SeriesTime": "112017.497000",
      "SliceLocation": -37.19405895179,
      "SliceThickness": 2.0,
      "SmallestImagePixelValue": 0,
      "SoftwareVersions": "syngo MR E11",
      "SpacingBetweenSlices": 2.0000000184248,
      "SpecificCharacterSet": "ISO_IR 100",
      "StudyID": "1",
      "StudyTime": "100706.288000",
      "TransmitCoilName": "Body",
      "VariableFlipAngleFlag": "N",
      "WindowCenterWidthExplanation": "Algo1",
      "dBdt": 0.0},
    "slices": {}
  },
  "time": {
    "samples": {
      "AcquisitionNumber": [1, 2, 3, 4, 5, 6, 7, 8, 9, 10, 11, 12, 13, 14, 15, 16, 17, 18, 19, 20, 21, 22, 23, 24, 25, 26, 27, 28, 29, 30, 31, 32, 33, 34, 35, 36, 37, 38, 39, 40, 41, 42, 43, 44, 45, 46, 47, 48, 49, 50, 51, 52, 53, 54, 55, 56, 57, 58, 59, 60, 61, 62, 63, 64, 65, 66, 67, 68, 69, 70, 71, 72, 73, 74, 75, 76, 77, 78, 79, 80, 81, 82, 83, 84, 85, 86, 87, 88, 89, 90, 91, 92, 93, 94, 95, 96, 97, 98, 99, 100, 101, 102, 103, 104, 105, 106, 107, 108, 109, 110, 111, 112, 113, 114, 115, 116, 117, 118, 119, 120, 121, 122, 123, 124, 125, 126, 127, 128, 129, 130, 131, 132, 133, 134, 135, 136, 137, 138, 139, 140, 141, 142, 143, 144, 145, 146, 147, 148, 149, 150, 151, 152, 153, 154, 155, 156, 157, 158, 159, 160, 161, 162, 163, 164, 165, 166, 167, 168, 169, 170, 171, 172, 173, 174, 175, 176, 177, 178, 179, 180, 181, 182, 183, 184, 185, 186, 187, 188, 189, 190, 191, 192, 193, 194, 195, 196, 197, 198, 199, 200, 201, 202, 203, 204, 205, 206, 207, 208, 209, 210, 211, 212, 213, 214, 215, 216, 217, 218, 219, 220, 221, 222, 223, 224, 225, 226, 227, 228, 229, 230, 231, 232, 233, 234, 235, 236, 237, 238, 239, 240, 241, 242, 243, 244, 245, 246, 247, 248, 249, 250, 251, 252, 253, 254, 255, 256, 257, 258, 259, 260, 261, 262, 263, 264, 265, 266, 267, 268, 269, 270, 271, 272, 273, 274, 275, 276, 277, 278, 279, 280, 281, 282, 283, 284, 285, 286, 287, 288, 289, 290, 291, 292, 293, 294, 295, 296, 297, 298, 299, 300, 301, 302, 303, 304, 305, 306, 307, 308, 309, 310, 311, 312, 313, 314, 315, 316, 317, 318, 319, 320, 321, 322, 323, 324, 325, 326, 327, 328, 329, 330, 331, 332, 333, 334, 335, 336, 337, 338, 339, 340, 341, 342, 343, 344, 345, 346, 347, 348, 349, 350, 351, 352, 353, 354, 355, 356, 357, 358, 359, 360, 361, 362, 363, 364, 365, 366, 367, 368, 369, 370, 371, 372, 373, 374, 375, 376, 377, 378, 379, 380, 381, 382, 383, 384, 385, 386, 387, 388, 389, 390, 391, 392, 393, 394, 395, 396, 397, 398, 399, 400, 401, 402, 403, 404, 405, 406, 407, 408, 409, 410, 411, 412, 413, 414, 415, 416, 417, 418, 419, 420, 421, 422, 423, 424, 425, 426, 427, 428, 429, 430, 431, 432, 433],
      "AcquisitionTime": ["111850.405000", "111851.895000", "111853.385000", "111854.875000", "111856.365000", "111857.855000", "111859.345000", "111900.835000", "111902.325000", "111903.815000", "111905.305000", "111906.795000", "111908.285000", "111909.775000", "111911.265000", "111912.755000", "111914.245000", "111915.735000", "111917.225000", "111918.715000", "111920.205000", "111921.695000", "111923.185000", "111924.675000", "111926.165000", "111927.655000", "111929.145000", "111930.635000", "111932.125000", "111933.615000", "111935.105000", "111936.595000", "111938.085000", "111939.575000", "111941.065000", "111942.555000", "111944.045000", "111945.535000", "111947.025000", "111948.515000", "111950.005000", "111951.495000", "111952.985000", "111954.475000", "111955.965000", "111957.455000", "111958.945000", "112000.435000", "112001.925000", "112003.415000", "112004.905000", "112006.395000", "112007.885000", "112009.375000", "112010.865000", "112012.355000", "112013.845000", "112015.335000", "112016.825000", "112018.315000", "112019.805000", "112021.295000", "112022.785000", "112024.275000", "112025.765000", "112027.255000", "112028.745000", "112030.235000", "112031.725000", "112033.215000", "112034.705000", "112036.195000", "112037.685000", "112039.175000", "112040.665000", "112042.155000", "112043.645000", "112045.135000", "112046.625000", "112048.115000", "112049.605000", "112051.095000", "112052.585000", "112054.075000", "112055.565000", "112057.055000", "112058.545000", "112100.035000", "112101.525000", "112103.015000", "112104.505000", "112105.995000", "112107.485000", "112108.975000", "112110.465000", "112111.955000", "112113.445000", "112114.935000", "112116.425000", "112117.915000", "112119.405000", "112120.895000", "112122.385000", "112123.875000", "112125.365000", "112126.855000", "112128.345000", "112129.835000", "112131.325000", "112132.815000", "112134.305000", "112135.795000", "112137.285000", "112138.775000", "112140.265000", "112141.755000", "112143.245000", "112144.735000", "112146.225000", "112147.715000", "112149.205000", "112150.695000", "112152.185000", "112153.675000", "112155.165000", "112156.655000", "112158.145000", "112159.635000", "112201.125000", "112202.615000", "112204.105000", "112205.595000", "112207.085000", "112208.575000", "112210.065000", "112211.555000", "112213.045000", "112214.535000", "112216.025000", "112217.515000", "112219.005000", "112220.495000", "112221.985000", "112223.475000", "112224.965000", "112226.455000", "112227.945000", "112229.435000", "112230.925000", "112232.415000", "112233.905000", "112235.395000", "112236.885000", "112238.375000", "112239.865000", "112241.355000", "112242.845000", "112244.335000", "112245.825000", "112247.315000", "112248.805000", "112250.295000", "112251.785000", "112253.275000", "112254.765000", "112256.255000", "112257.745000", "112259.235000", "112300.725000", "112302.215000", "112303.705000", "112305.195000", "112306.685000", "112308.175000", "112309.665000", "112311.155000", "112312.645000", "112314.135000", "112315.625000", "112317.115000", "112318.605000", "112320.095000", "112321.585000", "112323.075000", "112324.565000", "112326.055000", "112327.545000", "112329.035000", "112330.525000", "112332.015000", "112333.505000", "112334.995000", "112336.485000", "112337.975000", "112339.465000", "112340.955000", "112342.445000", "112343.935000", "112345.425000", "112346.915000", "112348.405000", "112349.895000", "112351.385000", "112352.875000", "112354.365000", "112355.855000", "112357.345000", "112358.835000", "112400.325000", "112401.815000", "112403.305000", "112404.795000", "112406.285000", "112407.775000", "112409.265000", "112410.755000", "112412.245000", "112413.735000", "112415.225000", "112416.715000", "112418.205000", "112419.695000", "112421.185000", "112422.675000", "112424.165000", "112425.655000", "112427.145000", "112428.635000", "112430.125000", "112431.615000", "112433.105000", "112434.595000", "112436.085000", "112437.575000", "112439.065000", "112440.555000", "112442.045000", "112443.535000", "112445.025000", "112446.515000", "112448.005000", "112449.495000", "112450.985000", "112452.475000", "112453.965000", "112455.455000", "112456.945000", "112458.435000", "112459.925000", "112501.415000", "112502.905000", "112504.395000", "112505.885000", "112507.375000", "112508.865000", "112510.355000", "112511.845000", "112513.335000", "112514.825000", "112516.315000", "112517.805000", "112519.295000", "112520.785000", "112522.275000", "112523.765000", "112525.255000", "112526.745000", "112528.235000", "112529.725000", "112531.215000", "112532.705000", "112534.195000", "112535.685000", "112537.175000", "112538.665000", "112540.155000", "112541.645000", "112543.135000", "112544.625000", "112546.115000", "112547.605000", "112549.095000", "112550.585000", "112552.075000", "112553.565000", "112555.055000", "112556.545000", "112558.035000", "112559.525000", "112601.015000", "112602.505000", "112603.995000", "112605.485000", "112606.975000", "112608.465000", "112609.955000", "112611.445000", "112612.935000", "112614.425000", "112615.915000", "112617.405000", "112618.895000", "112620.385000", "112621.875000", "112623.365000", "112624.855000", "112626.345000", "112627.835000", "112629.325000", "112630.815000", "112632.305000", "112633.795000", "112635.285000", "112636.775000", "112638.265000", "112639.755000", "112641.245000", "112642.735000", "112644.225000", "112645.715000", "112647.205000", "112648.695000", "112650.185000", "112651.675000", "112653.165000", "112654.655000", "112656.145000", "112657.635000", "112659.125000", "112700.615000", "112702.105000", "112703.595000", "112705.085000", "112706.575000", "112708.065000", "112709.555000", "112711.045000", "112712.535000", "112714.025000", "112715.515000", "112717.005000", "112718.495000", "112719.985000", "112721.475000", "112722.965000", "112724.455000", "112725.945000", "112727.435000", "112728.925000", "112730.415000", "112731.905000", "112733.395000", "112734.885000", "112736.375000", "112737.865000", "112739.355000", "112740.845000", "112742.335000", "112743.825000", "112745.315000", "112746.805000", "112748.295000", "112749.785000", "112751.275000", "112752.765000", "112754.255000", "112755.745000", "112757.235000", "112758.725000", "112800.215000", "112801.705000", "112803.195000", "112804.685000", "112806.175000", "112807.665000", "112809.155000", "112810.645000", "112812.135000", "112813.625000", "112815.115000", "112816.605000", "112818.095000", "112819.585000", "112821.075000", "112822.565000", "112824.055000", "112825.545000", "112827.035000", "112828.525000", "112830.015000", "112831.505000", "112832.995000", "112834.485000", "112835.975000", "112837.465000", "112838.955000", "112840.445000", "112841.935000", "112843.425000", "112844.915000", "112846.405000", "112847.895000", "112849.385000", "112850.875000", "112852.365000", "112853.855000", "112855.345000", "112856.835000", "112858.325000", "112859.815000", "112901.305000", "112902.795000", "112904.285000", "112905.775000", "112907.265000", "112908.755000", "112910.245000", "112911.735000", "112913.225000", "112914.715000", "112916.205000", "112917.695000", "112919.185000", "112920.675000", "112922.165000", "112923.655000", "112925.145000", "112926.635000", "112928.125000", "112929.615000", "112931.105000", "112932.595000", "112934.085000"],
      "ContentTime": ["112017.500000", "112017.504000", "112017.507000", "112017.510000", "112017.514000", "112017.517000", "112017.520000", "112017.524000", "112017.527000", "112017.530000", "112017.534000", "112017.537000", "112017.540000", "112017.543000", "112017.547000", "112017.550000", "112017.553000", "112017.556000", "112017.560000", "112017.563000", "112017.566000", "112017.570000", "112017.573000", "112017.576000", "112017.580000", "112017.583000", "112017.586000", "112017.590000", "112017.593000", "112017.596000", "112017.599000", "112017.603000", "112017.606000", "112037.465000", "112037.469000", "112037.472000", "112037.475000", "112037.479000", "112037.482000", "112037.485000", "112037.488000", "112037.492000", "112037.495000", "112037.498000", "112037.501000", "112037.505000", "112037.520000", "112037.523000", "112037.526000", "112037.529000", "112037.533000", "112037.536000", "112037.539000", "112057.465000", "112057.469000", "112057.472000", "112057.475000", "112057.479000", "112057.482000", "112057.485000", "112057.489000", "112057.492000", "112057.495000", "112057.499000", "112057.503000", "112057.506000", "112057.510000", "112057.513000", "112057.516000", "112057.519000", "112057.523000", "112057.526000", "112057.529000", "112117.465000", "112117.469000", "112117.472000", "112117.475000", "112117.479000", "112117.482000", "112117.485000", "112117.488000", "112117.492000", "112117.495000", "112117.498000", "112117.502000", "112117.505000", "112117.508000", "112117.512000", "112117.515000", "112117.518000", "112117.521000", "112117.525000", "112117.528000", "112157.464000", "112157.468000", "112157.471000", "112157.474000", "112157.478000", "112157.481000", "112157.484000", "112157.488000", "112157.491000", "112157.494000", "112157.497000", "112157.501000", "112157.504000", "112157.507000", "112157.511000", "112157.514000", "112157.517000", "112157.520000", "112157.524000", "112157.527000", "112157.531000", "112157.535000", "112157.538000", "112157.541000", "112157.545000", "112157.548000", "112157.551000", "112157.555000", "112157.558000", "112157.561000", "112157.565000", "112237.465000", "112237.469000", "112237.472000", "112237.475000", "112237.479000", "112237.482000", "112237.485000", "112237.489000", "112237.492000", "112237.495000", "112237.499000", "112237.502000", "112237.505000", "112237.508000", "112237.512000", "112237.515000", "112237.518000", "112237.522000", "112237.525000", "112237.528000", "112237.532000", "112237.535000", "112237.538000", "112237.542000", "112237.545000", "112237.548000", "112237.552000", "112317.465000", "112317.469000", "112317.472000", "112317.475000", "112317.479000", "112317.482000", "112317.486000", "112317.489000", "112317.492000", "112317.496000", "112317.499000", "112317.502000", "112317.506000", "112317.509000", "112317.512000", "112317.515000", "112317.519000", "112317.522000", "112317.525000", "112317.528000", "112317.532000", "112317.535000", "112317.538000", "112317.542000", "112317.545000", "112317.548000", "112317.551000", "112357.464000", "112357.468000", "112357.471000", "112357.474000", "112357.478000", "112357.481000", "112357.484000", "112357.488000", "112357.491000", "112357.494000", "112357.498000", "112357.501000", "112357.504000", "112357.507000", "112357.511000", "112357.514000", "112357.517000", "112357.521000", "112357.524000", "112357.527000", "112357.531000", "112357.534000", "112357.537000", "112357.540000", "112357.544000", "112357.547000", "112357.550000", "112437.464000", "112437.468000", "112437.471000", "112437.475000", "112437.478000", "112437.481000", "112437.485000", "112437.488000", "112437.491000", "112437.495000", "112437.498000", "112437.501000", "112437.505000", "112437.508000", "112437.511000", "112437.514000", "112437.518000", "112437.521000", "112437.524000", "112437.528000", "112437.531000", "112437.534000", "112437.538000", "112437.541000", "112437.544000", "112437.548000", "112437.551000", "112517.465000", "112517.469000", "112517.472000", "112517.475000", "112517.479000", "112517.482000", "112517.485000", "112517.489000", "112517.511000", "112517.514000", "112517.517000", "112517.521000", "112517.524000", "112517.527000", "112517.531000", "112517.534000", "112517.537000", "112517.541000", "112517.544000", "112517.547000", "112517.550000", "112517.554000", "112517.557000", "112517.560000", "112517.564000", "112517.567000", "112517.570000", "112557.465000", "112557.469000", "112557.472000", "112557.476000", "112557.479000", "112557.482000", "112557.486000", "112557.489000", "112557.493000", "112557.496000", "112557.499000", "112557.502000", "112557.506000", "112557.509000", "112557.512000", "112557.516000", "112557.519000", "112557.522000", "112557.526000", "112557.529000", "112557.532000", "112557.535000", "112557.539000", "112557.542000", "112557.546000", "112557.550000", "112637.464000", "112637.468000", "112637.471000", "112637.474000", "112637.478000", "112637.481000", "112637.484000", "112637.488000", "112637.496000", "112637.500000", "112637.503000", "112637.506000", "112637.510000", "112637.513000", "112637.516000", "112637.520000", "112637.523000", "112637.526000", "112637.530000", "112637.533000", "112637.536000", "112637.540000", "112637.543000", "112637.546000", "112637.550000", "112637.553000", "112637.556000", "112717.465000", "112717.469000", "112717.472000", "112717.476000", "112717.479000", "112717.482000", "112717.486000", "112717.489000", "112717.492000", "112717.496000", "112717.499000", "112717.502000", "112717.506000", "112717.509000", "112717.512000", "112717.516000", "112717.519000", "112717.522000", "112717.525000", "112717.529000", "112717.532000", "112717.535000", "112717.539000", "112717.542000", "112717.545000", "112717.548000", "112717.552000", "112757.465000", "112757.469000", "112757.472000", "112757.476000", "112757.490000", "112757.493000", "112757.496000", "112757.500000", "112757.503000", "112757.506000", "112757.510000", "112757.513000", "112757.516000", "112757.520000", "112757.523000", "112757.526000", "112757.530000", "112757.533000", "112757.536000", "112757.540000", "112757.543000", "112757.546000", "112757.549000", "112757.553000", "112757.556000", "112757.559000", "112757.563000", "112837.464000", "112837.468000", "112837.477000", "112837.482000", "112837.485000", "112837.489000", "112837.492000", "112837.496000", "112837.499000", "112837.502000", "112837.506000", "112837.509000", "112837.512000", "112837.516000", "112837.519000", "112837.522000", "112837.526000", "112837.529000", "112837.532000", "112837.536000", "112837.539000", "112837.542000", "112837.545000", "112837.549000", "112837.552000", "112837.555000", "112837.559000", "112917.464000", "112917.468000", "112917.471000", "112917.475000", "112917.478000", "112917.481000", "112917.485000", "112917.488000", "112917.491000", "112917.494000", "112917.498000", "112917.501000", "112917.504000", "112917.508000", "112917.511000", "112917.514000", "112917.518000", "112917.521000", "112917.524000", "112917.527000", "112917.531000", "112917.534000", "112917.537000", "112917.541000", "112917.544000", "112917.547000", "112917.551000", "112936.828000", "112936.832000", "112936.842000", "112936.846000", "112936.849000", "112936.852000", "112936.855000", "112936.859000", "112936.862000", "112936.865000", "112936.869000", "112936.872000", "112936.875000"],
      "InstanceCreationTime": ["112017.500000", "112017.504000", "112017.507000", "112017.510000", "112017.514000", "112017.517000", "112017.520000", "112017.524000", "112017.527000", "112017.530000", "112017.534000", "112017.537000", "112017.540000", "112017.543000", "112017.547000", "112017.550000", "112017.553000", "112017.556000", "112017.560000", "112017.563000", "112017.566000", "112017.570000", "112017.573000", "112017.576000", "112017.580000", "112017.583000", "112017.586000", "112017.590000", "112017.593000", "112017.596000", "112017.599000", "112017.603000", "112017.606000", "112037.465000", "112037.469000", "112037.472000", "112037.475000", "112037.479000", "112037.482000", "112037.485000", "112037.488000", "112037.492000", "112037.495000", "112037.498000", "112037.501000", "112037.505000", "112037.520000", "112037.523000", "112037.526000", "112037.529000", "112037.533000", "112037.536000", "112037.539000", "112057.465000", "112057.469000", "112057.472000", "112057.475000", "112057.479000", "112057.482000", "112057.485000", "112057.489000", "112057.492000", "112057.495000", "112057.499000", "112057.503000", "112057.506000", "112057.510000", "112057.513000", "112057.516000", "112057.519000", "112057.523000", "112057.526000", "112057.529000", "112117.465000", "112117.469000", "112117.472000", "112117.475000", "112117.479000", "112117.482000", "112117.485000", "112117.488000", "112117.492000", "112117.495000", "112117.498000", "112117.502000", "112117.505000", "112117.508000", "112117.512000", "112117.515000", "112117.518000", "112117.521000", "112117.525000", "112117.528000", "112157.464000", "112157.468000", "112157.471000", "112157.474000", "112157.478000", "112157.481000", "112157.484000", "112157.488000", "112157.491000", "112157.494000", "112157.497000", "112157.501000", "112157.504000", "112157.507000", "112157.511000", "112157.514000", "112157.517000", "112157.520000", "112157.524000", "112157.527000", "112157.531000", "112157.535000", "112157.538000", "112157.541000", "112157.545000", "112157.548000", "112157.551000", "112157.555000", "112157.558000", "112157.561000", "112157.565000", "112237.465000", "112237.469000", "112237.472000", "112237.475000", "112237.479000", "112237.482000", "112237.485000", "112237.489000", "112237.492000", "112237.495000", "112237.499000", "112237.502000", "112237.505000", "112237.508000", "112237.512000", "112237.515000", "112237.518000", "112237.522000", "112237.525000", "112237.528000", "112237.532000", "112237.535000", "112237.538000", "112237.542000", "112237.545000", "112237.548000", "112237.552000", "112317.465000", "112317.469000", "112317.472000", "112317.475000", "112317.479000", "112317.482000", "112317.486000", "112317.489000", "112317.492000", "112317.496000", "112317.499000", "112317.502000", "112317.506000", "112317.509000", "112317.512000", "112317.515000", "112317.519000", "112317.522000", "112317.525000", "112317.528000", "112317.532000", "112317.535000", "112317.538000", "112317.542000", "112317.545000", "112317.548000", "112317.551000", "112357.464000", "112357.468000", "112357.471000", "112357.474000", "112357.478000", "112357.481000", "112357.484000", "112357.488000", "112357.491000", "112357.494000", "112357.498000", "112357.501000", "112357.504000", "112357.507000", "112357.511000", "112357.514000", "112357.517000", "112357.521000", "112357.524000", "112357.527000", "112357.531000", "112357.534000", "112357.537000", "112357.540000", "112357.544000", "112357.547000", "112357.550000", "112437.464000", "112437.468000", "112437.471000", "112437.475000", "112437.478000", "112437.481000", "112437.485000", "112437.488000", "112437.491000", "112437.495000", "112437.498000", "112437.501000", "112437.505000", "112437.508000", "112437.511000", "112437.514000", "112437.518000", "112437.521000", "112437.524000", "112437.528000", "112437.531000", "112437.534000", "112437.538000", "112437.541000", "112437.544000", "112437.548000", "112437.551000", "112517.465000", "112517.469000", "112517.472000", "112517.475000", "112517.479000", "112517.482000", "112517.485000", "112517.489000", "112517.511000", "112517.514000", "112517.517000", "112517.521000", "112517.524000", "112517.527000", "112517.531000", "112517.534000", "112517.537000", "112517.541000", "112517.544000", "112517.547000", "112517.550000", "112517.554000", "112517.557000", "112517.560000", "112517.564000", "112517.567000", "112517.570000", "112557.465000", "112557.469000", "112557.472000", "112557.476000", "112557.479000", "112557.482000", "112557.486000", "112557.489000", "112557.493000", "112557.496000", "112557.499000", "112557.502000", "112557.506000", "112557.509000", "112557.512000", "112557.516000", "112557.519000", "112557.522000", "112557.526000", "112557.529000", "112557.532000", "112557.535000", "112557.539000", "112557.542000", "112557.546000", "112557.550000", "112637.464000", "112637.468000", "112637.471000", "112637.474000", "112637.478000", "112637.481000", "112637.484000", "112637.488000", "112637.496000", "112637.500000", "112637.503000", "112637.506000", "112637.510000", "112637.513000", "112637.516000", "112637.520000", "112637.523000", "112637.526000", "112637.530000", "112637.533000", "112637.536000", "112637.540000", "112637.543000", "112637.546000", "112637.550000", "112637.553000", "112637.556000", "112717.465000", "112717.469000", "112717.472000", "112717.476000", "112717.479000", "112717.482000", "112717.486000", "112717.489000", "112717.492000", "112717.496000", "112717.499000", "112717.502000", "112717.506000", "112717.509000", "112717.512000", "112717.516000", "112717.519000", "112717.522000", "112717.525000", "112717.529000", "112717.532000", "112717.535000", "112717.539000", "112717.542000", "112717.545000", "112717.548000", "112717.552000", "112757.465000", "112757.469000", "112757.472000", "112757.476000", "112757.490000", "112757.493000", "112757.496000", "112757.500000", "112757.503000", "112757.506000", "112757.510000", "112757.513000", "112757.516000", "112757.520000", "112757.523000", "112757.526000", "112757.530000", "112757.533000", "112757.536000", "112757.540000", "112757.543000", "112757.546000", "112757.549000", "112757.553000", "112757.556000", "112757.559000", "112757.563000", "112837.464000", "112837.468000", "112837.477000", "112837.482000", "112837.485000", "112837.489000", "112837.492000", "112837.496000", "112837.499000", "112837.502000", "112837.506000", "112837.509000", "112837.512000", "112837.516000", "112837.519000", "112837.522000", "112837.526000", "112837.529000", "112837.532000", "112837.536000", "112837.539000", "112837.542000", "112837.545000", "112837.549000", "112837.552000", "112837.555000", "112837.559000", "112917.464000", "112917.468000", "112917.471000", "112917.475000", "112917.478000", "112917.481000", "112917.485000", "112917.488000", "112917.491000", "112917.494000", "112917.498000", "112917.501000", "112917.504000", "112917.508000", "112917.511000", "112917.514000", "112917.518000", "112917.521000", "112917.524000", "112917.527000", "112917.531000", "112917.534000", "112917.537000", "112917.541000", "112917.544000", "112917.547000", "112917.551000", "112936.828000", "112936.832000", "112936.842000", "112936.846000", "112936.849000", "112936.852000", "112936.855000", "112936.859000", "112936.862000", "112936.865000", "112936.869000", "112936.872000", "112936.875000"],
