{
  "AcquisitionMatrixPE": 104,
  "AcquisitionNumber": 1,
  "AcquisitionTime": "11:06:11.902500",
  "BandwidthPerPixelPhaseEncode": 17.17,
  "BaseResolution": 104,
  "BodyPartExamined": "BRAIN",
  "CoilString": "HC1-7;NC1_2",
  "ConsistencyInfo": "N4_VE11C_LATEST_20160120",
  "ConversionSoftware": "dcm2niix",
  "ConversionSoftwareVersion": "v1.0.20190902",
  "DerivedVendorReportedEchoSpacing": 0.000560011,
  "DeviceSerialNumber": "167006",
  "DwellTime": 2.1e-06,
  "EchoTime": 0.037,
  "EchoTrainLength": 104,
  "EffectiveEchoSpacing": 0.000560011,
  "FlipAngle": 52,
  "HeudiconvVersion": "0.10.0",
  "ImageComments": "Unaliased_MB4_PE3_LB",
  "ImageOrientationPatientDICOM": [0.997083, 0.0588225, 0.0486336, -0.0318572, 0.899788, -0.435162],
  "ImageType": [
    "ORIGINAL",
    "PRIMARY",
    "M",
    "MB",
    "ND",
    "MOSAIC"
],
  "ImagingFrequency": 123.259,
  "InPlanePhaseEncodingDirectionDICOM": "COL",
  "InstitutionAddress": "Chemin_Queen-Mary_4565_Montreal_District_CA_H3W_1W5",
  "InstitutionName": "IUGM",
  "InstitutionalDepartmentName": "Department",
  "MRAcquisitionType": "2D",
  "MagneticFieldStrength": 3,
  "Manufacturer": "Siemens",
  "ManufacturersModelName": "Prisma_fit",
  "Modality": "MR",
  "MultibandAccelerationFactor": 4,
  "PartialFourier": 1,
  "PatientPosition": "HFS",
  "PercentPhaseFOV": 100,
  "PhaseEncodingDirection": "j",
  "PhaseEncodingSteps": 104,
  "PhaseResolution": 1,
  "PixelBandwidth": 2290,
  "ProcedureStepDescription": "games_mario",
  "ProtocolName": "func_task-mario_run-01",
  "PulseSequenceDetails": "%CustomerSeq%_cmrr_mbep2d_bold",
  "ReceiveCoilActiveElements": "HC1-7;NC1,2",
  "ReceiveCoilName": "HeadNeck_64",
  "ReconMatrixPE": 104,
  "RepetitionTime": 1.49,
  "SAR": 0.0417906,
  "ScanOptions": "FS",
  "ScanningSequence": "EP",
  "SequenceName": "epfid2d1_104",
  "SequenceVariant": "SK_SS",
  "SeriesDescription": "func_task-mario_run-01",
  "SeriesNumber": 10,
  "ShimSetting": [638, -7138, -8846, 551, 100, 148, -30, -16],
  "SliceThickness": 2,
  "SliceTiming": [0, 0.7825, 0.0975, 0.8825, 0.195, 0.98, 0.2925, 1.0775, 0.3925, 1.175, 0.49, 1.2725, 0.5875, 1.3725, 0.685, 0, 0.7825, 0.0975, 0.8825, 0.195, 0.98, 0.2925, 1.0775, 0.3925, 1.175, 0.49, 1.2725, 0.5875, 1.3725, 0.685, 0, 0.7825, 0.0975, 0.8825, 0.195, 0.98, 0.2925, 1.0775, 0.3925, 1.175, 0.49, 1.2725, 0.5875, 1.3725, 0.685, 0, 0.7825, 0.0975, 0.8825, 0.195, 0.98, 0.2925, 1.0775, 0.3925, 1.175, 0.49, 1.2725, 0.5875, 1.3725, 0.685],
  "SoftwareVersions": "syngo_MR_E11",
  "SpacingBetweenSlices": 2,
  "StationName": "MRC35049",
  "TaskName": "mario",
  "TotalReadoutTime": 0.0576811,
  "TxRefAmp": 253.398,
  "WipMemBlock": "2a46baaa-88f2-40d6-ad80-8272f753eb2a||Sequence: R016 ve11c/master r/e634e98; Dec 19 2017 11:00:25 by eja",
  "dcmmeta_affine": [
    [-1.9941661357879639, -0.0637143924832344, 0.13871456682682037, 106.61688232421875],
    [-0.11764499545097351, 1.7995764017105103, -0.8646875023841858, -48.36288833618164],
    [0.09726721048355103, 0.8703248500823975, 1.7980750799179077, -72.85359191894531],
    [0.0, 0.0, 0.0, 1.0]
],
  "dcmmeta_reorient_transform": [
    [0.0, -1.0, 0.0, 103.0],
    [1.0, 0.0, 0.0, 0.0],
    [0.0, 0.0, 1.0, 0.0],
    [0.0, 0.0, 0.0, 1.0]
],
  "dcmmeta_shape": [104, 104, 60, 431],
  "dcmmeta_slice_dim": 2,
  "dcmmeta_version": 0.6,
  "global": {
    "const": {
      "AcquisitionMatrix": [104, 0, 0, 104],
      "AngioFlag": "N",
      "BitsAllocated": 16,
      "BitsStored": 16,
      "BodyPartExamined": "BRAIN",
      "Columns": 832,
      "EchoNumbers": 1,
      "EchoTime": 37.0,
      "EchoTrainLength": 104,
      "FlipAngle": 52.0,
      "HighBit": 15,
      "ImageOrientationPatient": [0.99708308881568, 0.05882249947782, 0.04863360518163, -0.0318571978503, 0.89978819149424, -0.4351624172567],
      "ImagePositionPatient": [-802.73874861501, -834.86206089217, 298.18284345733],
      "ImageType": [
        "ORIGINAL",
        "PRIMARY",
        "M",
        "MB",
        "ND",
        "MOSAIC"
],
      "ImagedNucleus": "1H",
      "ImagingFrequency": 123.258943,
      "InPlanePhaseEncodingDirection": "COL",
      "MRAcquisitionType": "2D",
      "MagneticFieldStrength": 3.0,
      "Manufacturer": "SIEMENS",
      "ManufacturerModelName": "Prisma_fit",
      "Modality": "MR",
      "NumberOfAverages": 1.0,
      "NumberOfPhaseEncodingSteps": 104,
      "PercentPhaseFieldOfView": 100.0,
      "PercentSampling": 100.0,
      "PerformedProcedureStepStartTime": "100706.423000",
      "PhotometricInterpretation": "MONOCHROME2",
      "PixelBandwidth": 2290.0,
      "PixelRepresentation": 0,
      "PixelSpacing": [2.0, 2.0],
      "ProtocolName": "func_task-mario_run-01",
      "RepetitionTime": 1490.0,
      "Rows": 832,
      "SAR": 0.04179058680048,
      "SamplesPerPixel": 1,
      "ScanOptions": "FS",
      "ScanningSequence": "EP",
      "SequenceName": "epfid2d1_104",
      "SequenceVariant": [
        "SK",
        "SS"
],
      "SeriesDescription": "func_task-mario_run-01",
      "SeriesNumber": 10,
      "SeriesTime": "110708.450000",
      "SliceLocation": -37.19405895179,
      "SliceThickness": 2.0,
      "SmallestImagePixelValue": 0,
      "SoftwareVersions": "syngo MR E11",
      "SpacingBetweenSlices": 2.0000000184248,
      "SpecificCharacterSet": "ISO_IR 100",
      "StudyID": "1",
      "StudyTime": "100706.288000",
      "TransmitCoilName": "Body",
      "VariableFlipAngleFlag": "N",
      "WindowCenterWidthExplanation": "Algo1",
      "dBdt": 0.0},
    "slices": {}
  },
  "time": {
    "samples": {
      "AcquisitionNumber": [1, 2, 3, 4, 5, 6, 7, 8, 9, 10, 11, 12, 13, 14, 15, 16, 17, 18, 19, 20, 21, 22, 23, 24, 25, 26, 27, 28, 29, 30, 31, 32, 33, 34, 35, 36, 37, 38, 39, 40, 41, 42, 43, 44, 45, 46, 47, 48, 49, 50, 51, 52, 53, 54, 55, 56, 57, 58, 59, 60, 61, 62, 63, 64, 65, 66, 67, 68, 69, 70, 71, 72, 73, 74, 75, 76, 77, 78, 79, 80, 81, 82, 83, 84, 85, 86, 87, 88, 89, 90, 91, 92, 93, 94, 95, 96, 97, 98, 99, 100, 101, 102, 103, 104, 105, 106, 107, 108, 109, 110, 111, 112, 113, 114, 115, 116, 117, 118, 119, 120, 121, 122, 123, 124, 125, 126, 127, 128, 129, 130, 131, 132, 133, 134, 135, 136, 137, 138, 139, 140, 141, 142, 143, 144, 145, 146, 147, 148, 149, 150, 151, 152, 153, 154, 155, 156, 157, 158, 159, 160, 161, 162, 163, 164, 165, 166, 167, 168, 169, 170, 171, 172, 173, 174, 175, 176, 177, 178, 179, 180, 181, 182, 183, 184, 185, 186, 187, 188, 189, 190, 191, 192, 193, 194, 195, 196, 197, 198, 199, 200, 201, 202, 203, 204, 205, 206, 207, 208, 209, 210, 211, 212, 213, 214, 215, 216, 217, 218, 219, 220, 221, 222, 223, 224, 225, 226, 227, 228, 229, 230, 231, 232, 233, 234, 235, 236, 237, 238, 239, 240, 241, 242, 243, 244, 245, 246, 247, 248, 249, 250, 251, 252, 253, 254, 255, 256, 257, 258, 259, 260, 261, 262, 263, 264, 265, 266, 267, 268, 269, 270, 271, 272, 273, 274, 275, 276, 277, 278, 279, 280, 281, 282, 283, 284, 285, 286, 287, 288, 289, 290, 291, 292, 293, 294, 295, 296, 297, 298, 299, 300, 301, 302, 303, 304, 305, 306, 307, 308, 309, 310, 311, 312, 313, 314, 315, 316, 317, 318, 319, 320, 321, 322, 323, 324, 325, 326, 327, 328, 329, 330, 331, 332, 333, 334, 335, 336, 337, 338, 339, 340, 341, 342, 343, 344, 345, 346, 347, 348, 349, 350, 351, 352, 353, 354, 355, 356, 357, 358, 359, 360, 361, 362, 363, 364, 365, 366, 367, 368, 369, 370, 371, 372, 373, 374, 375, 376, 377, 378, 379, 380, 381, 382, 383, 384, 385, 386, 387, 388, 389, 390, 391, 392, 393, 394, 395, 396, 397, 398, 399, 400, 401, 402, 403, 404, 405, 406, 407, 408, 409, 410, 411, 412, 413, 414, 415, 416, 417, 418, 419, 420, 421, 422, 423, 424, 425, 426, 427, 428, 429, 430, 431],
      "AcquisitionTime": ["110611.902500", "110613.392500", "110614.882500", "110616.372500", "110617.862500", "110619.352500", "110620.842500", "110622.332500", "110623.822500", "110625.312500", "110626.802500", "110628.292500", "110629.782500", "110631.272500", "110632.762500", "110634.252500", "110635.742500", "110637.232500", "110638.722500", "110640.212500", "110641.702500", "110643.192500", "110644.682500", "110646.172500", "110647.662500", "110649.152500", "110650.642500", "110652.132500", "110653.622500", "110655.112500", "110656.602500", "110658.092500", "110659.582500", "110701.072500", "110702.562500", "110704.052500", "110705.542500", "110707.032500", "110708.522500", "110710.012500", "110711.502500", "110712.992500", "110714.482500", "110715.972500", "110717.462500", "110718.952500", "110720.442500", "110721.932500", "110723.422500", "110724.912500", "110726.402500", "110727.892500", "110729.382500", "110730.872500", "110732.362500", "110733.852500", "110735.342500", "110736.832500", "110738.322500", "110739.812500", "110741.302500", "110742.792500", "110744.282500", "110745.772500", "110747.262500", "110748.752500", "110750.242500", "110751.732500", "110753.222500", "110754.712500", "110756.202500", "110757.692500", "110759.182500", "110800.672500", "110802.162500", "110803.652500", "110805.142500", "110806.632500", "110808.122500", "110809.612500", "110811.102500", "110812.592500", "110814.082500", "110815.572500", "110817.062500", "110818.552500", "110820.042500", "110821.532500", "110823.022500", "110824.512500", "110826.002500", "110827.492500", "110828.982500", "110830.472500", "110831.962500", "110833.452500", "110834.942500", "110836.432500", "110837.922500", "110839.412500", "110840.902500", "110842.392500", "110843.882500", "110845.372500", "110846.862500", "110848.352500", "110849.842500", "110851.332500", "110852.822500", "110854.312500", "110855.802500", "110857.292500", "110858.782500", "110900.272500", "110901.762500", "110903.252500", "110904.742500", "110906.232500", "110907.722500", "110909.212500", "110910.702500", "110912.192500", "110913.682500", "110915.172500", "110916.662500", "110918.152500", "110919.642500", "110921.132500", "110922.622500", "110924.112500", "110925.602500", "110927.092500", "110928.582500", "110930.072500", "110931.562500", "110933.052500", "110934.542500", "110936.032500", "110937.522500", "110939.012500", "110940.502500", "110941.992500", "110943.482500", "110944.972500", "110946.462500", "110947.952500", "110949.442500", "110950.932500", "110952.422500", "110953.912500", "110955.402500", "110956.892500", "110958.382500", "110959.872500", "111001.362500", "111002.852500", "111004.342500", "111005.832500", "111007.322500", "111008.812500", "111010.302500", "111011.792500", "111013.282500", "111014.772500", "111016.262500", "111017.752500", "111019.242500", "111020.732500", "111022.222500", "111023.712500", "111025.202500", "111026.692500", "111028.182500", "111029.672500", "111031.162500", "111032.652500", "111034.142500", "111035.632500", "111037.122500", "111038.612500", "111040.102500", "111041.592500", "111043.082500", "111044.572500", "111046.062500", "111047.552500", "111049.042500", "111050.532500", "111052.022500", "111053.512500", "111055.002500", "111056.492500", "111057.982500", "111059.472500", "111100.962500", "111102.452500", "111103.942500", "111105.432500", "111106.922500", "111108.412500", "111109.902500", "111111.392500", "111112.882500", "111114.372500", "111115.862500", "111117.352500", "111118.842500", "111120.332500", "111121.822500", "111123.312500", "111124.802500", "111126.292500", "111127.782500", "111129.272500", "111130.762500", "111132.252500", "111133.742500", "111135.232500", "111136.722500", "111138.212500", "111139.702500", "111141.192500", "111142.682500", "111144.172500", "111145.662500", "111147.152500", "111148.642500", "111150.132500", "111151.622500", "111153.112500", "111154.602500", "111156.092500", "111157.582500", "111159.072500", "111200.562500", "111202.052500", "111203.542500", "111205.032500", "111206.522500", "111208.012500", "111209.502500", "111210.992500", "111212.482500", "111213.972500", "111215.462500", "111216.952500", "111218.442500", "111219.932500", "111221.422500", "111222.912500", "111224.402500", "111225.892500", "111227.382500", "111228.872500", "111230.362500", "111231.852500", "111233.342500", "111234.832500", "111236.322500", "111237.812500", "111239.302500", "111240.792500", "111242.282500", "111243.772500", "111245.262500", "111246.752500", "111248.242500", "111249.732500", "111251.222500", "111252.712500", "111254.202500", "111255.692500", "111257.182500", "111258.672500", "111300.162500", "111301.652500", "111303.142500", "111304.632500", "111306.122500", "111307.612500", "111309.102500", "111310.592500", "111312.082500", "111313.572500", "111315.062500", "111316.552500", "111318.042500", "111319.532500", "111321.022500", "111322.512500", "111324.002500", "111325.492500", "111326.982500", "111328.472500", "111329.962500", "111331.452500", "111332.942500", "111334.432500", "111335.922500", "111337.412500", "111338.902500", "111340.392500", "111341.882500", "111343.372500", "111344.862500", "111346.352500", "111347.842500", "111349.332500", "111350.822500", "111352.312500", "111353.802500", "111355.292500", "111356.782500", "111358.272500", "111359.762500", "111401.252500", "111402.742500", "111404.232500", "111405.722500", "111407.212500", "111408.702500", "111410.192500", "111411.682500", "111413.172500", "111414.662500", "111416.152500", "111417.642500", "111419.132500", "111420.622500", "111422.112500", "111423.602500", "111425.092500", "111426.582500", "111428.072500", "111429.562500", "111431.052500", "111432.542500", "111434.032500", "111435.522500", "111437.012500", "111438.502500", "111439.992500", "111441.482500", "111442.972500", "111444.462500", "111445.952500", "111447.442500", "111448.932500", "111450.422500", "111451.912500", "111453.402500", "111454.892500", "111456.382500", "111457.872500", "111459.362500", "111500.852500", "111502.342500", "111503.832500", "111505.322500", "111506.812500", "111508.302500", "111509.792500", "111511.282500", "111512.772500", "111514.262500", "111515.752500", "111517.242500", "111518.732500", "111520.222500", "111521.712500", "111523.202500", "111524.692500", "111526.182500", "111527.672500", "111529.162500", "111530.652500", "111532.142500", "111533.632500", "111535.122500", "111536.612500", "111538.102500", "111539.592500", "111541.082500", "111542.572500", "111544.062500", "111545.552500", "111547.042500", "111548.532500", "111550.022500", "111551.512500", "111553.002500", "111554.492500", "111555.982500", "111557.472500", "111558.962500", "111600.452500", "111601.942500", "111603.432500", "111604.922500", "111606.412500", "111607.902500", "111609.392500", "111610.882500", "111612.372500", "111613.862500", "111615.352500", "111616.842500", "111618.332500", "111619.822500", "111621.312500", "111622.802500", "111624.292500", "111625.782500", "111627.272500", "111628.762500", "111630.252500", "111631.742500", "111633.232500", "111634.722500", "111636.212500", "111637.702500", "111639.192500", "111640.682500", "111642.172500", "111643.662500", "111645.152500", "111646.642500", "111648.132500", "111649.622500", "111651.112500", "111652.602500"],
      "ContentTime": ["110708.453000", "110728.420000", "110728.424000", "110728.427000", "110728.430000", "110728.434000", "110728.437000", "110728.440000", "110728.443000", "110728.447000", "110728.458000", "110728.461000", "110728.464000", "110728.468000", "110728.471000", "110728.474000", "110728.478000", "110728.481000", "110728.484000", "110728.488000", "110728.491000", "110808.420000", "110808.424000", "110808.427000", "110808.430000", "110808.434000", "110808.437000", "110808.440000", "110808.444000", "110808.447000", "110808.450000", "110808.453000", "110808.457000", "110808.460000", "110808.463000", "110808.467000", "110808.470000", "110808.473000", "110808.476000", "110808.480000", "110808.502000", "110808.505000", "110808.509000", "110808.512000", "110808.515000", "110808.519000", "110808.522000", "110808.525000", "110808.528000", "110808.532000", "110808.543000", "110808.546000", "110808.549000", "110808.553000", "110808.556000", "110808.559000", "110808.563000", "110808.566000", "110808.569000", "110808.573000", "110828.420000", "110828.424000", "110828.427000", "110828.430000", "110828.434000", "110828.437000", "110828.440000", "110828.444000", "110828.447000", "110828.450000", "110828.454000", "110828.457000", "110828.460000", "110828.463000", "110828.467000", "110828.470000", "110828.473000", "110828.477000", "110828.480000", "110828.483000", "110848.420000", "110848.424000", "110848.427000", "110848.431000", "110848.434000", "110848.437000", "110848.441000", "110848.444000", "110848.447000", "110848.451000", "110848.454000", "110848.457000", "110848.461000", "110848.464000", "110848.467000", "110848.470000", "110848.474000", "110848.477000", "110848.480000", "110848.484000", "110848.487000", "110928.419000", "110928.423000", "110928.426000", "110928.429000", "110928.433000", "110928.436000", "110928.439000", "110928.443000", "110928.446000", "110928.449000", "110928.453000", "110928.456000", "110928.459000", "110928.463000", "110928.466000", "110928.469000", "110928.473000", "110928.476000", "110928.479000", "110928.483000", "110928.486000", "110928.489000", "110928.492000", "110928.496000", "110928.499000", "110928.502000", "110928.506000", "110928.509000", "110928.512000", "110928.516000", "111008.420000", "111008.424000", "111008.427000", "111008.430000", "111008.434000", "111008.444000", "111008.448000", "111008.451000", "111008.454000", "111008.457000", "111008.461000", "111008.464000", "111008.468000", "111008.471000", "111008.474000", "111008.478000", "111008.481000", "111008.484000", "111008.488000", "111008.491000", "111008.494000", "111008.498000", "111008.501000", "111008.504000", "111008.508000", "111008.511000", "111008.514000", "111048.420000", "111048.424000", "111048.427000", "111048.431000", "111048.434000", "111048.437000", "111048.441000", "111048.444000", "111048.447000", "111048.450000", "111048.454000", "111048.457000", "111048.461000", "111048.464000", "111048.467000", "111048.471000", "111048.474000", "111048.478000", "111048.481000", "111048.484000", "111048.488000", "111048.491000", "111048.494000", "111048.497000", "111048.501000", "111048.504000", "111048.508000", "111128.420000", "111128.424000", "111128.427000", "111128.430000", "111128.434000", "111128.437000", "111128.440000", "111128.444000", "111128.447000", "111128.450000", "111128.454000", "111128.457000", "111128.460000", "111128.464000", "111128.467000", "111128.470000", "111128.474000", "111128.484000", "111128.487000", "111128.491000", "111128.494000", "111128.497000", "111128.501000", "111128.504000", "111128.512000", "111128.515000", "111128.519000", "111208.420000", "111208.424000", "111208.427000", "111208.431000", "111208.434000", "111208.437000", "111208.441000", "111208.444000", "111208.447000", "111208.451000", "111208.454000", "111208.457000", "111208.461000", "111208.464000", "111208.467000", "111208.471000", "111208.490000", "111208.493000", "111208.497000", "111208.500000", "111208.503000", "111208.507000", "111208.510000", "111208.513000", "111208.517000", "111208.520000", "111208.523000", "111248.420000", "111248.424000", "111248.427000", "111248.431000", "111248.434000", "111248.437000", "111248.441000", "111248.444000", "111248.448000", "111248.451000", "111248.454000", "111248.458000", "111248.461000", "111248.464000", "111248.468000", "111248.471000", "111248.474000", "111248.478000", "111248.481000", "111248.485000", "111248.488000", "111248.491000", "111248.494000", "111248.498000", "111248.501000", "111248.504000", "111328.420000", "111328.424000", "111328.427000", "111328.430000", "111328.434000", "111328.437000", "111328.440000", "111328.444000", "111328.447000", "111328.450000", "111328.454000", "111328.457000", "111328.460000", "111328.464000", "111328.467000", "111328.470000", "111328.474000", "111328.477000", "111328.480000", "111328.484000", "111328.487000", "111328.490000", "111328.493000", "111328.497000", "111328.500000", "111328.504000", "111328.507000", "111408.419000", "111408.423000", "111408.426000", "111408.430000", "111408.433000", "111408.436000", "111408.440000", "111408.443000", "111408.446000", "111408.450000", "111408.453000", "111408.456000", "111408.460000", "111408.463000", "111408.466000", "111408.470000", "111408.473000", "111408.476000", "111408.479000", "111408.483000", "111408.486000", "111408.489000", "111408.493000", "111408.496000", "111408.500000", "111408.503000", "111408.506000", "111448.420000", "111448.424000", "111448.428000", "111448.431000", "111448.435000", "111448.438000", "111448.442000", "111448.445000", "111448.449000", "111448.452000", "111448.456000", "111448.459000", "111448.462000", "111448.466000", "111448.469000", "111448.473000", "111448.476000", "111448.479000", "111448.483000", "111448.486000", "111448.490000", "111448.493000", "111448.496000", "111448.500000", "111448.503000", "111448.506000", "111448.510000", "111528.420000", "111528.424000", "111528.428000", "111528.431000", "111528.434000", "111528.438000", "111528.441000", "111528.444000", "111528.447000", "111528.451000", "111528.454000", "111528.457000", "111528.461000", "111528.464000", "111528.468000", "111528.471000", "111528.474000", "111528.477000", "111528.481000", "111528.484000", "111528.488000", "111528.491000", "111528.494000", "111528.497000", "111528.501000", "111528.504000", "111528.507000", "111608.422000", "111608.425000", "111608.429000", "111608.432000", "111608.435000", "111608.439000", "111608.442000", "111608.445000", "111608.449000", "111608.452000", "111608.455000", "111608.459000", "111608.462000", "111608.465000", "111608.468000", "111608.472000", "111608.475000", "111608.478000", "111608.482000", "111608.485000", "111608.489000", "111608.492000", "111608.495000", "111608.498000", "111608.502000", "111608.505000", "111608.508000", "111648.422000", "111648.427000", "111648.431000", "111648.435000", "111648.439000", "111648.442000", "111648.445000", "111648.449000", "111648.452000", "111648.455000", "111648.467000", "111648.471000", "111648.474000", "111648.477000", "111648.481000", "111648.484000", "111648.487000", "111648.490000", "111648.494000", "111648.497000", "111648.500000", "111648.504000", "111648.507000", "111648.510000", "111648.514000", "111648.517000", "111655.002000", "111655.010000", "111655.015000", "111655.018000", "111655.022000"],
      "InstanceCreationTime": ["110708.453000", "110728.420000", "110728.424000", "110728.427000", "110728.430000", "110728.434000", "110728.437000", "110728.440000", "110728.443000", "110728.447000", "110728.458000", "110728.461000", "110728.464000", "110728.468000", "110728.471000", "110728.474000", "110728.478000", "110728.481000", "110728.484000", "110728.488000", "110728.491000", "110808.420000", "110808.424000", "110808.427000", "110808.430000", "110808.434000", "110808.437000", "110808.440000", "110808.444000", "110808.447000", "110808.450000", "110808.453000", "110808.457000", "110808.460000", "110808.463000", "110808.467000", "110808.470000", "110808.473000", "110808.476000", "110808.480000", "110808.502000", "110808.505000", "110808.509000", "110808.512000", "110808.515000", "110808.519000", "110808.522000", "110808.525000", "110808.528000", "110808.532000", "110808.543000", "110808.546000", "110808.549000", "110808.553000", "110808.556000", "110808.559000", "110808.563000", "110808.566000", "110808.569000", "110808.573000", "110828.420000", "110828.424000", "110828.427000", "110828.430000", "110828.434000", "110828.437000", "110828.440000", "110828.444000", "110828.447000", "110828.450000", "110828.454000", "110828.457000", "110828.460000", "110828.463000", "110828.467000", "110828.470000", "110828.473000", "110828.477000", "110828.480000", "110828.483000", "110848.420000", "110848.424000", "110848.427000", "110848.431000", "110848.434000", "110848.437000", "110848.441000", "110848.444000", "110848.447000", "110848.451000", "110848.454000", "110848.457000", "110848.461000", "110848.464000", "110848.467000", "110848.470000", "110848.474000", "110848.477000", "110848.480000", "110848.484000", "110848.487000", "110928.419000", "110928.423000", "110928.426000", "110928.429000", "110928.433000", "110928.436000", "110928.439000", "110928.443000", "110928.446000", "110928.449000", "110928.453000", "110928.456000", "110928.459000", "110928.463000", "110928.466000", "110928.469000", "110928.473000", "110928.476000", "110928.479000", "110928.483000", "110928.486000", "110928.489000", "110928.492000", "110928.496000", "110928.499000", "110928.502000", "110928.506000", "110928.509000", "110928.512000", "110928.516000", "111008.420000", "111008.424000", "111008.427000", "111008.430000", "111008.434000", "111008.444000", "111008.448000", "111008.451000", "111008.454000", "111008.457000", "111008.461000", "111008.464000", "111008.468000", "111008.471000", "111008.474000", "111008.478000", "111008.481000", "111008.484000", "111008.488000", "111008.491000", "111008.494000", "111008.498000", "111008.501000", "111008.504000", "111008.508000", "111008.511000", "111008.514000", "111048.420000", "111048.424000", "111048.427000", "111048.431000", "111048.434000", "111048.437000", "111048.441000", "111048.444000", "111048.447000", "111048.450000", "111048.454000", "111048.457000", "111048.461000", "111048.464000", "111048.467000", "111048.471000", "111048.474000", "111048.478000", "111048.481000", "111048.484000", "111048.488000", "111048.491000", "111048.494000", "111048.497000", "111048.501000", "111048.504000", "111048.508000", "111128.420000", "111128.424000", "111128.427000", "111128.430000", "111128.434000", "111128.437000", "111128.440000", "111128.444000", "111128.447000", "111128.450000", "111128.454000", "111128.457000", "111128.460000", "111128.464000", "111128.467000", "111128.470000", "111128.474000", "111128.484000", "111128.487000", "111128.491000", "111128.494000", "111128.497000", "111128.501000", "111128.504000", "111128.512000", "111128.515000", "111128.519000", "111208.420000", "111208.424000", "111208.427000", "111208.431000", "111208.434000", "111208.437000", "111208.441000", "111208.444000", "111208.447000", "111208.451000", "111208.454000", "111208.457000", "111208.461000", "111208.464000", "111208.467000", "111208.471000", "111208.490000", "111208.493000", "111208.497000", "111208.500000", "111208.503000", "111208.507000", "111208.510000", "111208.513000", "111208.517000", "111208.520000", "111208.523000", "111248.420000", "111248.424000", "111248.427000", "111248.431000", "111248.434000", "111248.437000", "111248.441000", "111248.444000", "111248.448000", "111248.451000", "111248.454000", "111248.458000", "111248.461000", "111248.464000", "111248.468000", "111248.471000", "111248.474000", "111248.478000", "111248.481000", "111248.485000", "111248.488000", "111248.491000", "111248.494000", "111248.498000", "111248.501000", "111248.504000", "111328.420000", "111328.424000", "111328.427000", "111328.430000", "111328.434000", "111328.437000", "111328.440000", "111328.444000", "111328.447000", "111328.450000", "111328.454000", "111328.457000", "111328.460000", "111328.464000", "111328.467000", "111328.470000", "111328.474000", "111328.477000", "111328.480000", "111328.484000", "111328.487000", "111328.490000", "111328.493000", "111328.497000", "111328.500000", "111328.504000", "111328.507000", "111408.419000", "111408.423000", "111408.426000", "111408.430000", "111408.433000", "111408.436000", "111408.440000", "111408.443000", "111408.446000", "111408.450000", "111408.453000", "111408.456000", "111408.460000", "111408.463000", "111408.466000", "111408.470000", "111408.473000", "111408.476000", "111408.479000", "111408.483000", "111408.486000", "111408.489000", "111408.493000", "111408.496000", "111408.500000", "111408.503000", "111408.506000", "111448.420000", "111448.424000", "111448.428000", "111448.431000", "111448.435000", "111448.438000", "111448.442000", "111448.445000", "111448.449000", "111448.452000", "111448.456000", "111448.459000", "111448.462000", "111448.466000", "111448.469000", "111448.473000", "111448.476000", "111448.479000", "111448.483000", "111448.486000", "111448.490000", "111448.493000", "111448.496000", "111448.500000", "111448.503000", "111448.506000", "111448.510000", "111528.420000", "111528.424000", "111528.428000", "111528.431000", "111528.434000", "111528.438000", "111528.441000", "111528.444000", "111528.447000", "111528.451000", "111528.454000", "111528.457000", "111528.461000", "111528.464000", "111528.468000", "111528.471000", "111528.474000", "111528.477000", "111528.481000", "111528.484000", "111528.488000", "111528.491000", "111528.494000", "111528.497000", "111528.501000", "111528.504000", "111528.507000", "111608.422000", "111608.425000", "111608.429000", "111608.432000", "111608.435000", "111608.439000", "111608.442000", "111608.445000", "111608.449000", "111608.452000", "111608.455000", "111608.459000", "111608.462000", "111608.465000", "111608.468000", "111608.472000", "111608.475000", "111608.478000", "111608.482000", "111608.485000", "111608.489000", "111608.492000", "111608.495000", "111608.498000", "111608.502000", "111608.505000", "111608.508000", "111648.422000", "111648.427000", "111648.431000", "111648.435000", "111648.439000", "111648.442000", "111648.445000", "111648.449000", "111648.452000", "111648.455000", "111648.467000", "111648.471000", "111648.474000", "111648.477000", "111648.481000", "111648.484000", "111648.487000", "111648.490000", "111648.494000", "111648.497000", "111648.500000", "111648.504000", "111648.507000", "111648.510000", "111648.514000", "111648.517000", "111655.002000", "111655.010000", "111655.015000", "111655.018000", "111655.022000"],
