{
  "AcquisitionMatrixPE": 104,
  "AcquisitionNumber": 1,
  "AcquisitionTime": "11:43:49.427500",
  "BandwidthPerPixelPhaseEncode": 17.17,
  "BaseResolution": 104,
  "BodyPartExamined": "BRAIN",
  "CoilString": "HC1-7;NC1_2",
  "ConsistencyInfo": "N4_VE11C_LATEST_20160120",
  "ConversionSoftware": "dcm2niix",
  "ConversionSoftwareVersion": "v1.0.20190902",
  "DerivedVendorReportedEchoSpacing": 0.000560011,
  "DeviceSerialNumber": "167006",
  "DwellTime": 2.1e-06,
  "EchoTime": 0.037,
  "EchoTrainLength": 104,
  "EffectiveEchoSpacing": 0.000560011,
  "FlipAngle": 52,
  "HeudiconvVersion": "0.10.0",
  "ImageComments": "Unaliased_MB4_PE3_LB",
  "ImageOrientationPatientDICOM": [0.997083, 0.0588225, 0.0486336, -0.0318572, 0.899788, -0.435162],
  "ImageType": [
    "ORIGINAL",
    "PRIMARY",
    "P",
    "MB",
    "ND",
    "MOSAIC"
],
  "ImagingFrequency": 123.259,
  "InPlanePhaseEncodingDirectionDICOM": "COL",
  "InstitutionAddress": "Chemin_Queen-Mary_4565_Montreal_District_CA_H3W_1W5",
  "InstitutionName": "IUGM",
  "InstitutionalDepartmentName": "Department",
  "MRAcquisitionType": "2D",
  "MagneticFieldStrength": 3,
  "Manufacturer": "Siemens",
  "ManufacturersModelName": "Prisma_fit",
  "Modality": "MR",
  "MultibandAccelerationFactor": 4,
  "PartialFourier": 1,
  "PatientPosition": "HFS",
  "PercentPhaseFOV": 100,
  "PhaseEncodingDirection": "j",
  "PhaseEncodingSteps": 104,
  "PhaseResolution": 1,
  "PixelBandwidth": 2290,
  "ProcedureStepDescription": "games_mario",
  "ProtocolName": "func_task-mario_run-04",
  "PulseSequenceDetails": "%CustomerSeq%_cmrr_mbep2d_bold",
  "ReceiveCoilActiveElements": "HC1-7;NC1,2",
  "ReceiveCoilName": "HeadNeck_64",
  "ReconMatrixPE": 104,
  "RepetitionTime": 1.49,
  "SAR": 0.0417906,
  "ScanOptions": "FS",
  "ScanningSequence": "EP",
  "SequenceName": "epfid2d1_104",
  "SequenceVariant": "SK_SS",
  "SeriesDescription": "func_task-mario_run-04",
  "SeriesNumber": 20,
  "ShimSetting": [638, -7138, -8846, 551, 100, 148, -30, -16],
  "SliceThickness": 2,
  "SliceTiming": [0, 0.7825, 0.0975, 0.88, 0.195, 0.98, 0.2925, 1.0775, 0.39, 1.175, 0.49, 1.2725, 0.5875, 1.37, 0.685, 0, 0.7825, 0.0975, 0.88, 0.195, 0.98, 0.2925, 1.0775, 0.39, 1.175, 0.49, 1.2725, 0.5875, 1.37, 0.685, 0, 0.7825, 0.0975, 0.88, 0.195, 0.98, 0.2925, 1.0775, 0.39, 1.175, 0.49, 1.2725, 0.5875, 1.37, 0.685, 0, 0.7825, 0.0975, 0.88, 0.195, 0.98, 0.2925, 1.0775, 0.39, 1.175, 0.49, 1.2725, 0.5875, 1.37, 0.685],
  "SoftwareVersions": "syngo_MR_E11",
  "SpacingBetweenSlices": 2,
  "StationName": "MRC35049",
  "TaskName": "mario",
  "TotalReadoutTime": 0.0576811,
  "TxRefAmp": 253.398,
  "WipMemBlock": "16ad0319-90a4-47d4-bf25-79336b7fe5ee||Sequence: R016 ve11c/master r/e634e98; Dec 19 2017 11:00:25 by eja",
  "dcmmeta_affine": [
    [-1.9941661357879639, -0.0637143924832344, 0.13871456682682037, 106.61688232421875],
    [-0.11764499545097351, 1.7995764017105103, -0.8646875023841858, -48.36288833618164],
    [0.09726721048355103, 0.8703248500823975, 1.7980750799179077, -72.85359191894531],
    [0.0, 0.0, 0.0, 1.0]
],
  "dcmmeta_reorient_transform": [
    [0.0, -1.0, 0.0, 103.0],
    [1.0, 0.0, 0.0, 0.0],
    [0.0, 0.0, 1.0, 0.0],
    [0.0, 0.0, 0.0, 1.0]
],
  "dcmmeta_shape": [104, 104, 60, 424],
  "dcmmeta_slice_dim": 2,
  "dcmmeta_version": 0.6,
  "global": {
    "const": {
      "AcquisitionMatrix": [104, 0, 0, 104],
      "AngioFlag": "N",
      "BitsAllocated": 16,
      "BitsStored": 16,
      "BodyPartExamined": "BRAIN",
      "Columns": 832,
      "EchoNumbers": 1,
      "EchoTime": 37.0,
      "EchoTrainLength": 104,
      "FlipAngle": 52.0,
      "HighBit": 15,
      "ImageOrientationPatient": [0.99708308881568, 0.05882249947782, 0.04863360518163, -0.0318571978503, 0.89978819149424, -0.4351624172567],
      "ImagePositionPatient": [-802.73874861501, -834.86206089217, 298.18284345733],
      "ImageType": [
        "ORIGINAL",
        "PRIMARY",
        "P",
        "MB",
        "ND",
        "MOSAIC"
],
      "ImagedNucleus": "1H",
      "ImagingFrequency": 123.258966,
      "InPlanePhaseEncodingDirection": "COL",
      "LargestImagePixelValue": 4095,
      "MRAcquisitionType": "2D",
      "MagneticFieldStrength": 3.0,
      "Manufacturer": "SIEMENS",
      "ManufacturerModelName": "Prisma_fit",
      "Modality": "MR",
      "NumberOfAverages": 1.0,
      "NumberOfPhaseEncodingSteps": 104,
      "PercentPhaseFieldOfView": 100.0,
      "PercentSampling": 100.0,
      "PerformedProcedureStepStartTime": "100706.423000",
      "PhotometricInterpretation": "MONOCHROME2",
      "PixelBandwidth": 2290.0,
      "PixelRepresentation": 0,
      "PixelSpacing": [2.0, 2.0],
      "ProtocolName": "func_task-mario_run-04",
      "RepetitionTime": 1490.0,
      "RescaleIntercept": -4096.0,
      "RescaleSlope": 2.0,
      "RescaleType": "US",
      "Rows": 832,
      "SAR": 0.04179058680048,
      "SamplesPerPixel": 1,
      "ScanOptions": "FS",
      "ScanningSequence": "EP",
      "SequenceName": "epfid2d1_104",
      "SequenceVariant": [
        "SK",
        "SS"
],
      "SeriesDescription": "func_task-mario_run-04",
      "SeriesNumber": 20,
      "SeriesTime": "114508.595000",
      "SliceLocation": -37.19405895179,
      "SliceThickness": 2.0,
      "SmallestImagePixelValue": 0,
      "SoftwareVersions": "syngo MR E11",
      "SpacingBetweenSlices": 2.0000000184248,
      "SpecificCharacterSet": "ISO_IR 100",
      "StudyID": "1",
      "StudyTime": "100706.288000",
      "TransmitCoilName": "Body",
      "VariableFlipAngleFlag": "N",
      "WindowCenterWidthExplanation": "Algo1",
      "dBdt": 0.0},
    "slices": {}
  },
  "time": {
    "samples": {
      "AcquisitionNumber": [1, 2, 3, 4, 5, 6, 7, 8, 9, 10, 11, 12, 13, 14, 15, 16, 17, 18, 19, 20, 21, 22, 23, 24, 25, 26, 27, 28, 29, 30, 31, 32, 33, 34, 35, 36, 37, 38, 39, 40, 41, 42, 43, 44, 45, 46, 47, 48, 49, 50, 51, 52, 53, 54, 55, 56, 57, 58, 59, 60, 61, 62, 63, 64, 65, 66, 67, 68, 69, 70, 71, 72, 73, 74, 75, 76, 77, 78, 79, 80, 81, 82, 83, 84, 85, 86, 87, 88, 89, 90, 91, 92, 93, 94, 95, 96, 97, 98, 99, 100, 101, 102, 103, 104, 105, 106, 107, 108, 109, 110, 111, 112, 113, 114, 115, 116, 117, 118, 119, 120, 121, 122, 123, 124, 125, 126, 127, 128, 129, 130, 131, 132, 133, 134, 135, 136, 137, 138, 139, 140, 141, 142, 143, 144, 145, 146, 147, 148, 149, 150, 151, 152, 153, 154, 155, 156, 157, 158, 159, 160, 161, 162, 163, 164, 165, 166, 167, 168, 169, 170, 171, 172, 173, 174, 175, 176, 177, 178, 179, 180, 181, 182, 183, 184, 185, 186, 187, 188, 189, 190, 191, 192, 193, 194, 195, 196, 197, 198, 199, 200, 201, 202, 203, 204, 205, 206, 207, 208, 209, 210, 211, 212, 213, 214, 215, 216, 217, 218, 219, 220, 221, 222, 223, 224, 225, 226, 227, 228, 229, 230, 231, 232, 233, 234, 235, 236, 237, 238, 239, 240, 241, 242, 243, 244, 245, 246, 247, 248, 249, 250, 251, 252, 253, 254, 255, 256, 257, 258, 259, 260, 261, 262, 263, 264, 265, 266, 267, 268, 269, 270, 271, 272, 273, 274, 275, 276, 277, 278, 279, 280, 281, 282, 283, 284, 285, 286, 287, 288, 289, 290, 291, 292, 293, 294, 295, 296, 297, 298, 299, 300, 301, 302, 303, 304, 305, 306, 307, 308, 309, 310, 311, 312, 313, 314, 315, 316, 317, 318, 319, 320, 321, 322, 323, 324, 325, 326, 327, 328, 329, 330, 331, 332, 333, 334, 335, 336, 337, 338, 339, 340, 341, 342, 343, 344, 345, 346, 347, 348, 349, 350, 351, 352, 353, 354, 355, 356, 357, 358, 359, 360, 361, 362, 363, 364, 365, 366, 367, 368, 369, 370, 371, 372, 373, 374, 375, 376, 377, 378, 379, 380, 381, 382, 383, 384, 385, 386, 387, 388, 389, 390, 391, 392, 393, 394, 395, 396, 397, 398, 399, 400, 401, 402, 403, 404, 405, 406, 407, 408, 409, 410, 411, 412, 413, 414, 415, 416, 417, 418, 419, 420, 421, 422, 423, 424],
      "AcquisitionTime": ["114349.427500", "114350.917500", "114352.407500", "114353.897500", "114355.387500", "114356.877500", "114358.367500", "114359.857500", "114401.347500", "114402.837500", "114404.327500", "114405.817500", "114407.307500", "114408.797500", "114410.287500", "114411.777500", "114413.267500", "114414.757500", "114416.247500", "114417.737500", "114419.227500", "114420.717500", "114422.207500", "114423.697500", "114425.187500", "114426.677500", "114428.167500", "114429.657500", "114431.147500", "114432.637500", "114434.127500", "114435.617500", "114437.107500", "114438.597500", "114440.087500", "114441.577500", "114443.067500", "114444.557500", "114446.047500", "114447.537500", "114449.027500", "114450.517500", "114452.007500", "114453.497500", "114454.987500", "114456.477500", "114457.967500", "114459.457500", "114500.947500", "114502.437500", "114503.927500", "114505.417500", "114506.907500", "114508.397500", "114509.887500", "114511.377500", "114512.867500", "114514.357500", "114515.847500", "114517.337500", "114518.827500", "114520.317500", "114521.807500", "114523.297500", "114524.787500", "114526.277500", "114527.767500", "114529.257500", "114530.747500", "114532.237500", "114533.727500", "114535.217500", "114536.707500", "114538.197500", "114539.687500", "114541.177500", "114542.667500", "114544.157500", "114545.647500", "114547.137500", "114548.627500", "114550.117500", "114551.607500", "114553.097500", "114554.587500", "114556.077500", "114557.567500", "114559.057500", "114600.547500", "114602.037500", "114603.527500", "114605.017500", "114606.507500", "114607.997500", "114609.487500", "114610.977500", "114612.467500", "114613.957500", "114615.447500", "114616.937500", "114618.427500", "114619.917500", "114621.407500", "114622.897500", "114624.387500", "114625.877500", "114627.367500", "114628.857500", "114630.347500", "114631.837500", "114633.327500", "114634.817500", "114636.307500", "114637.797500", "114639.287500", "114640.777500", "114642.267500", "114643.757500", "114645.247500", "114646.737500", "114648.227500", "114649.717500", "114651.207500", "114652.697500", "114654.187500", "114655.677500", "114657.167500", "114658.657500", "114700.147500", "114701.637500", "114703.127500", "114704.617500", "114706.107500", "114707.597500", "114709.087500", "114710.577500", "114712.067500", "114713.557500", "114715.047500", "114716.537500", "114718.027500", "114719.517500", "114721.007500", "114722.497500", "114723.987500", "114725.477500", "114726.967500", "114728.457500", "114729.947500", "114731.437500", "114732.927500", "114734.417500", "114735.907500", "114737.397500", "114738.887500", "114740.377500", "114741.867500", "114743.357500", "114744.847500", "114746.337500", "114747.827500", "114749.317500", "114750.807500", "114752.297500", "114753.787500", "114755.277500", "114756.767500", "114758.257500", "114759.747500", "114801.237500", "114802.727500", "114804.217500", "114805.707500", "114807.197500", "114808.687500", "114810.177500", "114811.667500", "114813.157500", "114814.647500", "114816.137500", "114817.627500", "114819.117500", "114820.607500", "114822.097500", "114823.587500", "114825.077500", "114826.567500", "114828.057500", "114829.547500", "114831.037500", "114832.527500", "114834.017500", "114835.507500", "114836.997500", "114838.487500", "114839.977500", "114841.467500", "114842.957500", "114844.447500", "114845.937500", "114847.427500", "114848.917500", "114850.407500", "114851.897500", "114853.387500", "114854.877500", "114856.367500", "114857.857500", "114859.347500", "114900.837500", "114902.327500", "114903.817500", "114905.307500", "114906.797500", "114908.287500", "114909.777500", "114911.267500", "114912.757500", "114914.247500", "114915.737500", "114917.227500", "114918.717500", "114920.207500", "114921.697500", "114923.187500", "114924.677500", "114926.167500", "114927.657500", "114929.147500", "114930.637500", "114932.127500", "114933.617500", "114935.107500", "114936.597500", "114938.087500", "114939.577500", "114941.067500", "114942.557500", "114944.047500", "114945.537500", "114947.027500", "114948.517500", "114950.007500", "114951.497500", "114952.987500", "114954.477500", "114955.967500", "114957.457500", "114958.947500", "115000.437500", "115001.927500", "115003.417500", "115004.907500", "115006.397500", "115007.887500", "115009.377500", "115010.867500", "115012.357500", "115013.847500", "115015.337500", "115016.827500", "115018.317500", "115019.807500", "115021.297500", "115022.787500", "115024.277500", "115025.767500", "115027.257500", "115028.747500", "115030.237500", "115031.727500", "115033.217500", "115034.707500", "115036.197500", "115037.687500", "115039.177500", "115040.667500", "115042.157500", "115043.647500", "115045.137500", "115046.627500", "115048.117500", "115049.607500", "115051.097500", "115052.587500", "115054.077500", "115055.567500", "115057.057500", "115058.547500", "115100.037500", "115101.527500", "115103.017500", "115104.507500", "115105.997500", "115107.487500", "115108.977500", "115110.467500", "115111.957500", "115113.447500", "115114.937500", "115116.427500", "115117.917500", "115119.407500", "115120.897500", "115122.387500", "115123.877500", "115125.367500", "115126.857500", "115128.347500", "115129.837500", "115131.327500", "115132.817500", "115134.307500", "115135.797500", "115137.287500", "115138.777500", "115140.267500", "115141.757500", "115143.247500", "115144.737500", "115146.227500", "115147.717500", "115149.207500", "115150.697500", "115152.187500", "115153.677500", "115155.167500", "115156.657500", "115158.147500", "115159.637500", "115201.127500", "115202.617500", "115204.107500", "115205.597500", "115207.087500", "115208.577500", "115210.067500", "115211.557500", "115213.047500", "115214.537500", "115216.027500", "115217.517500", "115219.007500", "115220.497500", "115221.987500", "115223.477500", "115224.967500", "115226.457500", "115227.947500", "115229.437500", "115230.927500", "115232.417500", "115233.907500", "115235.397500", "115236.887500", "115238.377500", "115239.867500", "115241.357500", "115242.847500", "115244.337500", "115245.827500", "115247.317500", "115248.807500", "115250.297500", "115251.787500", "115253.277500", "115254.767500", "115256.257500", "115257.747500", "115259.237500", "115300.727500", "115302.217500", "115303.707500", "115305.197500", "115306.687500", "115308.177500", "115309.667500", "115311.157500", "115312.647500", "115314.137500", "115315.627500", "115317.117500", "115318.607500", "115320.097500", "115321.587500", "115323.077500", "115324.567500", "115326.057500", "115327.547500", "115329.037500", "115330.527500", "115332.017500", "115333.507500", "115334.997500", "115336.487500", "115337.977500", "115339.467500", "115340.957500", "115342.447500", "115343.937500", "115345.427500", "115346.917500", "115348.407500", "115349.897500", "115351.387500", "115352.877500", "115354.367500", "115355.857500", "115357.347500", "115358.837500", "115400.327500", "115401.817500", "115403.307500", "115404.797500", "115406.287500", "115407.777500", "115409.267500", "115410.757500", "115412.247500", "115413.737500", "115415.227500", "115416.717500", "115418.207500", "115419.697500"],
      "ContentTime": ["114508.597000", "114508.600000", "114508.613000", "114508.616000", "114508.618000", "114508.621000", "114508.623000", "114508.626000", "114508.628000", "114508.631000", "114508.633000", "114508.636000", "114508.638000", "114508.641000", "114508.643000", "114508.645000", "114508.648000", "114508.650000", "114508.653000", "114508.655000", "114508.658000", "114508.660000", "114508.663000", "114508.665000", "114508.668000", "114528.526000", "114528.530000", "114528.532000", "114528.535000", "114528.538000", "114528.540000", "114528.543000", "114528.546000", "114528.549000", "114528.551000", "114528.554000", "114528.556000", "114528.559000", "114528.561000", "114528.564000", "114528.566000", "114528.569000", "114528.572000", "114528.578000", "114528.581000", "114548.543000", "114548.546000", "114548.549000", "114548.551000", "114548.554000", "114548.556000", "114548.559000", "114548.561000", "114548.563000", "114548.566000", "114548.569000", "114548.571000", "114548.574000", "114548.576000", "114548.579000", "114548.581000", "114548.584000", "114548.586000", "114548.589000", "114548.591000", "114548.594000", "114608.530000", "114608.532000", "114608.535000", "114608.537000", "114608.540000", "114608.542000", "114608.545000", "114608.547000", "114608.550000", "114608.552000", "114608.555000", "114608.557000", "114608.560000", "114608.562000", "114608.565000", "114608.567000", "114608.570000", "114608.572000", "114608.575000", "114608.577000", "114628.557000", "114628.560000", "114628.563000", "114628.565000", "114628.568000", "114628.570000", "114628.573000", "114628.575000", "114628.578000", "114628.580000", "114628.583000", "114628.585000", "114628.588000", "114628.590000", "114628.593000", "114628.596000", "114628.598000", "114628.601000", "114628.603000", "114628.606000", "114708.566000", "114708.569000", "114708.571000", "114708.574000", "114708.576000", "114708.579000", "114708.581000", "114708.584000", "114708.586000", "114708.589000", "114708.591000", "114708.593000", "114708.596000", "114708.598000", "114708.601000", "114708.603000", "114708.606000", "114708.608000", "114708.611000", "114708.613000", "114708.616000", "114708.618000", "114708.621000", "114708.623000", "114708.626000", "114708.628000", "114708.631000", "114748.562000", "114748.565000", "114748.567000", "114748.570000", "114748.572000", "114748.575000", "114748.577000", "114748.580000", "114748.582000", "114748.585000", "114748.587000", "114748.590000", "114748.592000", "114748.595000", "114748.597000", "114748.599000", "114748.602000", "114748.604000", "114748.607000", "114748.609000", "114748.612000", "114748.614000", "114748.617000", "114748.619000", "114748.629000", "114748.632000", "114748.634000", "114828.570000", "114828.573000", "114828.575000", "114828.578000", "114828.580000", "114828.583000", "114828.586000", "114828.588000", "114828.591000", "114828.593000", "114828.596000", "114828.598000", "114828.601000", "114828.603000", "114828.606000", "114828.608000", "114828.611000", "114828.613000", "114828.616000", "114828.619000", "114828.621000", "114828.624000", "114828.626000", "114828.629000", "114828.631000", "114828.634000", "114908.584000", "114908.587000", "114908.589000", "114908.592000", "114908.594000", "114908.597000", "114908.599000", "114908.602000", "114908.604000", "114908.607000", "114908.617000", "114908.619000", "114908.622000", "114908.624000", "114908.627000", "114908.629000", "114908.632000", "114908.634000", "114908.638000", "114908.640000", "114908.643000", "114908.645000", "114908.648000", "114908.651000", "114908.653000", "114908.656000", "114908.658000", "114948.992000", "114948.994000", "114948.997000", "114949.001000", "114949.004000", "114949.007000", "114949.010000", "114949.012000", "114949.015000", "114949.018000", "114949.021000", "114949.024000", "114949.026000", "114949.029000", "114949.032000", "114949.034000", "114949.037000", "114949.039000", "114949.042000", "114949.044000", "114949.047000", "114949.049000", "114949.056000", "114949.058000", "114949.061000", "114949.063000", "114949.066000", "115028.576000", "115028.579000", "115028.582000", "115028.584000", "115028.587000", "115028.589000", "115028.592000", "115028.594000", "115028.597000", "115028.600000", "115028.602000", "115028.605000", "115028.607000", "115028.610000", "115028.612000", "115028.615000", "115028.617000", "115028.620000", "115028.622000", "115028.625000", "115028.627000", "115028.630000", "115028.632000", "115028.635000", "115028.637000", "115028.640000", "115028.643000", "115108.572000", "115108.574000", "115108.577000", "115108.579000", "115108.582000", "115108.584000", "115108.587000", "115108.589000", "115108.592000", "115108.595000", "115108.597000", "115108.600000", "115108.602000", "115108.604000", "115108.607000", "115108.609000", "115108.612000", "115108.614000", "115108.617000", "115108.619000", "115108.622000", "115108.624000", "115108.627000", "115108.629000", "115108.632000", "115108.634000", "115108.637000", "115148.552000", "115148.555000", "115148.557000", "115148.560000", "115148.562000", "115148.565000", "115148.567000", "115148.570000", "115148.572000", "115148.575000", "115148.577000", "115148.580000", "115148.582000", "115148.585000", "115148.587000", "115148.590000", "115148.592000", "115148.595000", "115148.597000", "115148.609000", "115148.611000", "115148.614000", "115148.616000", "115148.619000", "115148.621000", "115148.624000", "115148.626000", "115228.571000", "115228.574000", "115228.577000", "115228.579000", "115228.582000", "115228.584000", "115228.587000", "115228.589000", "115228.592000", "115228.594000", "115228.597000", "115228.599000", "115228.602000", "115228.604000", "115228.607000", "115228.609000", "115228.612000", "115228.614000", "115228.617000", "115228.619000", "115228.622000", "115228.624000", "115228.627000", "115228.629000", "115228.632000", "115228.634000", "115308.568000", "115308.571000", "115308.573000", "115308.576000", "115308.578000", "115308.581000", "115308.583000", "115308.586000", "115308.588000", "115308.591000", "115308.593000", "115308.596000", "115308.598000", "115308.601000", "115308.603000", "115308.606000", "115308.608000", "115308.611000", "115308.613000", "115308.616000", "115308.618000", "115308.621000", "115308.623000", "115308.626000", "115308.628000", "115308.631000", "115308.633000", "115348.566000", "115348.568000", "115348.571000", "115348.573000", "115348.576000", "115348.579000", "115348.581000", "115348.583000", "115348.586000", "115348.588000", "115348.591000", "115348.593000", "115348.596000", "115348.598000", "115348.601000", "115348.603000", "115348.606000", "115348.608000", "115348.611000", "115348.613000", "115348.616000", "115348.618000", "115348.621000", "115348.623000", "115348.626000", "115348.628000", "115348.631000", "115422.203000", "115422.206000", "115422.208000", "115422.211000", "115422.213000", "115422.216000", "115422.218000", "115422.221000", "115422.223000", "115422.226000", "115422.228000", "115422.231000", "115422.233000", "115422.236000", "115422.238000", "115422.241000", "115422.244000", "115422.246000", "115422.249000", "115422.252000", "115422.254000", "115422.257000", "115422.259000"],
      "InstanceCreationTime": ["114508.597000", "114508.600000", "114508.613000", "114508.616000", "114508.618000", "114508.621000", "114508.623000", "114508.626000", "114508.628000", "114508.631000", "114508.633000", "114508.636000", "114508.638000", "114508.641000", "114508.643000", "114508.645000", "114508.648000", "114508.650000", "114508.653000", "114508.655000", "114508.658000", "114508.660000", "114508.663000", "114508.665000", "114508.668000", "114528.526000", "114528.530000", "114528.532000", "114528.535000", "114528.538000", "114528.540000", "114528.543000", "114528.546000", "114528.549000", "114528.551000", "114528.554000", "114528.556000", "114528.559000", "114528.561000", "114528.564000", "114528.566000", "114528.569000", "114528.572000", "114528.578000", "114528.581000", "114548.543000", "114548.546000", "114548.549000", "114548.551000", "114548.554000", "114548.556000", "114548.559000", "114548.561000", "114548.563000", "114548.566000", "114548.569000", "114548.571000", "114548.574000", "114548.576000", "114548.579000", "114548.581000", "114548.584000", "114548.586000", "114548.589000", "114548.591000", "114548.594000", "114608.530000", "114608.532000", "114608.535000", "114608.537000", "114608.540000", "114608.542000", "114608.545000", "114608.547000", "114608.550000", "114608.552000", "114608.555000", "114608.557000", "114608.560000", "114608.562000", "114608.565000", "114608.567000", "114608.570000", "114608.572000", "114608.575000", "114608.577000", "114628.557000", "114628.560000", "114628.563000", "114628.565000", "114628.568000", "114628.570000", "114628.573000", "114628.575000", "114628.578000", "114628.580000", "114628.583000", "114628.585000", "114628.588000", "114628.590000", "114628.593000", "114628.596000", "114628.598000", "114628.601000", "114628.603000", "114628.606000", "114708.566000", "114708.569000", "114708.571000", "114708.574000", "114708.576000", "114708.579000", "114708.581000", "114708.584000", "114708.586000", "114708.589000", "114708.591000", "114708.593000", "114708.596000", "114708.598000", "114708.601000", "114708.603000", "114708.606000", "114708.608000", "114708.611000", "114708.613000", "114708.616000", "114708.618000", "114708.621000", "114708.623000", "114708.626000", "114708.628000", "114708.631000", "114748.562000", "114748.565000", "114748.567000", "114748.570000", "114748.572000", "114748.575000", "114748.577000", "114748.580000", "114748.582000", "114748.585000", "114748.587000", "114748.590000", "114748.592000", "114748.595000", "114748.597000", "114748.599000", "114748.602000", "114748.604000", "114748.607000", "114748.609000", "114748.612000", "114748.614000", "114748.617000", "114748.619000", "114748.629000", "114748.632000", "114748.634000", "114828.570000", "114828.573000", "114828.575000", "114828.578000", "114828.580000", "114828.583000", "114828.586000", "114828.588000", "114828.591000", "114828.593000", "114828.596000", "114828.598000", "114828.601000", "114828.603000", "114828.606000", "114828.608000", "114828.611000", "114828.613000", "114828.616000", "114828.619000", "114828.621000", "114828.624000", "114828.626000", "114828.629000", "114828.631000", "114828.634000", "114908.584000", "114908.587000", "114908.589000", "114908.592000", "114908.594000", "114908.597000", "114908.599000", "114908.602000", "114908.604000", "114908.607000", "114908.617000", "114908.619000", "114908.622000", "114908.624000", "114908.627000", "114908.629000", "114908.632000", "114908.634000", "114908.638000", "114908.640000", "114908.643000", "114908.645000", "114908.648000", "114908.651000", "114908.653000", "114908.656000", "114908.658000", "114948.992000", "114948.994000", "114948.997000", "114949.001000", "114949.004000", "114949.007000", "114949.010000", "114949.012000", "114949.015000", "114949.018000", "114949.021000", "114949.024000", "114949.026000", "114949.029000", "114949.032000", "114949.034000", "114949.037000", "114949.039000", "114949.042000", "114949.044000", "114949.047000", "114949.049000", "114949.056000", "114949.058000", "114949.061000", "114949.063000", "114949.066000", "115028.576000", "115028.579000", "115028.582000", "115028.584000", "115028.587000", "115028.589000", "115028.592000", "115028.594000", "115028.597000", "115028.600000", "115028.602000", "115028.605000", "115028.607000", "115028.610000", "115028.612000", "115028.615000", "115028.617000", "115028.620000", "115028.622000", "115028.625000", "115028.627000", "115028.630000", "115028.632000", "115028.635000", "115028.637000", "115028.640000", "115028.643000", "115108.572000", "115108.574000", "115108.577000", "115108.579000", "115108.582000", "115108.584000", "115108.587000", "115108.589000", "115108.592000", "115108.595000", "115108.597000", "115108.600000", "115108.602000", "115108.604000", "115108.607000", "115108.609000", "115108.612000", "115108.614000", "115108.617000", "115108.619000", "115108.622000", "115108.624000", "115108.627000", "115108.629000", "115108.632000", "115108.634000", "115108.637000", "115148.552000", "115148.555000", "115148.557000", "115148.560000", "115148.562000", "115148.565000", "115148.567000", "115148.570000", "115148.572000", "115148.575000", "115148.577000", "115148.580000", "115148.582000", "115148.585000", "115148.587000", "115148.590000", "115148.592000", "115148.595000", "115148.597000", "115148.609000", "115148.611000", "115148.614000", "115148.616000", "115148.619000", "115148.621000", "115148.624000", "115148.626000", "115228.571000", "115228.574000", "115228.577000", "115228.579000", "115228.582000", "115228.584000", "115228.587000", "115228.589000", "115228.592000", "115228.594000", "115228.597000", "115228.599000", "115228.602000", "115228.604000", "115228.607000", "115228.609000", "115228.612000", "115228.614000", "115228.617000", "115228.619000", "115228.622000", "115228.624000", "115228.627000", "115228.629000", "115228.632000", "115228.634000", "115308.568000", "115308.571000", "115308.573000", "115308.576000", "115308.578000", "115308.581000", "115308.583000", "115308.586000", "115308.588000", "115308.591000", "115308.593000", "115308.596000", "115308.598000", "115308.601000", "115308.603000", "115308.606000", "115308.608000", "115308.611000", "115308.613000", "115308.616000", "115308.618000", "115308.621000", "115308.623000", "115308.626000", "115308.628000", "115308.631000", "115308.633000", "115348.566000", "115348.568000", "115348.571000", "115348.573000", "115348.576000", "115348.579000", "115348.581000", "115348.583000", "115348.586000", "115348.588000", "115348.591000", "115348.593000", "115348.596000", "115348.598000", "115348.601000", "115348.603000", "115348.606000", "115348.608000", "115348.611000", "115348.613000", "115348.616000", "115348.618000", "115348.621000", "115348.623000", "115348.626000", "115348.628000", "115348.631000", "115422.203000", "115422.206000", "115422.208000", "115422.211000", "115422.213000", "115422.216000", "115422.218000", "115422.221000", "115422.223000", "115422.226000", "115422.228000", "115422.231000", "115422.233000", "115422.236000", "115422.238000", "115422.241000", "115422.244000", "115422.246000", "115422.249000", "115422.252000", "115422.254000", "115422.257000", "115422.259000"],
