{
  "AcquisitionMatrixPE": 104,
  "AcquisitionNumber": 1,
  "AcquisitionTime": "11:31:7.092500",
  "BandwidthPerPixelPhaseEncode": 17.17,
  "BaseResolution": 104,
  "BodyPartExamined": "BRAIN",
  "CoilString": "HC1-7;NC1_2",
  "ConsistencyInfo": "N4_VE11C_LATEST_20160120",
  "ConversionSoftware": "dcm2niix",
  "ConversionSoftwareVersion": "v1.0.20190902",
  "DerivedVendorReportedEchoSpacing": 0.000560011,
  "DeviceSerialNumber": "167006",
  "DwellTime": 2.1e-06,
  "EchoTime": 0.037,
  "EchoTrainLength": 104,
  "EffectiveEchoSpacing": 0.000560011,
  "FlipAngle": 52,
  "HeudiconvVersion": "0.10.0",
  "ImageComments": "Unaliased_MB4_PE3_LB",
  "ImageOrientationPatientDICOM": [0.997083, 0.0588225, 0.0486336, -0.0318572, 0.899788, -0.435162],
  "ImageType": [
    "ORIGINAL",
    "PRIMARY",
    "P",
    "MB",
    "ND",
    "MOSAIC"
],
  "ImagingFrequency": 123.259,
  "InPlanePhaseEncodingDirectionDICOM": "COL",
  "InstitutionAddress": "Chemin_Queen-Mary_4565_Montreal_District_CA_H3W_1W5",
  "InstitutionName": "IUGM",
  "InstitutionalDepartmentName": "Department",
  "MRAcquisitionType": "2D",
  "MagneticFieldStrength": 3,
  "Manufacturer": "Siemens",
  "ManufacturersModelName": "Prisma_fit",
  "Modality": "MR",
  "MultibandAccelerationFactor": 4,
  "PartialFourier": 1,
  "PatientPosition": "HFS",
  "PercentPhaseFOV": 100,
  "PhaseEncodingDirection": "j",
  "PhaseEncodingSteps": 104,
  "PhaseResolution": 1,
  "PixelBandwidth": 2290,
  "ProcedureStepDescription": "games_mario",
  "ProtocolName": "func_task-mario_run-03",
  "PulseSequenceDetails": "%CustomerSeq%_cmrr_mbep2d_bold",
  "ReceiveCoilActiveElements": "HC1-7;NC1,2",
  "ReceiveCoilName": "HeadNeck_64",
  "ReconMatrixPE": 104,
  "RepetitionTime": 1.49,
  "SAR": 0.0417906,
  "ScanOptions": "FS",
  "ScanningSequence": "EP",
  "SequenceName": "epfid2d1_104",
  "SequenceVariant": "SK_SS",
  "SeriesDescription": "func_task-mario_run-03",
  "SeriesNumber": 17,
  "ShimSetting": [638, -7138, -8846, 551, 100, 148, -30, -16],
  "SliceThickness": 2,
  "SliceTiming": [0, 0.7825, 0.0975, 0.8825, 0.195, 0.98, 0.2925, 1.0775, 0.3925, 1.175, 0.49, 1.2725, 0.5875, 1.3725, 0.685, 0, 0.7825, 0.0975, 0.8825, 0.195, 0.98, 0.2925, 1.0775, 0.3925, 1.175, 0.49, 1.2725, 0.5875, 1.3725, 0.685, 0, 0.7825, 0.0975, 0.8825, 0.195, 0.98, 0.2925, 1.0775, 0.3925, 1.175, 0.49, 1.2725, 0.5875, 1.3725, 0.685, 0, 0.7825, 0.0975, 0.8825, 0.195, 0.98, 0.2925, 1.0775, 0.3925, 1.175, 0.49, 1.2725, 0.5875, 1.3725, 0.685],
  "SoftwareVersions": "syngo_MR_E11",
  "SpacingBetweenSlices": 2,
  "StationName": "MRC35049",
  "TaskName": "mario",
  "TotalReadoutTime": 0.0576811,
  "TxRefAmp": 253.398,
  "WipMemBlock": "2b552c18-2966-49e0-94c9-1629fc128697||Sequence: R016 ve11c/master r/e634e98; Dec 19 2017 11:00:25 by eja",
  "dcmmeta_affine": [
    [-1.9941661357879639, -0.0637143924832344, 0.13871456682682037, 106.61688232421875],
    [-0.11764499545097351, 1.7995764017105103, -0.8646875023841858, -48.36288833618164],
    [0.09726721048355103, 0.8703248500823975, 1.7980750799179077, -72.85359191894531],
    [0.0, 0.0, 0.0, 1.0]
],
  "dcmmeta_reorient_transform": [
    [0.0, -1.0, 0.0, 103.0],
    [1.0, 0.0, 0.0, 0.0],
    [0.0, 0.0, 1.0, 0.0],
    [0.0, 0.0, 0.0, 1.0]
],
  "dcmmeta_shape": [104, 104, 60, 447],
  "dcmmeta_slice_dim": 2,
  "dcmmeta_version": 0.6,
  "global": {
    "const": {
      "AcquisitionMatrix": [104, 0, 0, 104],
      "AngioFlag": "N",
      "BitsAllocated": 16,
      "BitsStored": 16,
      "BodyPartExamined": "BRAIN",
      "Columns": 832,
      "EchoNumbers": 1,
      "EchoTime": 37.0,
      "EchoTrainLength": 104,
      "FlipAngle": 52.0,
      "HighBit": 15,
      "ImageOrientationPatient": [0.99708308881568, 0.05882249947782, 0.04863360518163, -0.0318571978503, 0.89978819149424, -0.4351624172567],
      "ImagePositionPatient": [-802.73874861501, -834.86206089217, 298.18284345733],
      "ImageType": [
        "ORIGINAL",
        "PRIMARY",
        "P",
        "MB",
        "ND",
        "MOSAIC"
],
      "ImagedNucleus": "1H",
      "ImagingFrequency": 123.258961,
      "InPlanePhaseEncodingDirection": "COL",
      "LargestImagePixelValue": 4095,
      "MRAcquisitionType": "2D",
      "MagneticFieldStrength": 3.0,
      "Manufacturer": "SIEMENS",
      "ManufacturerModelName": "Prisma_fit",
      "Modality": "MR",
      "NumberOfAverages": 1.0,
      "NumberOfPhaseEncodingSteps": 104,
      "PercentPhaseFieldOfView": 100.0,
      "PercentSampling": 100.0,
      "PerformedProcedureStepStartTime": "100706.423000",
      "PhotometricInterpretation": "MONOCHROME2",
      "PixelBandwidth": 2290.0,
      "PixelRepresentation": 0,
      "PixelSpacing": [2.0, 2.0],
      "ProtocolName": "func_task-mario_run-03",
      "RepetitionTime": 1490.0,
      "RescaleIntercept": -4096.0,
      "RescaleSlope": 2.0,
      "RescaleType": "US",
      "Rows": 832,
      "SAR": 0.04179058680048,
      "SamplesPerPixel": 1,
      "ScanOptions": "FS",
      "ScanningSequence": "EP",
      "SequenceName": "epfid2d1_104",
      "SequenceVariant": [
        "SK",
        "SS"
],
      "SeriesDescription": "func_task-mario_run-03",
      "SeriesNumber": 17,
      "SeriesTime": "113237.736000",
      "SliceLocation": -37.19405895179,
      "SliceThickness": 2.0,
      "SmallestImagePixelValue": 0,
      "SoftwareVersions": "syngo MR E11",
      "SpacingBetweenSlices": 2.0000000184248,
      "SpecificCharacterSet": "ISO_IR 100",
      "StudyID": "1",
      "StudyTime": "100706.288000",
      "TransmitCoilName": "Body",
      "VariableFlipAngleFlag": "N",
      "WindowCenterWidthExplanation": "Algo1",
      "dBdt": 0.0},
    "slices": {}
  },
  "time": {
    "samples": {
      "AcquisitionNumber": [1, 2, 3, 4, 5, 6, 7, 8, 9, 10, 11, 12, 13, 14, 15, 16, 17, 18, 19, 20, 21, 22, 23, 24, 25, 26, 27, 28, 29, 30, 31, 32, 33, 34, 35, 36, 37, 38, 39, 40, 41, 42, 43, 44, 45, 46, 47, 48, 49, 50, 51, 52, 53, 54, 55, 56, 57, 58, 59, 60, 61, 62, 63, 64, 65, 66, 67, 68, 69, 70, 71, 72, 73, 74, 75, 76, 77, 78, 79, 80, 81, 82, 83, 84, 85, 86, 87, 88, 89, 90, 91, 92, 93, 94, 95, 96, 97, 98, 99, 100, 101, 102, 103, 104, 105, 106, 107, 108, 109, 110, 111, 112, 113, 114, 115, 116, 117, 118, 119, 120, 121, 122, 123, 124, 125, 126, 127, 128, 129, 130, 131, 132, 133, 134, 135, 136, 137, 138, 139, 140, 141, 142, 143, 144, 145, 146, 147, 148, 149, 150, 151, 152, 153, 154, 155, 156, 157, 158, 159, 160, 161, 162, 163, 164, 165, 166, 167, 168, 169, 170, 171, 172, 173, 174, 175, 176, 177, 178, 179, 180, 181, 182, 183, 184, 185, 186, 187, 188, 189, 190, 191, 192, 193, 194, 195, 196, 197, 198, 199, 200, 201, 202, 203, 204, 205, 206, 207, 208, 209, 210, 211, 212, 213, 214, 215, 216, 217, 218, 219, 220, 221, 222, 223, 224, 225, 226, 227, 228, 229, 230, 231, 232, 233, 234, 235, 236, 237, 238, 239, 240, 241, 242, 243, 244, 245, 246, 247, 248, 249, 250, 251, 252, 253, 254, 255, 256, 257, 258, 259, 260, 261, 262, 263, 264, 265, 266, 267, 268, 269, 270, 271, 272, 273, 274, 275, 276, 277, 278, 279, 280, 281, 282, 283, 284, 285, 286, 287, 288, 289, 290, 291, 292, 293, 294, 295, 296, 297, 298, 299, 300, 301, 302, 303, 304, 305, 306, 307, 308, 309, 310, 311, 312, 313, 314, 315, 316, 317, 318, 319, 320, 321, 322, 323, 324, 325, 326, 327, 328, 329, 330, 331, 332, 333, 334, 335, 336, 337, 338, 339, 340, 341, 342, 343, 344, 345, 346, 347, 348, 349, 350, 351, 352, 353, 354, 355, 356, 357, 358, 359, 360, 361, 362, 363, 364, 365, 366, 367, 368, 369, 370, 371, 372, 373, 374, 375, 376, 377, 378, 379, 380, 381, 382, 383, 384, 385, 386, 387, 388, 389, 390, 391, 392, 393, 394, 395, 396, 397, 398, 399, 400, 401, 402, 403, 404, 405, 406, 407, 408, 409, 410, 411, 412, 413, 414, 415, 416, 417, 418, 419, 420, 421, 422, 423, 424, 425, 426, 427, 428, 429, 430, 431, 432, 433, 434, 435, 436, 437, 438, 439, 440, 441, 442, 443, 444, 445, 446, 447],
      "AcquisitionTime": ["113107.092500", "113108.582500", "113110.072500", "113111.562500", "113113.052500", "113114.542500", "113116.032500", "113117.522500", "113119.012500", "113120.502500", "113121.992500", "113123.482500", "113124.972500", "113126.462500", "113127.952500", "113129.442500", "113130.932500", "113132.422500", "113133.912500", "113135.402500", "113136.892500", "113138.382500", "113139.872500", "113141.362500", "113142.852500", "113144.342500", "113145.832500", "113147.322500", "113148.812500", "113150.302500", "113151.792500", "113153.282500", "113154.772500", "113156.262500", "113157.752500", "113159.242500", "113200.732500", "113202.222500", "113203.712500", "113205.202500", "113206.692500", "113208.182500", "113209.672500", "113211.162500", "113212.652500", "113214.142500", "113215.632500", "113217.122500", "113218.612500", "113220.102500", "113221.592500", "113223.082500", "113224.572500", "113226.062500", "113227.552500", "113229.042500", "113230.532500", "113232.022500", "113233.512500", "113235.002500", "113236.492500", "113237.982500", "113239.472500", "113240.962500", "113242.452500", "113243.942500", "113245.432500", "113246.922500", "113248.412500", "113249.902500", "113251.392500", "113252.882500", "113254.372500", "113255.862500", "113257.352500", "113258.842500", "113300.332500", "113301.822500", "113303.312500", "113304.802500", "113306.292500", "113307.782500", "113309.272500", "113310.762500", "113312.252500", "113313.742500", "113315.232500", "113316.722500", "113318.212500", "113319.702500", "113321.192500", "113322.682500", "113324.172500", "113325.662500", "113327.152500", "113328.642500", "113330.132500", "113331.622500", "113333.112500", "113334.602500", "113336.092500", "113337.582500", "113339.072500", "113340.562500", "113342.052500", "113343.542500", "113345.032500", "113346.522500", "113348.012500", "113349.502500", "113350.992500", "113352.482500", "113353.972500", "113355.462500", "113356.952500", "113358.442500", "113359.932500", "113401.422500", "113402.912500", "113404.402500", "113405.892500", "113407.382500", "113408.872500", "113410.362500", "113411.852500", "113413.342500", "113414.832500", "113416.322500", "113417.812500", "113419.302500", "113420.792500", "113422.282500", "113423.772500", "113425.262500", "113426.752500", "113428.242500", "113429.732500", "113431.222500", "113432.712500", "113434.202500", "113435.692500", "113437.182500", "113438.672500", "113440.162500", "113441.652500", "113443.142500", "113444.632500", "113446.122500", "113447.612500", "113449.102500", "113450.592500", "113452.082500", "113453.572500", "113455.062500", "113456.552500", "113458.042500", "113459.532500", "113501.022500", "113502.512500", "113504.002500", "113505.492500", "113506.982500", "113508.472500", "113509.962500", "113511.452500", "113512.942500", "113514.432500", "113515.922500", "113517.412500", "113518.902500", "113520.392500", "113521.882500", "113523.372500", "113524.862500", "113526.352500", "113527.842500", "113529.332500", "113530.822500", "113532.312500", "113533.802500", "113535.292500", "113536.782500", "113538.272500", "113539.762500", "113541.252500", "113542.742500", "113544.232500", "113545.722500", "113547.212500", "113548.702500", "113550.192500", "113551.682500", "113553.172500", "113554.662500", "113556.152500", "113557.642500", "113559.132500", "113600.622500", "113602.112500", "113603.602500", "113605.092500", "113606.582500", "113608.072500", "113609.562500", "113611.052500", "113612.542500", "113614.032500", "113615.522500", "113617.012500", "113618.502500", "113619.992500", "113621.482500", "113622.972500", "113624.462500", "113625.952500", "113627.442500", "113628.932500", "113630.422500", "113631.912500", "113633.402500", "113634.892500", "113636.382500", "113637.872500", "113639.362500", "113640.852500", "113642.342500", "113643.832500", "113645.322500", "113646.812500", "113648.302500", "113649.792500", "113651.282500", "113652.772500", "113654.262500", "113655.752500", "113657.242500", "113658.732500", "113700.222500", "113701.712500", "113703.202500", "113704.692500", "113706.182500", "113707.672500", "113709.162500", "113710.652500", "113712.142500", "113713.632500", "113715.122500", "113716.612500", "113718.102500", "113719.592500", "113721.082500", "113722.572500", "113724.062500", "113725.552500", "113727.042500", "113728.532500", "113730.022500", "113731.512500", "113733.002500", "113734.492500", "113735.982500", "113737.472500", "113738.962500", "113740.452500", "113741.942500", "113743.432500", "113744.922500", "113746.412500", "113747.902500", "113749.392500", "113750.882500", "113752.372500", "113753.862500", "113755.352500", "113756.842500", "113758.332500", "113759.822500", "113801.312500", "113802.802500", "113804.292500", "113805.782500", "113807.272500", "113808.762500", "113810.252500", "113811.742500", "113813.232500", "113814.722500", "113816.212500", "113817.702500", "113819.192500", "113820.682500", "113822.172500", "113823.662500", "113825.152500", "113826.642500", "113828.132500", "113829.622500", "113831.112500", "113832.602500", "113834.092500", "113835.582500", "113837.072500", "113838.562500", "113840.052500", "113841.542500", "113843.032500", "113844.522500", "113846.012500", "113847.502500", "113848.992500", "113850.482500", "113851.972500", "113853.462500", "113854.952500", "113856.442500", "113857.932500", "113859.422500", "113900.912500", "113902.402500", "113903.892500", "113905.382500", "113906.872500", "113908.362500", "113909.852500", "113911.342500", "113912.832500", "113914.322500", "113915.812500", "113917.302500", "113918.792500", "113920.282500", "113921.772500", "113923.262500", "113924.752500", "113926.242500", "113927.732500", "113929.222500", "113930.712500", "113932.202500", "113933.692500", "113935.182500", "113936.672500", "113938.162500", "113939.652500", "113941.142500", "113942.632500", "113944.122500", "113945.612500", "113947.102500", "113948.592500", "113950.082500", "113951.572500", "113953.062500", "113954.552500", "113956.042500", "113957.532500", "113959.022500", "114000.512500", "114002.002500", "114003.492500", "114004.982500", "114006.472500", "114007.962500", "114009.452500", "114010.942500", "114012.432500", "114013.922500", "114015.412500", "114016.902500", "114018.392500", "114019.882500", "114021.372500", "114022.862500", "114024.352500", "114025.842500", "114027.332500", "114028.822500", "114030.312500", "114031.802500", "114033.292500", "114034.782500", "114036.272500", "114037.762500", "114039.252500", "114040.742500", "114042.232500", "114043.722500", "114045.212500", "114046.702500", "114048.192500", "114049.682500", "114051.172500", "114052.662500", "114054.152500", "114055.642500", "114057.132500", "114058.622500", "114100.112500", "114101.602500", "114103.092500", "114104.582500", "114106.072500", "114107.562500", "114109.052500", "114110.542500", "114112.032500", "114113.522500", "114115.012500", "114116.502500", "114117.992500", "114119.482500", "114120.972500", "114122.462500", "114123.952500", "114125.442500", "114126.932500", "114128.422500", "114129.912500", "114131.402500", "114132.892500", "114134.382500", "114135.872500", "114137.362500", "114138.852500", "114140.342500", "114141.832500", "114143.322500", "114144.812500", "114146.302500", "114147.792500", "114149.282500", "114150.772500", "114152.262500", "114153.752500", "114155.242500", "114156.732500", "114158.222500", "114159.712500", "114201.202500", "114202.692500", "114204.182500", "114205.672500", "114207.162500", "114208.652500", "114210.142500", "114211.632500"],
      "ContentTime": ["113237.738000", "113237.741000", "113237.743000", "113237.746000", "113237.748000", "113237.751000", "113237.753000", "113237.756000", "113237.758000", "113237.761000", "113237.763000", "113237.766000", "113237.768000", "113237.771000", "113237.773000", "113237.776000", "113237.778000", "113237.781000", "113237.783000", "113237.786000", "113237.788000", "113237.791000", "113237.793000", "113237.796000", "113237.798000", "113237.801000", "113237.803000", "113237.806000", "113237.808000", "113237.811000", "113237.813000", "113237.816000", "113237.818000", "113237.821000", "113237.823000", "113237.826000", "113237.828000", "113257.638000", "113257.641000", "113257.643000", "113257.646000", "113257.648000", "113257.650000", "113257.653000", "113257.655000", "113257.658000", "113257.660000", "113257.663000", "113257.665000", "113257.668000", "113257.670000", "113257.673000", "113257.675000", "113257.678000", "113257.680000", "113257.683000", "113257.685000", "113317.620000", "113317.623000", "113317.625000", "113317.628000", "113317.631000", "113317.633000", "113317.636000", "113317.638000", "113317.641000", "113317.643000", "113317.645000", "113317.648000", "113317.650000", "113317.653000", "113317.655000", "113317.658000", "113317.660000", "113317.663000", "113317.665000", "113317.683000", "113337.619000", "113337.621000", "113337.624000", "113337.627000", "113337.631000", "113337.634000", "113337.636000", "113337.639000", "113337.642000", "113337.645000", "113337.649000", "113337.652000", "113337.656000", "113337.659000", "113337.661000", "113337.664000", "113337.666000", "113337.669000", "113337.671000", "113337.674000", "113417.668000", "113417.671000", "113417.673000", "113417.676000", "113417.678000", "113417.681000", "113417.684000", "113417.686000", "113417.689000", "113417.691000", "113417.694000", "113417.696000", "113417.699000", "113417.701000", "113417.704000", "113417.706000", "113417.709000", "113417.717000", "113417.719000", "113417.722000", "113417.724000", "113417.727000", "113417.729000", "113417.732000", "113417.734000", "113417.737000", "113417.739000", "113417.742000", "113417.744000", "113417.747000", "113457.641000", "113457.644000", "113457.651000", "113457.653000", "113457.656000", "113457.658000", "113457.661000", "113457.664000", "113457.666000", "113457.669000", "113457.671000", "113457.674000", "113457.676000", "113457.679000", "113457.681000", "113457.684000", "113457.686000", "113457.689000", "113457.691000", "113457.694000", "113457.696000", "113457.699000", "113457.702000", "113457.704000", "113457.707000", "113457.709000", "113537.666000", "113537.668000", "113537.671000", "113537.673000", "113537.676000", "113537.679000", "113537.681000", "113537.684000", "113537.686000", "113537.689000", "113537.691000", "113537.694000", "113537.696000", "113537.699000", "113537.702000", "113537.704000", "113537.707000", "113537.709000", "113537.712000", "113537.714000", "113537.717000", "113537.719000", "113537.722000", "113537.724000", "113537.727000", "113537.730000", "113537.732000", "113617.657000", "113617.660000", "113617.662000", "113617.665000", "113617.667000", "113617.670000", "113617.672000", "113617.675000", "113617.678000", "113617.680000", "113617.683000", "113617.685000", "113617.688000", "113617.690000", "113617.693000", "113617.695000", "113617.698000", "113617.700000", "113617.703000", "113617.706000", "113617.708000", "113617.711000", "113617.713000", "113617.716000", "113617.718000", "113617.721000", "113617.723000", "113657.636000", "113657.639000", "113657.641000", "113657.644000", "113657.647000", "113657.650000", "113657.652000", "113657.655000", "113657.657000", "113657.660000", "113657.662000", "113657.665000", "113657.667000", "113657.670000", "113657.673000", "113657.675000", "113657.677000", "113657.680000", "113657.682000", "113657.685000", "113657.687000", "113657.690000", "113657.692000", "113657.695000", "113657.697000", "113657.700000", "113657.702000", "113738.072000", "113738.075000", "113738.077000", "113738.080000", "113738.082000", "113738.085000", "113738.087000", "113738.090000", "113738.092000", "113738.095000", "113738.098000", "113738.100000", "113738.103000", "113738.105000", "113738.108000", "113738.110000", "113738.113000", "113738.115000", "113738.118000", "113738.120000", "113738.123000", "113738.125000", "113738.128000", "113738.131000", "113738.133000", "113738.136000", "113738.138000", "113817.657000", "113817.660000", "113817.662000", "113817.665000", "113817.667000", "113817.670000", "113817.672000", "113817.675000", "113817.677000", "113817.680000", "113817.682000", "113817.685000", "113817.687000", "113817.690000", "113817.692000", "113817.695000", "113817.698000", "113817.700000", "113817.703000", "113817.705000", "113817.707000", "113817.710000", "113817.712000", "113817.715000", "113817.718000", "113817.720000", "113817.723000", "113857.637000", "113857.639000", "113857.642000", "113857.644000", "113857.647000", "113857.649000", "113857.652000", "113857.654000", "113857.657000", "113857.659000", "113857.662000", "113857.664000", "113857.667000", "113857.669000", "113857.672000", "113857.674000", "113857.677000", "113857.679000", "113857.682000", "113857.684000", "113857.687000", "113857.689000", "113857.692000", "113857.694000", "113857.697000", "113857.699000", "113857.702000", "113937.656000", "113937.659000", "113937.662000", "113937.664000", "113937.667000", "113937.669000", "113937.672000", "113937.674000", "113937.677000", "113937.679000", "113937.682000", "113937.684000", "113937.687000", "113937.689000", "113937.692000", "113937.695000", "113937.697000", "113937.699000", "113937.702000", "113937.705000", "113937.707000", "113937.710000", "113937.712000", "113937.715000", "113937.718000", "113937.720000", "114017.652000", "114017.657000", "114017.659000", "114017.662000", "114017.664000", "114017.667000", "114017.669000", "114017.672000", "114017.675000", "114017.677000", "114017.680000", "114017.682000", "114017.685000", "114017.687000", "114017.690000", "114017.692000", "114017.695000", "114017.697000", "114017.700000", "114017.702000", "114017.705000", "114017.707000", "114017.710000", "114017.712000", "114017.715000", "114017.718000", "114017.720000", "114057.650000", "114057.653000", "114057.655000", "114057.658000", "114057.660000", "114057.663000", "114057.665000", "114057.668000", "114057.670000", "114057.673000", "114057.679000", "114057.681000", "114057.684000", "114057.686000", "114057.689000", "114057.692000", "114057.694000", "114057.697000", "114057.699000", "114057.702000", "114057.704000", "114057.707000", "114057.709000", "114057.712000", "114057.714000", "114057.717000", "114057.719000", "114137.653000", "114137.655000", "114137.658000", "114137.660000", "114137.663000", "114137.665000", "114137.668000", "114137.670000", "114137.673000", "114137.675000", "114137.678000", "114137.680000", "114137.683000", "114137.685000", "114137.688000", "114137.691000", "114137.693000", "114137.695000", "114137.698000", "114137.700000", "114137.703000", "114137.706000", "114137.708000", "114137.711000", "114137.713000", "114137.716000", "114137.718000", "114215.231000", "114215.234000", "114215.237000", "114215.239000", "114215.242000", "114215.244000", "114215.247000", "114215.249000", "114215.252000", "114215.254000", "114215.257000", "114215.259000", "114215.262000", "114215.264000", "114215.267000", "114215.269000", "114215.272000", "114215.274000", "114215.277000", "114215.279000", "114215.282000", "114215.284000", "114215.287000", "114215.289000", "114215.292000"],
