{
  "AcquisitionMatrixPE": 104,
  "AcquisitionNumber": 1,
  "AcquisitionTime": "11:55:49.687500",
  "BandwidthPerPixelPhaseEncode": 17.17,
  "BaseResolution": 104,
  "BodyPartExamined": "BRAIN",
  "CoilString": "HC1-7;NC1_2",
  "ConsistencyInfo": "N4_VE11C_LATEST_20160120",
  "ConversionSoftware": "dcm2niix",
  "ConversionSoftwareVersion": "v1.0.20190902",
  "DerivedVendorReportedEchoSpacing": 0.000560011,
  "DeviceSerialNumber": "167006",
  "DwellTime": 2.1e-06,
  "EchoTime": 0.037,
  "EchoTrainLength": 104,
  "EffectiveEchoSpacing": 0.000560011,
  "FlipAngle": 52,
  "HeudiconvVersion": "0.10.0",
  "ImageComments": "Unaliased_MB4_PE3_LB",
  "ImageOrientationPatientDICOM": [0.997083, 0.0588225, 0.0486336, -0.0318572, 0.899788, -0.435162],
  "ImageType": [
    "ORIGINAL",
    "PRIMARY",
    "P",
    "MB",
    "ND",
    "MOSAIC"
],
  "ImagingFrequency": 123.259,
  "InPlanePhaseEncodingDirectionDICOM": "COL",
  "InstitutionAddress": "Chemin_Queen-Mary_4565_Montreal_District_CA_H3W_1W5",
  "InstitutionName": "IUGM",
  "InstitutionalDepartmentName": "Department",
  "MRAcquisitionType": "2D",
  "MagneticFieldStrength": 3,
  "Manufacturer": "Siemens",
  "ManufacturersModelName": "Prisma_fit",
  "Modality": "MR",
  "MultibandAccelerationFactor": 4,
  "PartialFourier": 1,
  "PatientPosition": "HFS",
  "PercentPhaseFOV": 100,
  "PhaseEncodingDirection": "j",
  "PhaseEncodingSteps": 104,
  "PhaseResolution": 1,
  "PixelBandwidth": 2290,
  "ProcedureStepDescription": "games_mario",
  "ProtocolName": "func_task-mario_run-05",
  "PulseSequenceDetails": "%CustomerSeq%_cmrr_mbep2d_bold",
  "ReceiveCoilActiveElements": "HC1-7;NC1,2",
  "ReceiveCoilName": "HeadNeck_64",
  "ReconMatrixPE": 104,
  "RepetitionTime": 1.49,
  "SAR": 0.0417906,
  "ScanOptions": "FS",
  "ScanningSequence": "EP",
  "SequenceName": "epfid2d1_104",
  "SequenceVariant": "SK_SS",
  "SeriesDescription": "func_task-mario_run-05",
  "SeriesNumber": 23,
  "ShimSetting": [638, -7138, -8846, 551, 100, 148, -30, -16],
  "SliceThickness": 2,
  "SliceTiming": [0, 0.7825, 0.0975, 0.8825, 0.195, 0.98, 0.2925, 1.0775, 0.3925, 1.175, 0.49, 1.2725, 0.5875, 1.3725, 0.685, 0, 0.7825, 0.0975, 0.8825, 0.195, 0.98, 0.2925, 1.0775, 0.3925, 1.175, 0.49, 1.2725, 0.5875, 1.3725, 0.685, 0, 0.7825, 0.0975, 0.8825, 0.195, 0.98, 0.2925, 1.0775, 0.3925, 1.175, 0.49, 1.2725, 0.5875, 1.3725, 0.685, 0, 0.7825, 0.0975, 0.8825, 0.195, 0.98, 0.2925, 1.0775, 0.3925, 1.175, 0.49, 1.2725, 0.5875, 1.3725, 0.685],
  "SoftwareVersions": "syngo_MR_E11",
  "SpacingBetweenSlices": 2,
  "StationName": "MRC35049",
  "TaskName": "mario",
  "TotalReadoutTime": 0.0576811,
  "TxRefAmp": 253.398,
  "WipMemBlock": "aeacb1d1-b1a2-4dc6-b757-736cc2c3dac7||Sequence: R016 ve11c/master r/e634e98; Dec 19 2017 11:00:25 by eja",
  "dcmmeta_affine": [
    [-1.9941661357879639, -0.0637143924832344, 0.13871456682682037, 106.61688232421875],
    [-0.11764499545097351, 1.7995764017105103, -0.8646875023841858, -48.36288833618164],
    [0.09726721048355103, 0.8703248500823975, 1.7980750799179077, -72.85359191894531],
    [0.0, 0.0, 0.0, 1.0]
],
  "dcmmeta_reorient_transform": [
    [0.0, -1.0, 0.0, 103.0],
    [1.0, 0.0, 0.0, 0.0],
    [0.0, 0.0, 1.0, 0.0],
    [0.0, 0.0, 0.0, 1.0]
],
  "dcmmeta_shape": [104, 104, 60, 454],
  "dcmmeta_slice_dim": 2,
  "dcmmeta_version": 0.6,
  "global": {
    "const": {
      "AcquisitionMatrix": [104, 0, 0, 104],
      "AngioFlag": "N",
      "BitsAllocated": 16,
      "BitsStored": 16,
      "BodyPartExamined": "BRAIN",
      "Columns": 832,
      "EchoNumbers": 1,
      "EchoTime": 37.0,
      "EchoTrainLength": 104,
      "FlipAngle": 52.0,
      "HighBit": 15,
      "ImageOrientationPatient": [0.99708308881568, 0.05882249947782, 0.04863360518163, -0.0318571978503, 0.89978819149424, -0.4351624172567],
      "ImagePositionPatient": [-802.73874861501, -834.86206089217, 298.18284345733],
      "ImageType": [
        "ORIGINAL",
        "PRIMARY",
        "P",
        "MB",
        "ND",
        "MOSAIC"
],
      "ImagedNucleus": "1H",
      "ImagingFrequency": 123.258969,
      "InPlanePhaseEncodingDirection": "COL",
      "LargestImagePixelValue": 4095,
      "MRAcquisitionType": "2D",
      "MagneticFieldStrength": 3.0,
      "Manufacturer": "SIEMENS",
      "ManufacturerModelName": "Prisma_fit",
      "Modality": "MR",
      "NumberOfAverages": 1.0,
      "NumberOfPhaseEncodingSteps": 104,
      "PercentPhaseFieldOfView": 100.0,
      "PercentSampling": 100.0,
      "PerformedProcedureStepStartTime": "100706.423000",
      "PhotometricInterpretation": "MONOCHROME2",
      "PixelBandwidth": 2290.0,
      "PixelRepresentation": 0,
      "PixelSpacing": [2.0, 2.0],
      "ProtocolName": "func_task-mario_run-05",
      "RepetitionTime": 1490.0,
      "RescaleIntercept": -4096.0,
      "RescaleSlope": 2.0,
      "RescaleType": "US",
      "Rows": 832,
      "SAR": 0.04179058680048,
      "SamplesPerPixel": 1,
      "ScanOptions": "FS",
      "ScanningSequence": "EP",
      "SequenceName": "epfid2d1_104",
      "SequenceVariant": [
        "SK",
        "SS"
],
      "SeriesDescription": "func_task-mario_run-05",
      "SeriesNumber": 23,
      "SeriesTime": "115657.587000",
      "SliceLocation": -37.19405895179,
      "SliceThickness": 2.0,
      "SmallestImagePixelValue": 0,
      "SoftwareVersions": "syngo MR E11",
      "SpacingBetweenSlices": 2.0000000184248,
      "SpecificCharacterSet": "ISO_IR 100",
      "StudyID": "1",
      "StudyTime": "100706.288000",
      "TransmitCoilName": "Body",
      "VariableFlipAngleFlag": "N",
      "WindowCenterWidthExplanation": "Algo1",
      "dBdt": 0.0},
    "slices": {}
  },
  "time": {
    "samples": {
      "AcquisitionNumber": [1, 2, 3, 4, 5, 6, 7, 8, 9, 10, 11, 12, 13, 14, 15, 16, 17, 18, 19, 20, 21, 22, 23, 24, 25, 26, 27, 28, 29, 30, 31, 32, 33, 34, 35, 36, 37, 38, 39, 40, 41, 42, 43, 44, 45, 46, 47, 48, 49, 50, 51, 52, 53, 54, 55, 56, 57, 58, 59, 60, 61, 62, 63, 64, 65, 66, 67, 68, 69, 70, 71, 72, 73, 74, 75, 76, 77, 78, 79, 80, 81, 82, 83, 84, 85, 86, 87, 88, 89, 90, 91, 92, 93, 94, 95, 96, 97, 98, 99, 100, 101, 102, 103, 104, 105, 106, 107, 108, 109, 110, 111, 112, 113, 114, 115, 116, 117, 118, 119, 120, 121, 122, 123, 124, 125, 126, 127, 128, 129, 130, 131, 132, 133, 134, 135, 136, 137, 138, 139, 140, 141, 142, 143, 144, 145, 146, 147, 148, 149, 150, 151, 152, 153, 154, 155, 156, 157, 158, 159, 160, 161, 162, 163, 164, 165, 166, 167, 168, 169, 170, 171, 172, 173, 174, 175, 176, 177, 178, 179, 180, 181, 182, 183, 184, 185, 186, 187, 188, 189, 190, 191, 192, 193, 194, 195, 196, 197, 198, 199, 200, 201, 202, 203, 204, 205, 206, 207, 208, 209, 210, 211, 212, 213, 214, 215, 216, 217, 218, 219, 220, 221, 222, 223, 224, 225, 226, 227, 228, 229, 230, 231, 232, 233, 234, 235, 236, 237, 238, 239, 240, 241, 242, 243, 244, 245, 246, 247, 248, 249, 250, 251, 252, 253, 254, 255, 256, 257, 258, 259, 260, 261, 262, 263, 264, 265, 266, 267, 268, 269, 270, 271, 272, 273, 274, 275, 276, 277, 278, 279, 280, 281, 282, 283, 284, 285, 286, 287, 288, 289, 290, 291, 292, 293, 294, 295, 296, 297, 298, 299, 300, 301, 302, 303, 304, 305, 306, 307, 308, 309, 310, 311, 312, 313, 314, 315, 316, 317, 318, 319, 320, 321, 322, 323, 324, 325, 326, 327, 328, 329, 330, 331, 332, 333, 334, 335, 336, 337, 338, 339, 340, 341, 342, 343, 344, 345, 346, 347, 348, 349, 350, 351, 352, 353, 354, 355, 356, 357, 358, 359, 360, 361, 362, 363, 364, 365, 366, 367, 368, 369, 370, 371, 372, 373, 374, 375, 376, 377, 378, 379, 380, 381, 382, 383, 384, 385, 386, 387, 388, 389, 390, 391, 392, 393, 394, 395, 396, 397, 398, 399, 400, 401, 402, 403, 404, 405, 406, 407, 408, 409, 410, 411, 412, 413, 414, 415, 416, 417, 418, 419, 420, 421, 422, 423, 424, 425, 426, 427, 428, 429, 430, 431, 432, 433, 434, 435, 436, 437, 438, 439, 440, 441, 442, 443, 444, 445, 446, 447, 448, 449, 450, 451, 452, 453, 454],
      "AcquisitionTime": ["115549.687500", "115551.177500", "115552.667500", "115554.157500", "115555.647500", "115557.137500", "115558.627500", "115600.117500", "115601.607500", "115603.097500", "115604.587500", "115606.077500", "115607.567500", "115609.057500", "115610.547500", "115612.037500", "115613.527500", "115615.017500", "115616.507500", "115617.997500", "115619.487500", "115620.977500", "115622.467500", "115623.957500", "115625.447500", "115626.937500", "115628.427500", "115629.917500", "115631.407500", "115632.897500", "115634.387500", "115635.877500", "115637.367500", "115638.857500", "115640.347500", "115641.837500", "115643.327500", "115644.817500", "115646.307500", "115647.797500", "115649.287500", "115650.777500", "115652.267500", "115653.757500", "115655.247500", "115656.737500", "115658.227500", "115659.717500", "115701.207500", "115702.697500", "115704.187500", "115705.677500", "115707.167500", "115708.657500", "115710.147500", "115711.637500", "115713.127500", "115714.617500", "115716.107500", "115717.597500", "115719.087500", "115720.577500", "115722.067500", "115723.557500", "115725.047500", "115726.537500", "115728.027500", "115729.517500", "115731.007500", "115732.497500", "115733.987500", "115735.477500", "115736.967500", "115738.457500", "115739.947500", "115741.437500", "115742.927500", "115744.417500", "115745.907500", "115747.397500", "115748.887500", "115750.377500", "115751.867500", "115753.357500", "115754.847500", "115756.337500", "115757.827500", "115759.317500", "115800.807500", "115802.297500", "115803.787500", "115805.277500", "115806.767500", "115808.257500", "115809.747500", "115811.237500", "115812.727500", "115814.217500", "115815.707500", "115817.197500", "115818.687500", "115820.177500", "115821.667500", "115823.157500", "115824.647500", "115826.137500", "115827.627500", "115829.117500", "115830.607500", "115832.097500", "115833.587500", "115835.077500", "115836.567500", "115838.057500", "115839.547500", "115841.037500", "115842.527500", "115844.017500", "115845.507500", "115846.997500", "115848.487500", "115849.977500", "115851.467500", "115852.957500", "115854.447500", "115855.937500", "115857.427500", "115858.917500", "115900.407500", "115901.897500", "115903.387500", "115904.877500", "115906.367500", "115907.857500", "115909.347500", "115910.837500", "115912.327500", "115913.817500", "115915.307500", "115916.797500", "115918.287500", "115919.777500", "115921.267500", "115922.757500", "115924.247500", "115925.737500", "115927.227500", "115928.717500", "115930.207500", "115931.697500", "115933.187500", "115934.677500", "115936.167500", "115937.657500", "115939.147500", "115940.637500", "115942.127500", "115943.617500", "115945.107500", "115946.597500", "115948.087500", "115949.577500", "115951.067500", "115952.557500", "115954.047500", "115955.537500", "115957.027500", "115958.517500", "120000.007500", "120001.497500", "120002.987500", "120004.477500", "120005.967500", "120007.457500", "120008.947500", "120010.437500", "120011.927500", "120013.417500", "120014.907500", "120016.397500", "120017.887500", "120019.377500", "120020.867500", "120022.357500", "120023.847500", "120025.337500", "120026.827500", "120028.317500", "120029.807500", "120031.297500", "120032.787500", "120034.277500", "120035.767500", "120037.257500", "120038.747500", "120040.237500", "120041.727500", "120043.217500", "120044.707500", "120046.197500", "120047.687500", "120049.177500", "120050.667500", "120052.157500", "120053.647500", "120055.137500", "120056.627500", "120058.117500", "120059.607500", "120101.097500", "120102.587500", "120104.077500", "120105.567500", "120107.057500", "120108.547500", "120110.037500", "120111.527500", "120113.017500", "120114.507500", "120115.997500", "120117.487500", "120118.977500", "120120.467500", "120121.957500", "120123.447500", "120124.937500", "120126.427500", "120127.917500", "120129.407500", "120130.897500", "120132.387500", "120133.877500", "120135.367500", "120136.857500", "120138.347500", "120139.837500", "120141.327500", "120142.817500", "120144.307500", "120145.797500", "120147.287500", "120148.777500", "120150.267500", "120151.757500", "120153.247500", "120154.737500", "120156.227500", "120157.717500", "120159.207500", "120200.697500", "120202.187500", "120203.677500", "120205.167500", "120206.657500", "120208.147500", "120209.637500", "120211.127500", "120212.617500", "120214.107500", "120215.597500", "120217.087500", "120218.577500", "120220.067500", "120221.557500", "120223.047500", "120224.537500", "120226.027500", "120227.517500", "120229.007500", "120230.497500", "120231.987500", "120233.477500", "120234.967500", "120236.457500", "120237.947500", "120239.437500", "120240.927500", "120242.417500", "120243.907500", "120245.397500", "120246.887500", "120248.377500", "120249.867500", "120251.357500", "120252.847500", "120254.337500", "120255.827500", "120257.317500", "120258.807500", "120300.297500", "120301.787500", "120303.277500", "120304.767500", "120306.257500", "120307.747500", "120309.237500", "120310.727500", "120312.217500", "120313.707500", "120315.197500", "120316.687500", "120318.177500", "120319.667500", "120321.157500", "120322.647500", "120324.137500", "120325.627500", "120327.117500", "120328.607500", "120330.097500", "120331.587500", "120333.077500", "120334.567500", "120336.057500", "120337.547500", "120339.037500", "120340.527500", "120342.017500", "120343.507500", "120344.997500", "120346.487500", "120347.977500", "120349.467500", "120350.957500", "120352.447500", "120353.937500", "120355.427500", "120356.917500", "120358.407500", "120359.897500", "120401.387500", "120402.877500", "120404.367500", "120405.857500", "120407.347500", "120408.837500", "120410.327500", "120411.817500", "120413.307500", "120414.797500", "120416.287500", "120417.777500", "120419.267500", "120420.757500", "120422.247500", "120423.737500", "120425.227500", "120426.717500", "120428.207500", "120429.697500", "120431.187500", "120432.677500", "120434.167500", "120435.657500", "120437.147500", "120438.637500", "120440.127500", "120441.617500", "120443.107500", "120444.597500", "120446.087500", "120447.577500", "120449.067500", "120450.557500", "120452.047500", "120453.537500", "120455.027500", "120456.517500", "120458.007500", "120459.497500", "120500.987500", "120502.477500", "120503.967500", "120505.457500", "120506.947500", "120508.437500", "120509.927500", "120511.417500", "120512.907500", "120514.397500", "120515.887500", "120517.377500", "120518.867500", "120520.357500", "120521.847500", "120523.337500", "120524.827500", "120526.317500", "120527.807500", "120529.297500", "120530.787500", "120532.277500", "120533.767500", "120535.257500", "120536.747500", "120538.237500", "120539.727500", "120541.217500", "120542.707500", "120544.197500", "120545.687500", "120547.177500", "120548.667500", "120550.157500", "120551.647500", "120553.137500", "120554.627500", "120556.117500", "120557.607500", "120559.097500", "120600.587500", "120602.077500", "120603.567500", "120605.057500", "120606.547500", "120608.037500", "120609.527500", "120611.017500", "120612.507500", "120613.997500", "120615.487500", "120616.977500", "120618.467500", "120619.957500", "120621.447500", "120622.937500", "120624.427500", "120625.917500", "120627.407500", "120628.897500", "120630.387500", "120631.877500", "120633.367500", "120634.857500", "120636.347500", "120637.837500", "120639.327500", "120640.817500", "120642.307500", "120643.797500", "120645.287500", "120646.777500", "120648.267500", "120649.757500", "120651.247500", "120652.737500", "120654.227500", "120655.717500", "120657.207500", "120658.697500", "120700.187500", "120701.677500", "120703.167500", "120704.657500"],
      "ContentTime": ["115657.589000", "115657.592000", "115657.594000", "115657.597000", "115657.599000", "115657.602000", "115657.609000", "115657.612000", "115657.614000", "115657.617000", "115657.619000", "115657.622000", "115657.624000", "115657.627000", "115717.605000", "115717.607000", "115717.610000", "115717.612000", "115717.615000", "115717.617000", "115717.620000", "115717.622000", "115717.629000", "115717.632000", "115717.634000", "115717.637000", "115717.639000", "115717.642000", "115717.644000", "115717.647000", "115717.649000", "115717.652000", "115717.654000", "115717.657000", "115737.575000", "115737.578000", "115737.580000", "115737.583000", "115737.585000", "115737.588000", "115737.590000", "115737.593000", "115737.595000", "115737.598000", "115737.600000", "115737.603000", "115737.605000", "115737.607000", "115737.610000", "115737.618000", "115737.620000", "115737.623000", "115737.625000", "115737.628000", "115757.575000", "115757.577000", "115757.580000", "115757.583000", "115757.585000", "115757.587000", "115757.590000", "115757.593000", "115757.595000", "115757.597000", "115757.600000", "115757.602000", "115757.629000", "115757.632000", "115757.634000", "115757.637000", "115757.640000", "115757.643000", "115757.645000", "115757.648000", "115757.650000", "115817.579000", "115817.582000", "115817.584000", "115817.587000", "115817.589000", "115817.592000", "115817.594000", "115817.596000", "115817.599000", "115817.602000", "115817.604000", "115817.606000", "115817.609000", "115817.611000", "115817.614000", "115817.616000", "115817.619000", "115817.621000", "115817.624000", "115817.626000", "115857.616000", "115857.618000", "115857.621000", "115857.623000", "115857.626000", "115857.628000", "115857.631000", "115857.633000", "115857.636000", "115857.638000", "115857.660000", "115857.663000", "115857.665000", "115857.668000", "115857.671000", "115857.674000", "115857.676000", "115857.679000", "115857.681000", "115857.684000", "115857.687000", "115857.689000", "115857.692000", "115857.694000", "115857.697000", "115857.699000", "115857.702000", "115857.704000", "115857.707000", "115857.709000", "115937.607000", "115937.610000", "115937.612000", "115937.615000", "115937.617000", "115937.620000", "115937.622000", "115937.625000", "115937.627000", "115937.630000", "115937.632000", "115937.635000", "115937.637000", "115937.640000", "115937.642000", "115937.645000", "115937.647000", "115937.650000", "115937.652000", "115937.655000", "115937.657000", "115937.660000", "115937.662000", "115937.665000", "115937.667000", "115937.670000", "115937.672000", "120017.614000", "120017.617000", "120017.619000", "120017.622000", "120017.624000", "120017.627000", "120017.630000", "120017.632000", "120017.635000", "120017.637000", "120017.640000", "120017.642000", "120017.645000", "120017.647000", "120017.650000", "120017.652000", "120017.655000", "120017.657000", "120017.660000", "120017.663000", "120017.665000", "120017.668000", "120017.670000", "120017.673000", "120017.675000", "120017.678000", "120017.680000", "120057.605000", "120057.608000", "120057.610000", "120057.613000", "120057.615000", "120057.618000", "120057.620000", "120057.623000", "120057.625000", "120057.628000", "120057.630000", "120057.633000", "120057.635000", "120057.638000", "120057.640000", "120057.642000", "120057.645000", "120057.647000", "120057.650000", "120057.653000", "120057.655000", "120057.658000", "120057.660000", "120057.663000", "120057.665000", "120057.668000", "120057.670000", "120138.304000", "120138.307000", "120138.310000", "120138.312000", "120138.331000", "120138.334000", "120138.337000", "120138.339000", "120138.342000", "120138.344000", "120138.347000", "120138.350000", "120138.352000", "120138.355000", "120138.358000", "120138.360000", "120138.363000", "120138.369000", "120138.371000", "120138.377000", "120138.380000", "120138.383000", "120138.385000", "120138.388000", "120138.391000", "120138.393000", "120217.643000", "120217.646000", "120217.649000", "120217.651000", "120217.654000", "120217.656000", "120217.659000", "120217.661000", "120217.664000", "120217.666000", "120217.669000", "120217.672000", "120217.674000", "120217.677000", "120217.679000", "120217.682000", "120217.684000", "120217.687000", "120217.689000", "120217.692000", "120217.694000", "120217.697000", "120217.699000", "120217.702000", "120217.704000", "120217.710000", "120217.713000", "120257.622000", "120257.625000", "120257.627000", "120257.630000", "120257.637000", "120257.639000", "120257.642000", "120257.644000", "120257.647000", "120257.649000", "120257.652000", "120257.654000", "120257.657000", "120257.660000", "120257.662000", "120257.665000", "120257.667000", "120257.670000", "120257.672000", "120257.675000", "120257.677000", "120257.680000", "120257.683000", "120257.686000", "120257.689000", "120257.692000", "120257.694000", "120337.606000", "120337.609000", "120337.612000", "120337.614000", "120337.617000", "120337.619000", "120337.622000", "120337.625000", "120337.627000", "120337.630000", "120337.632000", "120337.635000", "120337.637000", "120337.640000", "120337.660000", "120337.663000", "120337.666000", "120337.668000", "120337.671000", "120337.673000", "120337.676000", "120337.678000", "120337.681000", "120337.683000", "120337.686000", "120337.688000", "120337.691000", "120417.604000", "120417.606000", "120417.609000", "120417.612000", "120417.614000", "120417.622000", "120417.624000", "120417.627000", "120417.629000", "120417.632000", "120417.634000", "120417.637000", "120417.639000", "120417.642000", "120417.644000", "120417.647000", "120417.649000", "120417.660000", "120417.663000", "120417.665000", "120417.668000", "120417.670000", "120417.673000", "120417.675000", "120417.678000", "120417.680000", "120417.683000", "120457.611000", "120457.614000", "120457.617000", "120457.619000", "120457.622000", "120457.624000", "120457.627000", "120457.629000", "120457.632000", "120457.634000", "120457.637000", "120457.640000", "120457.642000", "120457.645000", "120457.647000", "120457.650000", "120457.652000", "120457.655000", "120457.657000", "120457.660000", "120457.662000", "120457.665000", "120457.667000", "120457.670000", "120457.672000", "120457.675000", "120457.677000", "120517.559000", "120517.561000", "120517.564000", "120517.566000", "120517.569000", "120517.572000", "120517.574000", "120517.577000", "120517.579000", "120517.582000", "120517.584000", "120517.587000", "120517.590000", "120557.613000", "120557.616000", "120557.618000", "120557.621000", "120557.624000", "120557.626000", "120557.628000", "120557.631000", "120557.634000", "120557.636000", "120557.639000", "120557.641000", "120557.644000", "120557.646000", "120557.649000", "120557.652000", "120557.654000", "120557.657000", "120557.659000", "120557.662000", "120557.664000", "120557.667000", "120557.669000", "120557.672000", "120557.674000", "120557.677000", "120557.679000", "120637.622000", "120637.625000", "120637.627000", "120637.630000", "120637.632000", "120637.635000", "120637.638000", "120637.640000", "120637.643000", "120637.646000", "120637.648000", "120637.651000", "120637.653000", "120637.656000", "120637.658000", "120637.661000", "120637.663000", "120637.666000", "120637.669000", "120637.671000", "120637.674000", "120637.676000", "120637.679000", "120637.681000", "120637.684000", "120637.686000", "120637.689000", "120707.295000", "120707.297000", "120707.300000", "120707.303000", "120707.305000", "120707.308000", "120707.310000", "120707.313000", "120707.315000", "120707.318000", "120707.321000", "120707.323000", "120707.325000", "120707.328000", "120707.331000", "120707.333000", "120707.335000", "120707.338000", "120707.341000", "120707.343000"],
