{
  "AcquisitionMatrixPE": 104,
  "AcquisitionNumber": 1,
  "AcquisitionTime": "11:31:7.092500",
  "BandwidthPerPixelPhaseEncode": 17.17,
  "BaseResolution": 104,
  "BodyPartExamined": "BRAIN",
  "CoilString": "HC1-7;NC1_2",
  "ConsistencyInfo": "N4_VE11C_LATEST_20160120",
  "ConversionSoftware": "dcm2niix",
  "ConversionSoftwareVersion": "v1.0.20190902",
  "DerivedVendorReportedEchoSpacing": 0.000560011,
  "DeviceSerialNumber": "167006",
  "DwellTime": 2.1e-06,
  "EchoTime": 0.037,
  "EchoTrainLength": 104,
  "EffectiveEchoSpacing": 0.000560011,
  "FlipAngle": 52,
  "HeudiconvVersion": "0.10.0",
  "ImageComments": "Unaliased_MB4_PE3_LB",
  "ImageOrientationPatientDICOM": [0.997083, 0.0588225, 0.0486336, -0.0318572, 0.899788, -0.435162],
  "ImageType": [
    "ORIGINAL",
    "PRIMARY",
    "M",
    "MB",
    "ND",
    "MOSAIC"
],
  "ImagingFrequency": 123.259,
  "InPlanePhaseEncodingDirectionDICOM": "COL",
  "InstitutionAddress": "Chemin_Queen-Mary_4565_Montreal_District_CA_H3W_1W5",
  "InstitutionName": "IUGM",
  "InstitutionalDepartmentName": "Department",
  "MRAcquisitionType": "2D",
  "MagneticFieldStrength": 3,
  "Manufacturer": "Siemens",
  "ManufacturersModelName": "Prisma_fit",
  "Modality": "MR",
  "MultibandAccelerationFactor": 4,
  "PartialFourier": 1,
  "PatientPosition": "HFS",
  "PercentPhaseFOV": 100,
  "PhaseEncodingDirection": "j",
  "PhaseEncodingSteps": 104,
  "PhaseResolution": 1,
  "PixelBandwidth": 2290,
  "ProcedureStepDescription": "games_mario",
  "ProtocolName": "func_task-mario_run-03",
  "PulseSequenceDetails": "%CustomerSeq%_cmrr_mbep2d_bold",
  "ReceiveCoilActiveElements": "HC1-7;NC1,2",
  "ReceiveCoilName": "HeadNeck_64",
  "ReconMatrixPE": 104,
  "RepetitionTime": 1.49,
  "SAR": 0.0417906,
  "ScanOptions": "FS",
  "ScanningSequence": "EP",
  "SequenceName": "epfid2d1_104",
  "SequenceVariant": "SK_SS",
  "SeriesDescription": "func_task-mario_run-03",
  "SeriesNumber": 16,
  "ShimSetting": [638, -7138, -8846, 551, 100, 148, -30, -16],
  "SliceThickness": 2,
  "SliceTiming": [0, 0.7825, 0.0975, 0.8825, 0.195, 0.98, 0.2925, 1.0775, 0.3925, 1.175, 0.49, 1.2725, 0.5875, 1.3725, 0.685, 0, 0.7825, 0.0975, 0.8825, 0.195, 0.98, 0.2925, 1.0775, 0.3925, 1.175, 0.49, 1.2725, 0.5875, 1.3725, 0.685, 0, 0.7825, 0.0975, 0.8825, 0.195, 0.98, 0.2925, 1.0775, 0.3925, 1.175, 0.49, 1.2725, 0.5875, 1.3725, 0.685, 0, 0.7825, 0.0975, 0.8825, 0.195, 0.98, 0.2925, 1.0775, 0.3925, 1.175, 0.49, 1.2725, 0.5875, 1.3725, 0.685],
  "SoftwareVersions": "syngo_MR_E11",
  "SpacingBetweenSlices": 2,
  "StationName": "MRC35049",
  "TaskName": "mario",
  "TotalReadoutTime": 0.0576811,
  "TxRefAmp": 253.398,
  "WipMemBlock": "2b552c18-2966-49e0-94c9-1629fc128697||Sequence: R016 ve11c/master r/e634e98; Dec 19 2017 11:00:25 by eja",
  "dcmmeta_affine": [
    [-1.9941661357879639, -0.0637143924832344, 0.13871456682682037, 106.61688232421875],
    [-0.11764499545097351, 1.7995764017105103, -0.8646875023841858, -48.36288833618164],
    [0.09726721048355103, 0.8703248500823975, 1.7980750799179077, -72.85359191894531],
    [0.0, 0.0, 0.0, 1.0]
],
  "dcmmeta_reorient_transform": [
    [0.0, -1.0, 0.0, 103.0],
    [1.0, 0.0, 0.0, 0.0],
    [0.0, 0.0, 1.0, 0.0],
    [0.0, 0.0, 0.0, 1.0]
],
  "dcmmeta_shape": [104, 104, 60, 447],
  "dcmmeta_slice_dim": 2,
  "dcmmeta_version": 0.6,
  "global": {
    "const": {
      "AcquisitionMatrix": [104, 0, 0, 104],
      "AngioFlag": "N",
      "BitsAllocated": 16,
      "BitsStored": 16,
      "BodyPartExamined": "BRAIN",
      "Columns": 832,
      "EchoNumbers": 1,
      "EchoTime": 37.0,
      "EchoTrainLength": 104,
      "FlipAngle": 52.0,
      "HighBit": 15,
      "ImageOrientationPatient": [0.99708308881568, 0.05882249947782, 0.04863360518163, -0.0318571978503, 0.89978819149424, -0.4351624172567],
      "ImagePositionPatient": [-802.73874861501, -834.86206089217, 298.18284345733],
      "ImageType": [
        "ORIGINAL",
        "PRIMARY",
        "M",
        "MB",
        "ND",
        "MOSAIC"
],
      "ImagedNucleus": "1H",
      "ImagingFrequency": 123.258961,
      "InPlanePhaseEncodingDirection": "COL",
      "MRAcquisitionType": "2D",
      "MagneticFieldStrength": 3.0,
      "Manufacturer": "SIEMENS",
      "ManufacturerModelName": "Prisma_fit",
      "Modality": "MR",
      "NumberOfAverages": 1.0,
      "NumberOfPhaseEncodingSteps": 104,
      "PercentPhaseFieldOfView": 100.0,
      "PercentSampling": 100.0,
      "PerformedProcedureStepStartTime": "100706.423000",
      "PhotometricInterpretation": "MONOCHROME2",
      "PixelBandwidth": 2290.0,
      "PixelRepresentation": 0,
      "PixelSpacing": [2.0, 2.0],
      "ProtocolName": "func_task-mario_run-03",
      "RepetitionTime": 1490.0,
      "Rows": 832,
      "SAR": 0.04179058680048,
      "SamplesPerPixel": 1,
      "ScanOptions": "FS",
      "ScanningSequence": "EP",
      "SequenceName": "epfid2d1_104",
      "SequenceVariant": [
        "SK",
        "SS"
],
      "SeriesDescription": "func_task-mario_run-03",
      "SeriesNumber": 16,
      "SeriesTime": "113237.536000",
      "SliceLocation": -37.19405895179,
      "SliceThickness": 2.0,
      "SmallestImagePixelValue": 0,
      "SoftwareVersions": "syngo MR E11",
      "SpacingBetweenSlices": 2.0000000184248,
      "SpecificCharacterSet": "ISO_IR 100",
      "StudyID": "1",
      "StudyTime": "100706.288000",
      "TransmitCoilName": "Body",
      "VariableFlipAngleFlag": "N",
      "WindowCenterWidthExplanation": "Algo1",
      "dBdt": 0.0},
    "slices": {}
  },
  "time": {
    "samples": {
      "AcquisitionNumber": [1, 2, 3, 4, 5, 6, 7, 8, 9, 10, 11, 12, 13, 14, 15, 16, 17, 18, 19, 20, 21, 22, 23, 24, 25, 26, 27, 28, 29, 30, 31, 32, 33, 34, 35, 36, 37, 38, 39, 40, 41, 42, 43, 44, 45, 46, 47, 48, 49, 50, 51, 52, 53, 54, 55, 56, 57, 58, 59, 60, 61, 62, 63, 64, 65, 66, 67, 68, 69, 70, 71, 72, 73, 74, 75, 76, 77, 78, 79, 80, 81, 82, 83, 84, 85, 86, 87, 88, 89, 90, 91, 92, 93, 94, 95, 96, 97, 98, 99, 100, 101, 102, 103, 104, 105, 106, 107, 108, 109, 110, 111, 112, 113, 114, 115, 116, 117, 118, 119, 120, 121, 122, 123, 124, 125, 126, 127, 128, 129, 130, 131, 132, 133, 134, 135, 136, 137, 138, 139, 140, 141, 142, 143, 144, 145, 146, 147, 148, 149, 150, 151, 152, 153, 154, 155, 156, 157, 158, 159, 160, 161, 162, 163, 164, 165, 166, 167, 168, 169, 170, 171, 172, 173, 174, 175, 176, 177, 178, 179, 180, 181, 182, 183, 184, 185, 186, 187, 188, 189, 190, 191, 192, 193, 194, 195, 196, 197, 198, 199, 200, 201, 202, 203, 204, 205, 206, 207, 208, 209, 210, 211, 212, 213, 214, 215, 216, 217, 218, 219, 220, 221, 222, 223, 224, 225, 226, 227, 228, 229, 230, 231, 232, 233, 234, 235, 236, 237, 238, 239, 240, 241, 242, 243, 244, 245, 246, 247, 248, 249, 250, 251, 252, 253, 254, 255, 256, 257, 258, 259, 260, 261, 262, 263, 264, 265, 266, 267, 268, 269, 270, 271, 272, 273, 274, 275, 276, 277, 278, 279, 280, 281, 282, 283, 284, 285, 286, 287, 288, 289, 290, 291, 292, 293, 294, 295, 296, 297, 298, 299, 300, 301, 302, 303, 304, 305, 306, 307, 308, 309, 310, 311, 312, 313, 314, 315, 316, 317, 318, 319, 320, 321, 322, 323, 324, 325, 326, 327, 328, 329, 330, 331, 332, 333, 334, 335, 336, 337, 338, 339, 340, 341, 342, 343, 344, 345, 346, 347, 348, 349, 350, 351, 352, 353, 354, 355, 356, 357, 358, 359, 360, 361, 362, 363, 364, 365, 366, 367, 368, 369, 370, 371, 372, 373, 374, 375, 376, 377, 378, 379, 380, 381, 382, 383, 384, 385, 386, 387, 388, 389, 390, 391, 392, 393, 394, 395, 396, 397, 398, 399, 400, 401, 402, 403, 404, 405, 406, 407, 408, 409, 410, 411, 412, 413, 414, 415, 416, 417, 418, 419, 420, 421, 422, 423, 424, 425, 426, 427, 428, 429, 430, 431, 432, 433, 434, 435, 436, 437, 438, 439, 440, 441, 442, 443, 444, 445, 446, 447],
      "AcquisitionTime": ["113107.092500", "113108.582500", "113110.072500", "113111.562500", "113113.052500", "113114.542500", "113116.032500", "113117.522500", "113119.012500", "113120.502500", "113121.992500", "113123.482500", "113124.972500", "113126.462500", "113127.952500", "113129.442500", "113130.932500", "113132.422500", "113133.912500", "113135.402500", "113136.892500", "113138.382500", "113139.872500", "113141.362500", "113142.852500", "113144.342500", "113145.832500", "113147.322500", "113148.812500", "113150.302500", "113151.792500", "113153.282500", "113154.772500", "113156.262500", "113157.752500", "113159.242500", "113200.732500", "113202.222500", "113203.712500", "113205.202500", "113206.692500", "113208.182500", "113209.672500", "113211.162500", "113212.652500", "113214.142500", "113215.632500", "113217.122500", "113218.612500", "113220.102500", "113221.592500", "113223.082500", "113224.572500", "113226.062500", "113227.552500", "113229.042500", "113230.532500", "113232.022500", "113233.512500", "113235.002500", "113236.492500", "113237.982500", "113239.472500", "113240.962500", "113242.452500", "113243.942500", "113245.432500", "113246.922500", "113248.412500", "113249.902500", "113251.392500", "113252.882500", "113254.372500", "113255.862500", "113257.352500", "113258.842500", "113300.332500", "113301.822500", "113303.312500", "113304.802500", "113306.292500", "113307.782500", "113309.272500", "113310.762500", "113312.252500", "113313.742500", "113315.232500", "113316.722500", "113318.212500", "113319.702500", "113321.192500", "113322.682500", "113324.172500", "113325.662500", "113327.152500", "113328.642500", "113330.132500", "113331.622500", "113333.112500", "113334.602500", "113336.092500", "113337.582500", "113339.072500", "113340.562500", "113342.052500", "113343.542500", "113345.032500", "113346.522500", "113348.012500", "113349.502500", "113350.992500", "113352.482500", "113353.972500", "113355.462500", "113356.952500", "113358.442500", "113359.932500", "113401.422500", "113402.912500", "113404.402500", "113405.892500", "113407.382500", "113408.872500", "113410.362500", "113411.852500", "113413.342500", "113414.832500", "113416.322500", "113417.812500", "113419.302500", "113420.792500", "113422.282500", "113423.772500", "113425.262500", "113426.752500", "113428.242500", "113429.732500", "113431.222500", "113432.712500", "113434.202500", "113435.692500", "113437.182500", "113438.672500", "113440.162500", "113441.652500", "113443.142500", "113444.632500", "113446.122500", "113447.612500", "113449.102500", "113450.592500", "113452.082500", "113453.572500", "113455.062500", "113456.552500", "113458.042500", "113459.532500", "113501.022500", "113502.512500", "113504.002500", "113505.492500", "113506.982500", "113508.472500", "113509.962500", "113511.452500", "113512.942500", "113514.432500", "113515.922500", "113517.412500", "113518.902500", "113520.392500", "113521.882500", "113523.372500", "113524.862500", "113526.352500", "113527.842500", "113529.332500", "113530.822500", "113532.312500", "113533.802500", "113535.292500", "113536.782500", "113538.272500", "113539.762500", "113541.252500", "113542.742500", "113544.232500", "113545.722500", "113547.212500", "113548.702500", "113550.192500", "113551.682500", "113553.172500", "113554.662500", "113556.152500", "113557.642500", "113559.132500", "113600.622500", "113602.112500", "113603.602500", "113605.092500", "113606.582500", "113608.072500", "113609.562500", "113611.052500", "113612.542500", "113614.032500", "113615.522500", "113617.012500", "113618.502500", "113619.992500", "113621.482500", "113622.972500", "113624.462500", "113625.952500", "113627.442500", "113628.932500", "113630.422500", "113631.912500", "113633.402500", "113634.892500", "113636.382500", "113637.872500", "113639.362500", "113640.852500", "113642.342500", "113643.832500", "113645.322500", "113646.812500", "113648.302500", "113649.792500", "113651.282500", "113652.772500", "113654.262500", "113655.752500", "113657.242500", "113658.732500", "113700.222500", "113701.712500", "113703.202500", "113704.692500", "113706.182500", "113707.672500", "113709.162500", "113710.652500", "113712.142500", "113713.632500", "113715.122500", "113716.612500", "113718.102500", "113719.592500", "113721.082500", "113722.572500", "113724.062500", "113725.552500", "113727.042500", "113728.532500", "113730.022500", "113731.512500", "113733.002500", "113734.492500", "113735.982500", "113737.472500", "113738.962500", "113740.452500", "113741.942500", "113743.432500", "113744.922500", "113746.412500", "113747.902500", "113749.392500", "113750.882500", "113752.372500", "113753.862500", "113755.352500", "113756.842500", "113758.332500", "113759.822500", "113801.312500", "113802.802500", "113804.292500", "113805.782500", "113807.272500", "113808.762500", "113810.252500", "113811.742500", "113813.232500", "113814.722500", "113816.212500", "113817.702500", "113819.192500", "113820.682500", "113822.172500", "113823.662500", "113825.152500", "113826.642500", "113828.132500", "113829.622500", "113831.112500", "113832.602500", "113834.092500", "113835.582500", "113837.072500", "113838.562500", "113840.052500", "113841.542500", "113843.032500", "113844.522500", "113846.012500", "113847.502500", "113848.992500", "113850.482500", "113851.972500", "113853.462500", "113854.952500", "113856.442500", "113857.932500", "113859.422500", "113900.912500", "113902.402500", "113903.892500", "113905.382500", "113906.872500", "113908.362500", "113909.852500", "113911.342500", "113912.832500", "113914.322500", "113915.812500", "113917.302500", "113918.792500", "113920.282500", "113921.772500", "113923.262500", "113924.752500", "113926.242500", "113927.732500", "113929.222500", "113930.712500", "113932.202500", "113933.692500", "113935.182500", "113936.672500", "113938.162500", "113939.652500", "113941.142500", "113942.632500", "113944.122500", "113945.612500", "113947.102500", "113948.592500", "113950.082500", "113951.572500", "113953.062500", "113954.552500", "113956.042500", "113957.532500", "113959.022500", "114000.512500", "114002.002500", "114003.492500", "114004.982500", "114006.472500", "114007.962500", "114009.452500", "114010.942500", "114012.432500", "114013.922500", "114015.412500", "114016.902500", "114018.392500", "114019.882500", "114021.372500", "114022.862500", "114024.352500", "114025.842500", "114027.332500", "114028.822500", "114030.312500", "114031.802500", "114033.292500", "114034.782500", "114036.272500", "114037.762500", "114039.252500", "114040.742500", "114042.232500", "114043.722500", "114045.212500", "114046.702500", "114048.192500", "114049.682500", "114051.172500", "114052.662500", "114054.152500", "114055.642500", "114057.132500", "114058.622500", "114100.112500", "114101.602500", "114103.092500", "114104.582500", "114106.072500", "114107.562500", "114109.052500", "114110.542500", "114112.032500", "114113.522500", "114115.012500", "114116.502500", "114117.992500", "114119.482500", "114120.972500", "114122.462500", "114123.952500", "114125.442500", "114126.932500", "114128.422500", "114129.912500", "114131.402500", "114132.892500", "114134.382500", "114135.872500", "114137.362500", "114138.852500", "114140.342500", "114141.832500", "114143.322500", "114144.812500", "114146.302500", "114147.792500", "114149.282500", "114150.772500", "114152.262500", "114153.752500", "114155.242500", "114156.732500", "114158.222500", "114159.712500", "114201.202500", "114202.692500", "114204.182500", "114205.672500", "114207.162500", "114208.652500", "114210.142500", "114211.632500"],
      "ContentTime": ["113237.539000", "113237.543000", "113237.546000", "113237.550000", "113237.553000", "113237.556000", "113237.560000", "113237.563000", "113237.566000", "113237.570000", "113237.573000", "113237.583000", "113237.586000", "113237.589000", "113237.592000", "113237.596000", "113237.608000", "113237.611000", "113237.614000", "113237.618000", "113237.621000", "113237.624000", "113237.628000", "113237.632000", "113237.635000", "113237.638000", "113237.642000", "113237.645000", "113237.648000", "113237.652000", "113237.655000", "113237.658000", "113237.662000", "113237.669000", "113237.672000", "113237.675000", "113237.679000", "113257.506000", "113257.510000", "113257.513000", "113257.516000", "113257.520000", "113257.523000", "113257.526000", "113257.529000", "113257.533000", "113257.536000", "113257.539000", "113257.543000", "113257.556000", "113257.559000", "113257.563000", "113257.566000", "113257.569000", "113257.573000", "113257.576000", "113257.579000", "113317.505000", "113317.509000", "113317.512000", "113317.516000", "113317.519000", "113317.522000", "113317.525000", "113317.529000", "113317.532000", "113317.535000", "113317.539000", "113317.542000", "113317.550000", "113317.553000", "113317.557000", "113317.560000", "113317.564000", "113317.568000", "113317.571000", "113317.574000", "113337.505000", "113337.509000", "113337.512000", "113337.515000", "113337.519000", "113337.522000", "113337.525000", "113337.529000", "113337.532000", "113337.535000", "113337.539000", "113337.542000", "113337.545000", "113337.549000", "113337.552000", "113337.555000", "113337.559000", "113337.562000", "113337.565000", "113337.569000", "113417.506000", "113417.510000", "113417.513000", "113417.516000", "113417.520000", "113417.523000", "113417.527000", "113417.530000", "113417.533000", "113417.537000", "113417.540000", "113417.543000", "113417.547000", "113417.550000", "113417.553000", "113417.557000", "113417.560000", "113417.563000", "113417.567000", "113417.570000", "113417.574000", "113417.577000", "113417.580000", "113417.584000", "113417.587000", "113417.590000", "113417.594000", "113417.597000", "113417.600000", "113417.604000", "113457.506000", "113457.510000", "113457.515000", "113457.518000", "113457.522000", "113457.525000", "113457.528000", "113457.532000", "113457.536000", "113457.541000", "113457.545000", "113457.548000", "113457.552000", "113457.555000", "113457.558000", "113457.562000", "113457.565000", "113457.568000", "113457.572000", "113457.575000", "113457.579000", "113457.582000", "113457.585000", "113457.588000", "113457.592000", "113457.595000", "113537.505000", "113537.509000", "113537.512000", "113537.516000", "113537.519000", "113537.522000", "113537.526000", "113537.529000", "113537.533000", "113537.536000", "113537.539000", "113537.543000", "113537.546000", "113537.549000", "113537.553000", "113537.556000", "113537.559000", "113537.563000", "113537.566000", "113537.570000", "113537.573000", "113537.576000", "113537.580000", "113537.583000", "113537.601000", "113537.604000", "113537.608000", "113617.505000", "113617.509000", "113617.512000", "113617.516000", "113617.519000", "113617.522000", "113617.526000", "113617.529000", "113617.533000", "113617.536000", "113617.539000", "113617.543000", "113617.546000", "113617.549000", "113617.553000", "113617.556000", "113617.559000", "113617.563000", "113617.566000", "113617.570000", "113617.573000", "113617.576000", "113617.580000", "113617.583000", "113617.586000", "113617.590000", "113617.593000", "113657.506000", "113657.510000", "113657.513000", "113657.516000", "113657.520000", "113657.523000", "113657.527000", "113657.530000", "113657.533000", "113657.537000", "113657.540000", "113657.543000", "113657.547000", "113657.550000", "113657.553000", "113657.557000", "113657.560000", "113657.564000", "113657.567000", "113657.570000", "113657.574000", "113657.577000", "113657.580000", "113657.584000", "113657.587000", "113657.590000", "113657.594000", "113737.506000", "113737.510000", "113737.523000", "113737.526000", "113737.529000", "113737.533000", "113737.536000", "113737.540000", "113737.543000", "113737.546000", "113737.550000", "113737.553000", "113737.556000", "113737.560000", "113737.563000", "113737.567000", "113737.570000", "113737.573000", "113737.577000", "113737.580000", "113737.583000", "113737.587000", "113737.590000", "113737.593000", "113737.597000", "113737.600000", "113737.604000", "113817.505000", "113817.509000", "113817.512000", "113817.515000", "113817.519000", "113817.522000", "113817.526000", "113817.529000", "113817.532000", "113817.536000", "113817.539000", "113817.542000", "113817.558000", "113817.562000", "113817.565000", "113817.568000", "113817.571000", "113817.575000", "113817.578000", "113817.581000", "113817.585000", "113817.588000", "113817.591000", "113817.595000", "113817.598000", "113817.601000", "113817.605000", "113857.506000", "113857.510000", "113857.513000", "113857.516000", "113857.520000", "113857.523000", "113857.526000", "113857.530000", "113857.533000", "113857.536000", "113857.540000", "113857.543000", "113857.546000", "113857.550000", "113857.553000", "113857.556000", "113857.559000", "113857.563000", "113857.566000", "113857.570000", "113857.573000", "113857.576000", "113857.579000", "113857.583000", "113857.586000", "113857.589000", "113857.593000", "113937.507000", "113937.511000", "113937.514000", "113937.518000", "113937.521000", "113937.524000", "113937.528000", "113937.531000", "113937.544000", "113937.547000", "113937.550000", "113937.554000", "113937.557000", "113937.561000", "113937.564000", "113937.567000", "113937.571000", "113937.574000", "113937.578000", "113937.581000", "113937.584000", "113937.588000", "113937.591000", "113937.594000", "113937.598000", "113937.601000", "114017.505000", "114017.509000", "114017.512000", "114017.516000", "114017.519000", "114017.523000", "114017.526000", "114017.529000", "114017.533000", "114017.536000", "114017.539000", "114017.543000", "114017.546000", "114017.549000", "114017.553000", "114017.556000", "114017.560000", "114017.563000", "114017.566000", "114017.570000", "114017.573000", "114017.577000", "114017.580000", "114017.583000", "114017.587000", "114017.599000", "114017.602000", "114057.506000", "114057.510000", "114057.513000", "114057.517000", "114057.520000", "114057.523000", "114057.526000", "114057.530000", "114057.533000", "114057.537000", "114057.540000", "114057.543000", "114057.547000", "114057.550000", "114057.553000", "114057.557000", "114057.560000", "114057.563000", "114057.567000", "114057.570000", "114057.573000", "114057.577000", "114057.580000", "114057.583000", "114057.587000", "114057.590000", "114057.593000", "114137.506000", "114137.510000", "114137.513000", "114137.517000", "114137.520000", "114137.523000", "114137.526000", "114137.530000", "114137.533000", "114137.536000", "114137.540000", "114137.543000", "114137.546000", "114137.550000", "114137.553000", "114137.556000", "114137.560000", "114137.563000", "114137.566000", "114137.569000", "114137.573000", "114137.576000", "114137.579000", "114137.583000", "114137.586000", "114137.589000", "114137.593000", "114215.102000", "114215.106000", "114215.109000", "114215.112000", "114215.116000", "114215.119000", "114215.122000", "114215.126000", "114215.129000", "114215.132000", "114215.136000", "114215.139000", "114215.142000", "114215.145000", "114215.149000", "114215.152000", "114215.155000", "114215.159000", "114215.162000", "114215.165000", "114215.169000", "114215.172000", "114215.175000", "114215.178000", "114215.182000"],
