{
  "AcquisitionMatrixPE": 104,
  "AcquisitionNumber": 1,
  "AcquisitionTime": "11:43:49.427500",
  "BandwidthPerPixelPhaseEncode": 17.17,
  "BaseResolution": 104,
  "BodyPartExamined": "BRAIN",
  "CoilString": "HC1-7;NC1_2",
  "ConsistencyInfo": "N4_VE11C_LATEST_20160120",
  "ConversionSoftware": "dcm2niix",
  "ConversionSoftwareVersion": "v1.0.20190902",
  "DerivedVendorReportedEchoSpacing": 0.000560011,
  "DeviceSerialNumber": "167006",
  "DwellTime": 2.1e-06,
  "EchoTime": 0.037,
  "EchoTrainLength": 104,
  "EffectiveEchoSpacing": 0.000560011,
  "FlipAngle": 52,
  "HeudiconvVersion": "0.10.0",
  "ImageComments": "Unaliased_MB4_PE3_LB",
  "ImageOrientationPatientDICOM": [0.997083, 0.0588225, 0.0486336, -0.0318572, 0.899788, -0.435162],
  "ImageType": [
    "ORIGINAL",
    "PRIMARY",
    "M",
    "MB",
    "ND",
    "MOSAIC"
],
  "ImagingFrequency": 123.259,
  "InPlanePhaseEncodingDirectionDICOM": "COL",
  "InstitutionAddress": "Chemin_Queen-Mary_4565_Montreal_District_CA_H3W_1W5",
  "InstitutionName": "IUGM",
  "InstitutionalDepartmentName": "Department",
  "MRAcquisitionType": "2D",
  "MagneticFieldStrength": 3,
  "Manufacturer": "Siemens",
  "ManufacturersModelName": "Prisma_fit",
  "Modality": "MR",
  "MultibandAccelerationFactor": 4,
  "PartialFourier": 1,
  "PatientPosition": "HFS",
  "PercentPhaseFOV": 100,
  "PhaseEncodingDirection": "j",
  "PhaseEncodingSteps": 104,
  "PhaseResolution": 1,
  "PixelBandwidth": 2290,
  "ProcedureStepDescription": "games_mario",
  "ProtocolName": "func_task-mario_run-04",
  "PulseSequenceDetails": "%CustomerSeq%_cmrr_mbep2d_bold",
  "ReceiveCoilActiveElements": "HC1-7;NC1,2",
  "ReceiveCoilName": "HeadNeck_64",
  "ReconMatrixPE": 104,
  "RepetitionTime": 1.49,
  "SAR": 0.0417906,
  "ScanOptions": "FS",
  "ScanningSequence": "EP",
  "SequenceName": "epfid2d1_104",
  "SequenceVariant": "SK_SS",
  "SeriesDescription": "func_task-mario_run-04",
  "SeriesNumber": 19,
  "ShimSetting": [638, -7138, -8846, 551, 100, 148, -30, -16],
  "SliceThickness": 2,
  "SliceTiming": [0, 0.7825, 0.0975, 0.88, 0.195, 0.98, 0.2925, 1.0775, 0.39, 1.175, 0.49, 1.2725, 0.5875, 1.37, 0.685, 0, 0.7825, 0.0975, 0.88, 0.195, 0.98, 0.2925, 1.0775, 0.39, 1.175, 0.49, 1.2725, 0.5875, 1.37, 0.685, 0, 0.7825, 0.0975, 0.88, 0.195, 0.98, 0.2925, 1.0775, 0.39, 1.175, 0.49, 1.2725, 0.5875, 1.37, 0.685, 0, 0.7825, 0.0975, 0.88, 0.195, 0.98, 0.2925, 1.0775, 0.39, 1.175, 0.49, 1.2725, 0.5875, 1.37, 0.685],
  "SoftwareVersions": "syngo_MR_E11",
  "SpacingBetweenSlices": 2,
  "StationName": "MRC35049",
  "TaskName": "mario",
  "TotalReadoutTime": 0.0576811,
  "TxRefAmp": 253.398,
  "WipMemBlock": "16ad0319-90a4-47d4-bf25-79336b7fe5ee||Sequence: R016 ve11c/master r/e634e98; Dec 19 2017 11:00:25 by eja",
  "dcmmeta_affine": [
    [-1.9941661357879639, -0.0637143924832344, 0.13871456682682037, 106.61688232421875],
    [-0.11764499545097351, 1.7995764017105103, -0.8646875023841858, -48.36288833618164],
    [0.09726721048355103, 0.8703248500823975, 1.7980750799179077, -72.85359191894531],
    [0.0, 0.0, 0.0, 1.0]
],
  "dcmmeta_reorient_transform": [
    [0.0, -1.0, 0.0, 103.0],
    [1.0, 0.0, 0.0, 0.0],
    [0.0, 0.0, 1.0, 0.0],
    [0.0, 0.0, 0.0, 1.0]
],
  "dcmmeta_shape": [104, 104, 60, 424],
  "dcmmeta_slice_dim": 2,
  "dcmmeta_version": 0.6,
  "global": {
    "const": {
      "AcquisitionMatrix": [104, 0, 0, 104],
      "AngioFlag": "N",
      "BitsAllocated": 16,
      "BitsStored": 16,
      "BodyPartExamined": "BRAIN",
      "Columns": 832,
      "EchoNumbers": 1,
      "EchoTime": 37.0,
      "EchoTrainLength": 104,
      "FlipAngle": 52.0,
      "HighBit": 15,
      "ImageOrientationPatient": [0.99708308881568, 0.05882249947782, 0.04863360518163, -0.0318571978503, 0.89978819149424, -0.4351624172567],
      "ImagePositionPatient": [-802.73874861501, -834.86206089217, 298.18284345733],
      "ImageType": [
        "ORIGINAL",
        "PRIMARY",
        "M",
        "MB",
        "ND",
        "MOSAIC"
],
      "ImagedNucleus": "1H",
      "ImagingFrequency": 123.258966,
      "InPlanePhaseEncodingDirection": "COL",
      "MRAcquisitionType": "2D",
      "MagneticFieldStrength": 3.0,
      "Manufacturer": "SIEMENS",
      "ManufacturerModelName": "Prisma_fit",
      "Modality": "MR",
      "NumberOfAverages": 1.0,
      "NumberOfPhaseEncodingSteps": 104,
      "PercentPhaseFieldOfView": 100.0,
      "PercentSampling": 100.0,
      "PerformedProcedureStepStartTime": "100706.423000",
      "PhotometricInterpretation": "MONOCHROME2",
      "PixelBandwidth": 2290.0,
      "PixelRepresentation": 0,
      "PixelSpacing": [2.0, 2.0],
      "ProtocolName": "func_task-mario_run-04",
      "RepetitionTime": 1490.0,
      "Rows": 832,
      "SAR": 0.04179058680048,
      "SamplesPerPixel": 1,
      "ScanOptions": "FS",
      "ScanningSequence": "EP",
      "SequenceName": "epfid2d1_104",
      "SequenceVariant": [
        "SK",
        "SS"
],
      "SeriesDescription": "func_task-mario_run-04",
      "SeriesNumber": 19,
      "SeriesTime": "114508.460000",
      "SliceLocation": -37.19405895179,
      "SliceThickness": 2.0,
      "SmallestImagePixelValue": 0,
      "SoftwareVersions": "syngo MR E11",
      "SpacingBetweenSlices": 2.0000000184248,
      "SpecificCharacterSet": "ISO_IR 100",
      "StudyID": "1",
      "StudyTime": "100706.288000",
      "TransmitCoilName": "Body",
      "VariableFlipAngleFlag": "N",
      "WindowCenterWidthExplanation": "Algo1",
      "dBdt": 0.0},
    "slices": {}
  },
  "time": {
    "samples": {
      "AcquisitionNumber": [1, 2, 3, 4, 5, 6, 7, 8, 9, 10, 11, 12, 13, 14, 15, 16, 17, 18, 19, 20, 21, 22, 23, 24, 25, 26, 27, 28, 29, 30, 31, 32, 33, 34, 35, 36, 37, 38, 39, 40, 41, 42, 43, 44, 45, 46, 47, 48, 49, 50, 51, 52, 53, 54, 55, 56, 57, 58, 59, 60, 61, 62, 63, 64, 65, 66, 67, 68, 69, 70, 71, 72, 73, 74, 75, 76, 77, 78, 79, 80, 81, 82, 83, 84, 85, 86, 87, 88, 89, 90, 91, 92, 93, 94, 95, 96, 97, 98, 99, 100, 101, 102, 103, 104, 105, 106, 107, 108, 109, 110, 111, 112, 113, 114, 115, 116, 117, 118, 119, 120, 121, 122, 123, 124, 125, 126, 127, 128, 129, 130, 131, 132, 133, 134, 135, 136, 137, 138, 139, 140, 141, 142, 143, 144, 145, 146, 147, 148, 149, 150, 151, 152, 153, 154, 155, 156, 157, 158, 159, 160, 161, 162, 163, 164, 165, 166, 167, 168, 169, 170, 171, 172, 173, 174, 175, 176, 177, 178, 179, 180, 181, 182, 183, 184, 185, 186, 187, 188, 189, 190, 191, 192, 193, 194, 195, 196, 197, 198, 199, 200, 201, 202, 203, 204, 205, 206, 207, 208, 209, 210, 211, 212, 213, 214, 215, 216, 217, 218, 219, 220, 221, 222, 223, 224, 225, 226, 227, 228, 229, 230, 231, 232, 233, 234, 235, 236, 237, 238, 239, 240, 241, 242, 243, 244, 245, 246, 247, 248, 249, 250, 251, 252, 253, 254, 255, 256, 257, 258, 259, 260, 261, 262, 263, 264, 265, 266, 267, 268, 269, 270, 271, 272, 273, 274, 275, 276, 277, 278, 279, 280, 281, 282, 283, 284, 285, 286, 287, 288, 289, 290, 291, 292, 293, 294, 295, 296, 297, 298, 299, 300, 301, 302, 303, 304, 305, 306, 307, 308, 309, 310, 311, 312, 313, 314, 315, 316, 317, 318, 319, 320, 321, 322, 323, 324, 325, 326, 327, 328, 329, 330, 331, 332, 333, 334, 335, 336, 337, 338, 339, 340, 341, 342, 343, 344, 345, 346, 347, 348, 349, 350, 351, 352, 353, 354, 355, 356, 357, 358, 359, 360, 361, 362, 363, 364, 365, 366, 367, 368, 369, 370, 371, 372, 373, 374, 375, 376, 377, 378, 379, 380, 381, 382, 383, 384, 385, 386, 387, 388, 389, 390, 391, 392, 393, 394, 395, 396, 397, 398, 399, 400, 401, 402, 403, 404, 405, 406, 407, 408, 409, 410, 411, 412, 413, 414, 415, 416, 417, 418, 419, 420, 421, 422, 423, 424],
      "AcquisitionTime": ["114349.427500", "114350.917500", "114352.407500", "114353.897500", "114355.387500", "114356.877500", "114358.367500", "114359.857500", "114401.347500", "114402.837500", "114404.327500", "114405.817500", "114407.307500", "114408.797500", "114410.287500", "114411.777500", "114413.267500", "114414.757500", "114416.247500", "114417.737500", "114419.227500", "114420.717500", "114422.207500", "114423.697500", "114425.187500", "114426.677500", "114428.167500", "114429.657500", "114431.147500", "114432.637500", "114434.127500", "114435.617500", "114437.107500", "114438.597500", "114440.087500", "114441.577500", "114443.067500", "114444.557500", "114446.047500", "114447.537500", "114449.027500", "114450.517500", "114452.007500", "114453.497500", "114454.987500", "114456.477500", "114457.967500", "114459.457500", "114500.947500", "114502.437500", "114503.927500", "114505.417500", "114506.907500", "114508.397500", "114509.887500", "114511.377500", "114512.867500", "114514.357500", "114515.847500", "114517.337500", "114518.827500", "114520.317500", "114521.807500", "114523.297500", "114524.787500", "114526.277500", "114527.767500", "114529.257500", "114530.747500", "114532.237500", "114533.727500", "114535.217500", "114536.707500", "114538.197500", "114539.687500", "114541.177500", "114542.667500", "114544.157500", "114545.647500", "114547.137500", "114548.627500", "114550.117500", "114551.607500", "114553.097500", "114554.587500", "114556.077500", "114557.567500", "114559.057500", "114600.547500", "114602.037500", "114603.527500", "114605.017500", "114606.507500", "114607.997500", "114609.487500", "114610.977500", "114612.467500", "114613.957500", "114615.447500", "114616.937500", "114618.427500", "114619.917500", "114621.407500", "114622.897500", "114624.387500", "114625.877500", "114627.367500", "114628.857500", "114630.347500", "114631.837500", "114633.327500", "114634.817500", "114636.307500", "114637.797500", "114639.287500", "114640.777500", "114642.267500", "114643.757500", "114645.247500", "114646.737500", "114648.227500", "114649.717500", "114651.207500", "114652.697500", "114654.187500", "114655.677500", "114657.167500", "114658.657500", "114700.147500", "114701.637500", "114703.127500", "114704.617500", "114706.107500", "114707.597500", "114709.087500", "114710.577500", "114712.067500", "114713.557500", "114715.047500", "114716.537500", "114718.027500", "114719.517500", "114721.007500", "114722.497500", "114723.987500", "114725.477500", "114726.967500", "114728.457500", "114729.947500", "114731.437500", "114732.927500", "114734.417500", "114735.907500", "114737.397500", "114738.887500", "114740.377500", "114741.867500", "114743.357500", "114744.847500", "114746.337500", "114747.827500", "114749.317500", "114750.807500", "114752.297500", "114753.787500", "114755.277500", "114756.767500", "114758.257500", "114759.747500", "114801.237500", "114802.727500", "114804.217500", "114805.707500", "114807.197500", "114808.687500", "114810.177500", "114811.667500", "114813.157500", "114814.647500", "114816.137500", "114817.627500", "114819.117500", "114820.607500", "114822.097500", "114823.587500", "114825.077500", "114826.567500", "114828.057500", "114829.547500", "114831.037500", "114832.527500", "114834.017500", "114835.507500", "114836.997500", "114838.487500", "114839.977500", "114841.467500", "114842.957500", "114844.447500", "114845.937500", "114847.427500", "114848.917500", "114850.407500", "114851.897500", "114853.387500", "114854.877500", "114856.367500", "114857.857500", "114859.347500", "114900.837500", "114902.327500", "114903.817500", "114905.307500", "114906.797500", "114908.287500", "114909.777500", "114911.267500", "114912.757500", "114914.247500", "114915.737500", "114917.227500", "114918.717500", "114920.207500", "114921.697500", "114923.187500", "114924.677500", "114926.167500", "114927.657500", "114929.147500", "114930.637500", "114932.127500", "114933.617500", "114935.107500", "114936.597500", "114938.087500", "114939.577500", "114941.067500", "114942.557500", "114944.047500", "114945.537500", "114947.027500", "114948.517500", "114950.007500", "114951.497500", "114952.987500", "114954.477500", "114955.967500", "114957.457500", "114958.947500", "115000.437500", "115001.927500", "115003.417500", "115004.907500", "115006.397500", "115007.887500", "115009.377500", "115010.867500", "115012.357500", "115013.847500", "115015.337500", "115016.827500", "115018.317500", "115019.807500", "115021.297500", "115022.787500", "115024.277500", "115025.767500", "115027.257500", "115028.747500", "115030.237500", "115031.727500", "115033.217500", "115034.707500", "115036.197500", "115037.687500", "115039.177500", "115040.667500", "115042.157500", "115043.647500", "115045.137500", "115046.627500", "115048.117500", "115049.607500", "115051.097500", "115052.587500", "115054.077500", "115055.567500", "115057.057500", "115058.547500", "115100.037500", "115101.527500", "115103.017500", "115104.507500", "115105.997500", "115107.487500", "115108.977500", "115110.467500", "115111.957500", "115113.447500", "115114.937500", "115116.427500", "115117.917500", "115119.407500", "115120.897500", "115122.387500", "115123.877500", "115125.367500", "115126.857500", "115128.347500", "115129.837500", "115131.327500", "115132.817500", "115134.307500", "115135.797500", "115137.287500", "115138.777500", "115140.267500", "115141.757500", "115143.247500", "115144.737500", "115146.227500", "115147.717500", "115149.207500", "115150.697500", "115152.187500", "115153.677500", "115155.167500", "115156.657500", "115158.147500", "115159.637500", "115201.127500", "115202.617500", "115204.107500", "115205.597500", "115207.087500", "115208.577500", "115210.067500", "115211.557500", "115213.047500", "115214.537500", "115216.027500", "115217.517500", "115219.007500", "115220.497500", "115221.987500", "115223.477500", "115224.967500", "115226.457500", "115227.947500", "115229.437500", "115230.927500", "115232.417500", "115233.907500", "115235.397500", "115236.887500", "115238.377500", "115239.867500", "115241.357500", "115242.847500", "115244.337500", "115245.827500", "115247.317500", "115248.807500", "115250.297500", "115251.787500", "115253.277500", "115254.767500", "115256.257500", "115257.747500", "115259.237500", "115300.727500", "115302.217500", "115303.707500", "115305.197500", "115306.687500", "115308.177500", "115309.667500", "115311.157500", "115312.647500", "115314.137500", "115315.627500", "115317.117500", "115318.607500", "115320.097500", "115321.587500", "115323.077500", "115324.567500", "115326.057500", "115327.547500", "115329.037500", "115330.527500", "115332.017500", "115333.507500", "115334.997500", "115336.487500", "115337.977500", "115339.467500", "115340.957500", "115342.447500", "115343.937500", "115345.427500", "115346.917500", "115348.407500", "115349.897500", "115351.387500", "115352.877500", "115354.367500", "115355.857500", "115357.347500", "115358.837500", "115400.327500", "115401.817500", "115403.307500", "115404.797500", "115406.287500", "115407.777500", "115409.267500", "115410.757500", "115412.247500", "115413.737500", "115415.227500", "115416.717500", "115418.207500", "115419.697500"],
      "ContentTime": ["114508.463000", "114508.467000", "114508.470000", "114508.474000", "114508.477000", "114508.480000", "114508.484000", "114508.487000", "114508.490000", "114508.493000", "114508.497000", "114508.500000", "114508.503000", "114508.507000", "114508.510000", "114508.513000", "114508.516000", "114508.520000", "114508.523000", "114508.526000", "114508.530000", "114508.533000", "114508.536000", "114508.540000", "114508.543000", "114528.420000", "114528.424000", "114528.427000", "114528.430000", "114528.434000", "114528.437000", "114528.440000", "114528.444000", "114528.447000", "114528.450000", "114528.453000", "114528.457000", "114528.460000", "114528.463000", "114528.467000", "114528.470000", "114528.473000", "114528.476000", "114528.479000", "114528.483000", "114548.420000", "114548.424000", "114548.427000", "114548.430000", "114548.434000", "114548.437000", "114548.440000", "114548.444000", "114548.447000", "114548.450000", "114548.454000", "114548.457000", "114548.460000", "114548.463000", "114548.467000", "114548.470000", "114548.473000", "114548.477000", "114548.480000", "114548.483000", "114548.486000", "114608.420000", "114608.424000", "114608.427000", "114608.430000", "114608.434000", "114608.437000", "114608.440000", "114608.444000", "114608.447000", "114608.450000", "114608.459000", "114608.462000", "114608.465000", "114608.469000", "114608.472000", "114608.475000", "114608.478000", "114608.482000", "114608.485000", "114608.488000", "114628.420000", "114628.424000", "114628.427000", "114628.431000", "114628.454000", "114628.458000", "114628.461000", "114628.464000", "114628.468000", "114628.471000", "114628.475000", "114628.478000", "114628.481000", "114628.485000", "114628.488000", "114628.491000", "114628.503000", "114628.507000", "114628.510000", "114628.513000", "114708.420000", "114708.424000", "114708.427000", "114708.431000", "114708.448000", "114708.451000", "114708.454000", "114708.458000", "114708.461000", "114708.464000", "114708.468000", "114708.471000", "114708.474000", "114708.478000", "114708.481000", "114708.484000", "114708.488000", "114708.491000", "114708.494000", "114708.497000", "114708.501000", "114708.504000", "114708.507000", "114708.510000", "114708.514000", "114708.517000", "114708.520000", "114748.420000", "114748.424000", "114748.427000", "114748.431000", "114748.434000", "114748.437000", "114748.441000", "114748.444000", "114748.447000", "114748.451000", "114748.454000", "114748.457000", "114748.461000", "114748.464000", "114748.467000", "114748.471000", "114748.474000", "114748.477000", "114748.481000", "114748.484000", "114748.487000", "114748.491000", "114748.494000", "114748.497000", "114748.500000", "114748.504000", "114748.507000", "114828.420000", "114828.424000", "114828.427000", "114828.431000", "114828.434000", "114828.438000", "114828.441000", "114828.444000", "114828.448000", "114828.451000", "114828.455000", "114828.458000", "114828.461000", "114828.465000", "114828.468000", "114828.472000", "114828.475000", "114828.479000", "114828.482000", "114828.485000", "114828.488000", "114828.492000", "114828.495000", "114828.498000", "114828.502000", "114828.505000", "114908.420000", "114908.439000", "114908.442000", "114908.446000", "114908.449000", "114908.461000", "114908.464000", "114908.468000", "114908.471000", "114908.474000", "114908.478000", "114908.481000", "114908.484000", "114908.487000", "114908.491000", "114908.494000", "114908.497000", "114908.501000", "114908.504000", "114908.508000", "114908.511000", "114908.514000", "114908.517000", "114908.521000", "114908.524000", "114908.527000", "114908.531000", "114948.420000", "114948.424000", "114948.427000", "114948.431000", "114948.434000", "114948.438000", "114948.441000", "114948.444000", "114948.448000", "114948.451000", "114948.454000", "114948.458000", "114948.461000", "114948.464000", "114948.468000", "114948.471000", "114948.474000", "114948.478000", "114948.481000", "114948.485000", "114948.488000", "114948.491000", "114948.494000", "114948.498000", "114948.501000", "114948.505000", "114948.508000", "115028.420000", "115028.424000", "115028.428000", "115028.431000", "115028.434000", "115028.438000", "115028.441000", "115028.444000", "115028.448000", "115028.451000", "115028.455000", "115028.458000", "115028.462000", "115028.465000", "115028.469000", "115028.472000", "115028.475000", "115028.479000", "115028.482000", "115028.486000", "115028.489000", "115028.492000", "115028.496000", "115028.499000", "115028.502000", "115028.506000", "115028.509000", "115108.419000", "115108.423000", "115108.426000", "115108.430000", "115108.433000", "115108.436000", "115108.440000", "115108.443000", "115108.446000", "115108.450000", "115108.453000", "115108.456000", "115108.459000", "115108.463000", "115108.466000", "115108.470000", "115108.473000", "115108.476000", "115108.479000", "115108.483000", "115108.486000", "115108.498000", "115108.502000", "115108.505000", "115108.508000", "115108.512000", "115108.515000", "115148.420000", "115148.424000", "115148.427000", "115148.431000", "115148.434000", "115148.437000", "115148.441000", "115148.444000", "115148.447000", "115148.451000", "115148.454000", "115148.457000", "115148.461000", "115148.464000", "115148.467000", "115148.471000", "115148.474000", "115148.477000", "115148.480000", "115148.484000", "115148.487000", "115148.490000", "115148.494000", "115148.497000", "115148.500000", "115148.503000", "115148.507000", "115228.422000", "115228.426000", "115228.431000", "115228.435000", "115228.440000", "115228.444000", "115228.447000", "115228.451000", "115228.455000", "115228.458000", "115228.461000", "115228.465000", "115228.468000", "115228.471000", "115228.475000", "115228.478000", "115228.481000", "115228.485000", "115228.488000", "115228.492000", "115228.495000", "115228.498000", "115228.501000", "115228.505000", "115228.508000", "115228.511000", "115308.420000", "115308.424000", "115308.427000", "115308.431000", "115308.434000", "115308.437000", "115308.441000", "115308.444000", "115308.447000", "115308.451000", "115308.454000", "115308.457000", "115308.461000", "115308.464000", "115308.469000", "115308.472000", "115308.476000", "115308.479000", "115308.482000", "115308.486000", "115308.489000", "115308.492000", "115308.496000", "115308.499000", "115308.502000", "115308.506000", "115308.509000", "115348.420000", "115348.424000", "115348.427000", "115348.430000", "115348.434000", "115348.437000", "115348.440000", "115348.443000", "115348.447000", "115348.450000", "115348.454000", "115348.457000", "115348.460000", "115348.464000", "115348.467000", "115348.470000", "115348.473000", "115348.477000", "115348.480000", "115348.484000", "115348.487000", "115348.490000", "115348.493000", "115348.497000", "115348.500000", "115348.503000", "115348.507000", "115422.085000", "115422.089000", "115422.092000", "115422.096000", "115422.100000", "115422.103000", "115422.107000", "115422.110000", "115422.114000", "115422.118000", "115422.121000", "115422.125000", "115422.128000", "115422.132000", "115422.135000", "115422.138000", "115422.142000", "115422.145000", "115422.148000", "115422.152000", "115422.155000", "115422.158000", "115422.162000"],
      "InstanceCreationTime": ["114508.463000", "114508.467000", "114508.470000", "114508.474000", "114508.477000", "114508.480000", "114508.484000", "114508.487000", "114508.490000", "114508.493000", "114508.497000", "114508.500000", "114508.503000", "114508.507000", "114508.510000", "114508.513000", "114508.516000", "114508.520000", "114508.523000", "114508.526000", "114508.530000", "114508.533000", "114508.536000", "114508.540000", "114508.543000", "114528.420000", "114528.424000", "114528.427000", "114528.430000", "114528.434000", "114528.437000", "114528.440000", "114528.444000", "114528.447000", "114528.450000", "114528.453000", "114528.457000", "114528.460000", "114528.463000", "114528.467000", "114528.470000", "114528.473000", "114528.476000", "114528.479000", "114528.483000", "114548.420000", "114548.424000", "114548.427000", "114548.430000", "114548.434000", "114548.437000", "114548.440000", "114548.444000", "114548.447000", "114548.450000", "114548.454000", "114548.457000", "114548.460000", "114548.463000", "114548.467000", "114548.470000", "114548.473000", "114548.477000", "114548.480000", "114548.483000", "114548.486000", "114608.420000", "114608.424000", "114608.427000", "114608.430000", "114608.434000", "114608.437000", "114608.440000", "114608.444000", "114608.447000", "114608.450000", "114608.459000", "114608.462000", "114608.465000", "114608.469000", "114608.472000", "114608.475000", "114608.478000", "114608.482000", "114608.485000", "114608.488000", "114628.420000", "114628.424000", "114628.427000", "114628.431000", "114628.454000", "114628.458000", "114628.461000", "114628.464000", "114628.468000", "114628.471000", "114628.475000", "114628.478000", "114628.481000", "114628.485000", "114628.488000", "114628.491000", "114628.503000", "114628.507000", "114628.510000", "114628.513000", "114708.420000", "114708.424000", "114708.427000", "114708.431000", "114708.448000", "114708.451000", "114708.454000", "114708.458000", "114708.461000", "114708.464000", "114708.468000", "114708.471000", "114708.474000", "114708.478000", "114708.481000", "114708.484000", "114708.488000", "114708.491000", "114708.494000", "114708.497000", "114708.501000", "114708.504000", "114708.507000", "114708.510000", "114708.514000", "114708.517000", "114708.520000", "114748.420000", "114748.424000", "114748.427000", "114748.431000", "114748.434000", "114748.437000", "114748.441000", "114748.444000", "114748.447000", "114748.451000", "114748.454000", "114748.457000", "114748.461000", "114748.464000", "114748.467000", "114748.471000", "114748.474000", "114748.477000", "114748.481000", "114748.484000", "114748.487000", "114748.491000", "114748.494000", "114748.497000", "114748.500000", "114748.504000", "114748.507000", "114828.420000", "114828.424000", "114828.427000", "114828.431000", "114828.434000", "114828.438000", "114828.441000", "114828.444000", "114828.448000", "114828.451000", "114828.455000", "114828.458000", "114828.461000", "114828.465000", "114828.468000", "114828.472000", "114828.475000", "114828.479000", "114828.482000", "114828.485000", "114828.488000", "114828.492000", "114828.495000", "114828.498000", "114828.502000", "114828.505000", "114908.420000", "114908.439000", "114908.442000", "114908.446000", "114908.449000", "114908.461000", "114908.464000", "114908.468000", "114908.471000", "114908.474000", "114908.478000", "114908.481000", "114908.484000", "114908.487000", "114908.491000", "114908.494000", "114908.497000", "114908.501000", "114908.504000", "114908.508000", "114908.511000", "114908.514000", "114908.517000", "114908.521000", "114908.524000", "114908.527000", "114908.531000", "114948.420000", "114948.424000", "114948.427000", "114948.431000", "114948.434000", "114948.438000", "114948.441000", "114948.444000", "114948.448000", "114948.451000", "114948.454000", "114948.458000", "114948.461000", "114948.464000", "114948.468000", "114948.471000", "114948.474000", "114948.478000", "114948.481000", "114948.485000", "114948.488000", "114948.491000", "114948.494000", "114948.498000", "114948.501000", "114948.505000", "114948.508000", "115028.420000", "115028.424000", "115028.428000", "115028.431000", "115028.434000", "115028.438000", "115028.441000", "115028.444000", "115028.448000", "115028.451000", "115028.455000", "115028.458000", "115028.462000", "115028.465000", "115028.469000", "115028.472000", "115028.475000", "115028.479000", "115028.482000", "115028.486000", "115028.489000", "115028.492000", "115028.496000", "115028.499000", "115028.502000", "115028.506000", "115028.509000", "115108.419000", "115108.423000", "115108.426000", "115108.430000", "115108.433000", "115108.436000", "115108.440000", "115108.443000", "115108.446000", "115108.450000", "115108.453000", "115108.456000", "115108.459000", "115108.463000", "115108.466000", "115108.470000", "115108.473000", "115108.476000", "115108.479000", "115108.483000", "115108.486000", "115108.498000", "115108.502000", "115108.505000", "115108.508000", "115108.512000", "115108.515000", "115148.420000", "115148.424000", "115148.427000", "115148.431000", "115148.434000", "115148.437000", "115148.441000", "115148.444000", "115148.447000", "115148.451000", "115148.454000", "115148.457000", "115148.461000", "115148.464000", "115148.467000", "115148.471000", "115148.474000", "115148.477000", "115148.480000", "115148.484000", "115148.487000", "115148.490000", "115148.494000", "115148.497000", "115148.500000", "115148.503000", "115148.507000", "115228.422000", "115228.426000", "115228.431000", "115228.435000", "115228.440000", "115228.444000", "115228.447000", "115228.451000", "115228.455000", "115228.458000", "115228.461000", "115228.465000", "115228.468000", "115228.471000", "115228.475000", "115228.478000", "115228.481000", "115228.485000", "115228.488000", "115228.492000", "115228.495000", "115228.498000", "115228.501000", "115228.505000", "115228.508000", "115228.511000", "115308.420000", "115308.424000", "115308.427000", "115308.431000", "115308.434000", "115308.437000", "115308.441000", "115308.444000", "115308.447000", "115308.451000", "115308.454000", "115308.457000", "115308.461000", "115308.464000", "115308.469000", "115308.472000", "115308.476000", "115308.479000", "115308.482000", "115308.486000", "115308.489000", "115308.492000", "115308.496000", "115308.499000", "115308.502000", "115308.506000", "115308.509000", "115348.420000", "115348.424000", "115348.427000", "115348.430000", "115348.434000", "115348.437000", "115348.440000", "115348.443000", "115348.447000", "115348.450000", "115348.454000", "115348.457000", "115348.460000", "115348.464000", "115348.467000", "115348.470000", "115348.473000", "115348.477000", "115348.480000", "115348.484000", "115348.487000", "115348.490000", "115348.493000", "115348.497000", "115348.500000", "115348.503000", "115348.507000", "115422.085000", "115422.089000", "115422.092000", "115422.096000", "115422.100000", "115422.103000", "115422.107000", "115422.110000", "115422.114000", "115422.118000", "115422.121000", "115422.125000", "115422.128000", "115422.132000", "115422.135000", "115422.138000", "115422.142000", "115422.145000", "115422.148000", "115422.152000", "115422.155000", "115422.158000", "115422.162000"],
