{
  "AcquisitionMatrixPE": 104,
  "AcquisitionNumber": 1,
  "AcquisitionTime": "15:47:36.950000",
  "BandwidthPerPixelPhaseEncode": 17.17,
  "BaseResolution": 104,
  "BodyPartExamined": "BRAIN",
  "CoilString": "HC1-7;NC1_2",
  "ConsistencyInfo": "N4_VE11C_LATEST_20160120",
  "ConversionSoftware": "dcm2niix",
  "ConversionSoftwareVersion": "v1.0.20190902",
  "DerivedVendorReportedEchoSpacing": 0.000560011,
  "DeviceSerialNumber": "167006",
  "DwellTime": 2.1e-06,
  "EchoTime": 0.037,
  "EchoTrainLength": 104,
  "EffectiveEchoSpacing": 0.000560011,
  "FlipAngle": 52,
  "HeudiconvVersion": "0.10.0",
  "ImageComments": "Unaliased_MB4_PE3_LB",
  "ImageOrientationPatientDICOM": [0.998046, -0.0583275, 0.02242, 0.062442, 0.944683, -0.321985],
  "ImageType": [
    "ORIGINAL",
    "PRIMARY",
    "M",
    "MB",
    "ND",
    "MOSAIC"
],
  "ImagingFrequency": 123.259,
  "InPlanePhaseEncodingDirectionDICOM": "COL",
  "InstitutionAddress": "Chemin_Queen-Mary_4565_Montreal_District_CA_H3W_1W5",
  "InstitutionName": "IUGM",
  "InstitutionalDepartmentName": "Department",
  "MRAcquisitionType": "2D",
  "MagneticFieldStrength": 3,
  "Manufacturer": "Siemens",
  "ManufacturersModelName": "Prisma_fit",
  "Modality": "MR",
  "MultibandAccelerationFactor": 4,
  "PartialFourier": 1,
  "PatientPosition": "HFS",
  "PercentPhaseFOV": 100,
  "PhaseEncodingDirection": "j",
  "PhaseEncodingSteps": 104,
  "PhaseResolution": 1,
  "PixelBandwidth": 2290,
  "ProcedureStepDescription": "games_mario",
  "ProtocolName": "func_task-mario_run-01",
  "PulseSequenceDetails": "%CustomerSeq%_cmrr_mbep2d_bold",
  "ReceiveCoilActiveElements": "HC1-7;NC1,2",
  "ReceiveCoilName": "HeadNeck_64",
  "ReconMatrixPE": 104,
  "RepetitionTime": 1.49,
  "SAR": 0.0621043,
  "ScanOptions": "FS",
  "ScanningSequence": "EP",
  "SequenceName": "epfid2d1_104",
  "SequenceVariant": "SK_SS",
  "SeriesDescription": "func_task-mario_run-01",
  "SeriesNumber": 16,
  "ShimSetting": [628, -7237, -8824, 602, 7, -164, -82, -24],
  "SliceThickness": 2,
  "SliceTiming": [0, 0.7825, 0.0975, 0.88, 0.195, 0.98, 0.2925, 1.0775, 0.39, 1.175, 0.49, 1.2725, 0.5875, 1.37, 0.685, 0, 0.7825, 0.0975, 0.88, 0.195, 0.98, 0.2925, 1.0775, 0.39, 1.175, 0.49, 1.2725, 0.5875, 1.37, 0.685, 0, 0.7825, 0.0975, 0.88, 0.195, 0.98, 0.2925, 1.0775, 0.39, 1.175, 0.49, 1.2725, 0.5875, 1.37, 0.685, 0, 0.7825, 0.0975, 0.88, 0.195, 0.98, 0.2925, 1.0775, 0.39, 1.175, 0.49, 1.2725, 0.5875, 1.37, 0.685],
  "SoftwareVersions": "syngo_MR_E11",
  "SpacingBetweenSlices": 2,
  "StationName": "MRC35049",
  "TaskName": "mario",
  "TotalReadoutTime": 0.0576811,
  "TxRefAmp": 279.054,
  "WipMemBlock": "cb256d67-eaab-4319-bf0b-78558ed3ad3c||Sequence: R016 ve11c/master r/e634e98; Dec 19 2017 11:00:25 by eja",
  "dcmmeta_affine": [
    [-1.9960914850234985, 0.12488391250371933, 0.004798426758497953, 100.74617004394531],
    [0.11665500700473785, 1.889366626739502, -0.6455116271972656, -72.66900634765625],
    [0.0448400042951107, 0.643970251083374, 1.892958402633667, -66.96673583984375],
    [0.0, 0.0, 0.0, 1.0]
],
  "dcmmeta_reorient_transform": [
    [0.0, -1.0, 0.0, 103.0],
    [1.0, 0.0, 0.0, 0.0],
    [0.0, 0.0, 1.0, 0.0],
    [0.0, 0.0, 0.0, 1.0]
],
  "dcmmeta_shape": [104, 104, 60, 421],
  "dcmmeta_slice_dim": 2,
  "dcmmeta_version": 0.6,
  "global": {
    "const": {
      "AcquisitionMatrix": [104, 0, 0, 104],
      "AngioFlag": "N",
      "BitsAllocated": 16,
      "BitsStored": 16,
      "BodyPartExamined": "BRAIN",
      "Columns": 832,
      "EchoNumbers": 1,
      "EchoTime": 37.0,
      "EchoTrainLength": 104,
      "FlipAngle": 52.0,
      "HighBit": 15,
      "ImageOrientationPatient": [0.99804571327159, -0.0583275040959, 0.022420001921, 0.06244195700908, 0.9446833243247, -0.3219851219354],
      "ImagePositionPatient": [-885.64423337083, -767.20279363581, 217.4456097378],
      "ImageType": [
        "ORIGINAL",
        "PRIMARY",
        "M",
        "MB",
        "ND",
        "MOSAIC"
],
      "ImagedNucleus": "1H",
      "ImagingFrequency": 123.25892,
      "InPlanePhaseEncodingDirection": "COL",
      "MRAcquisitionType": "2D",
      "MagneticFieldStrength": 3.0,
      "Manufacturer": "SIEMENS",
      "ManufacturerModelName": "Prisma_fit",
      "Modality": "MR",
      "NumberOfAverages": 1.0,
      "NumberOfPhaseEncodingSteps": 104,
      "PercentPhaseFieldOfView": 100.0,
      "PercentSampling": 100.0,
      "PerformedProcedureStepStartTime": "145128.001000",
      "PhotometricInterpretation": "MONOCHROME2",
      "PixelBandwidth": 2290.0,
      "PixelRepresentation": 0,
      "PixelSpacing": [2.0, 2.0],
      "ProtocolName": "func_task-mario_run-01",
      "RepetitionTime": 1490.0,
      "Rows": 832,
      "SAR": 0.06210430482322,
      "SamplesPerPixel": 1,
      "ScanOptions": "FS",
      "ScanningSequence": "EP",
      "SequenceName": "epfid2d1_104",
      "SequenceVariant": [
        "SK",
        "SS"
],
      "SeriesDescription": "func_task-mario_run-01",
      "SeriesNumber": 16,
      "SeriesTime": "154907.064000",
      "SliceLocation": -39.686564484983,
      "SliceThickness": 2.0,
      "SmallestImagePixelValue": 0,
      "SoftwareVersions": "syngo MR E11",
      "SpacingBetweenSlices": 1.9999999565657,
      "SpecificCharacterSet": "ISO_IR 100",
      "StudyID": "1",
      "StudyTime": "145127.911000",
      "TransmitCoilName": "Body",
      "VariableFlipAngleFlag": "N",
      "WindowCenterWidthExplanation": "Algo1",
      "dBdt": 0.0},
    "slices": {}
  },
  "time": {
    "samples": {
      "AcquisitionNumber": [1, 2, 3, 4, 5, 6, 7, 8, 9, 10, 11, 12, 13, 14, 15, 16, 17, 18, 19, 20, 21, 22, 23, 24, 25, 26, 27, 28, 29, 30, 31, 32, 33, 34, 35, 36, 37, 38, 39, 40, 41, 42, 43, 44, 45, 46, 47, 48, 49, 50, 51, 52, 53, 54, 55, 56, 57, 58, 59, 60, 61, 62, 63, 64, 65, 66, 67, 68, 69, 70, 71, 72, 73, 74, 75, 76, 77, 78, 79, 80, 81, 82, 83, 84, 85, 86, 87, 88, 89, 90, 91, 92, 93, 94, 95, 96, 97, 98, 99, 100, 101, 102, 103, 104, 105, 106, 107, 108, 109, 110, 111, 112, 113, 114, 115, 116, 117, 118, 119, 120, 121, 122, 123, 124, 125, 126, 127, 128, 129, 130, 131, 132, 133, 134, 135, 136, 137, 138, 139, 140, 141, 142, 143, 144, 145, 146, 147, 148, 149, 150, 151, 152, 153, 154, 155, 156, 157, 158, 159, 160, 161, 162, 163, 164, 165, 166, 167, 168, 169, 170, 171, 172, 173, 174, 175, 176, 177, 178, 179, 180, 181, 182, 183, 184, 185, 186, 187, 188, 189, 190, 191, 192, 193, 194, 195, 196, 197, 198, 199, 200, 201, 202, 203, 204, 205, 206, 207, 208, 209, 210, 211, 212, 213, 214, 215, 216, 217, 218, 219, 220, 221, 222, 223, 224, 225, 226, 227, 228, 229, 230, 231, 232, 233, 234, 235, 236, 237, 238, 239, 240, 241, 242, 243, 244, 245, 246, 247, 248, 249, 250, 251, 252, 253, 254, 255, 256, 257, 258, 259, 260, 261, 262, 263, 264, 265, 266, 267, 268, 269, 270, 271, 272, 273, 274, 275, 276, 277, 278, 279, 280, 281, 282, 283, 284, 285, 286, 287, 288, 289, 290, 291, 292, 293, 294, 295, 296, 297, 298, 299, 300, 301, 302, 303, 304, 305, 306, 307, 308, 309, 310, 311, 312, 313, 314, 315, 316, 317, 318, 319, 320, 321, 322, 323, 324, 325, 326, 327, 328, 329, 330, 331, 332, 333, 334, 335, 336, 337, 338, 339, 340, 341, 342, 343, 344, 345, 346, 347, 348, 349, 350, 351, 352, 353, 354, 355, 356, 357, 358, 359, 360, 361, 362, 363, 364, 365, 366, 367, 368, 369, 370, 371, 372, 373, 374, 375, 376, 377, 378, 379, 380, 381, 382, 383, 384, 385, 386, 387, 388, 389, 390, 391, 392, 393, 394, 395, 396, 397, 398, 399, 400, 401, 402, 403, 404, 405, 406, 407, 408, 409, 410, 411, 412, 413, 414, 415, 416, 417, 418, 419, 420, 421],
      "AcquisitionTime": ["154736.950000", "154738.440000", "154739.930000", "154741.420000", "154742.910000", "154744.400000", "154745.890000", "154747.380000", "154748.870000", "154750.360000", "154751.850000", "154753.340000", "154754.830000", "154756.320000", "154757.810000", "154759.300000", "154800.790000", "154802.280000", "154803.770000", "154805.260000", "154806.750000", "154808.240000", "154809.730000", "154811.220000", "154812.710000", "154814.200000", "154815.690000", "154817.180000", "154818.670000", "154820.160000", "154821.650000", "154823.140000", "154824.630000", "154826.120000", "154827.610000", "154829.100000", "154830.590000", "154832.080000", "154833.570000", "154835.060000", "154836.550000", "154838.040000", "154839.530000", "154841.020000", "154842.510000", "154844.000000", "154845.490000", "154846.980000", "154848.470000", "154849.960000", "154851.450000", "154852.940000", "154854.430000", "154855.920000", "154857.410000", "154858.900000", "154900.390000", "154901.880000", "154903.370000", "154904.860000", "154906.350000", "154907.840000", "154909.330000", "154910.820000", "154912.310000", "154913.800000", "154915.290000", "154916.780000", "154918.270000", "154919.760000", "154921.250000", "154922.740000", "154924.230000", "154925.720000", "154927.210000", "154928.700000", "154930.190000", "154931.680000", "154933.170000", "154934.660000", "154936.150000", "154937.640000", "154939.130000", "154940.620000", "154942.110000", "154943.600000", "154945.090000", "154946.580000", "154948.070000", "154949.560000", "154951.050000", "154952.540000", "154954.030000", "154955.520000", "154957.010000", "154958.500000", "154959.990000", "155001.480000", "155002.970000", "155004.460000", "155005.950000", "155007.440000", "155008.930000", "155010.420000", "155011.910000", "155013.400000", "155014.890000", "155016.380000", "155017.870000", "155019.360000", "155020.850000", "155022.340000", "155023.830000", "155025.320000", "155026.810000", "155028.300000", "155029.790000", "155031.280000", "155032.770000", "155034.260000", "155035.750000", "155037.240000", "155038.730000", "155040.220000", "155041.710000", "155043.200000", "155044.690000", "155046.180000", "155047.670000", "155049.160000", "155050.650000", "155052.140000", "155053.630000", "155055.120000", "155056.610000", "155058.100000", "155059.590000", "155101.080000", "155102.570000", "155104.060000", "155105.550000", "155107.040000", "155108.530000", "155110.020000", "155111.510000", "155113.000000", "155114.490000", "155115.980000", "155117.470000", "155118.960000", "155120.450000", "155121.940000", "155123.430000", "155124.920000", "155126.410000", "155127.900000", "155129.390000", "155130.880000", "155132.370000", "155133.860000", "155135.350000", "155136.840000", "155138.330000", "155139.820000", "155141.310000", "155142.800000", "155144.290000", "155145.780000", "155147.270000", "155148.760000", "155150.250000", "155151.740000", "155153.230000", "155154.720000", "155156.210000", "155157.700000", "155159.190000", "155200.680000", "155202.170000", "155203.660000", "155205.150000", "155206.640000", "155208.130000", "155209.620000", "155211.110000", "155212.600000", "155214.090000", "155215.580000", "155217.070000", "155218.560000", "155220.050000", "155221.540000", "155223.030000", "155224.520000", "155226.010000", "155227.500000", "155228.990000", "155230.480000", "155231.970000", "155233.460000", "155234.950000", "155236.440000", "155237.930000", "155239.420000", "155240.910000", "155242.400000", "155243.890000", "155245.380000", "155246.870000", "155248.360000", "155249.850000", "155251.340000", "155252.830000", "155254.320000", "155255.810000", "155257.300000", "155258.790000", "155300.280000", "155301.770000", "155303.260000", "155304.750000", "155306.240000", "155307.730000", "155309.220000", "155310.710000", "155312.200000", "155313.690000", "155315.180000", "155316.670000", "155318.160000", "155319.650000", "155321.140000", "155322.630000", "155324.120000", "155325.610000", "155327.100000", "155328.590000", "155330.080000", "155331.570000", "155333.060000", "155334.550000", "155336.040000", "155337.530000", "155339.020000", "155340.510000", "155342.000000", "155343.490000", "155344.980000", "155346.470000", "155347.960000", "155349.450000", "155350.940000", "155352.430000", "155353.920000", "155355.410000", "155356.900000", "155358.390000", "155359.880000", "155401.370000", "155402.860000", "155404.350000", "155405.840000", "155407.330000", "155408.820000", "155410.310000", "155411.800000", "155413.290000", "155414.780000", "155416.270000", "155417.760000", "155419.250000", "155420.740000", "155422.230000", "155423.720000", "155425.210000", "155426.700000", "155428.190000", "155429.680000", "155431.170000", "155432.660000", "155434.150000", "155435.640000", "155437.130000", "155438.620000", "155440.110000", "155441.600000", "155443.090000", "155444.580000", "155446.070000", "155447.560000", "155449.050000", "155450.540000", "155452.030000", "155453.520000", "155455.010000", "155456.500000", "155457.990000", "155459.480000", "155500.970000", "155502.460000", "155503.950000", "155505.440000", "155506.930000", "155508.420000", "155509.910000", "155511.400000", "155512.890000", "155514.380000", "155515.870000", "155517.360000", "155518.850000", "155520.340000", "155521.830000", "155523.320000", "155524.810000", "155526.300000", "155527.790000", "155529.280000", "155530.770000", "155532.260000", "155533.750000", "155535.240000", "155536.730000", "155538.220000", "155539.710000", "155541.200000", "155542.690000", "155544.180000", "155545.670000", "155547.160000", "155548.650000", "155550.140000", "155551.630000", "155553.120000", "155554.610000", "155556.100000", "155557.590000", "155559.080000", "155600.570000", "155602.060000", "155603.550000", "155605.040000", "155606.530000", "155608.020000", "155609.510000", "155611.000000", "155612.490000", "155613.980000", "155615.470000", "155616.960000", "155618.450000", "155619.940000", "155621.430000", "155622.920000", "155624.410000", "155625.900000", "155627.390000", "155628.880000", "155630.370000", "155631.860000", "155633.350000", "155634.840000", "155636.330000", "155637.820000", "155639.310000", "155640.800000", "155642.290000", "155643.780000", "155645.270000", "155646.760000", "155648.250000", "155649.740000", "155651.230000", "155652.720000", "155654.210000", "155655.700000", "155657.190000", "155658.680000", "155700.170000", "155701.660000", "155703.150000", "155704.640000", "155706.130000", "155707.620000", "155709.110000", "155710.600000", "155712.090000", "155713.580000", "155715.070000", "155716.560000", "155718.050000", "155719.540000", "155721.030000", "155722.520000", "155724.010000", "155725.500000", "155726.990000", "155728.480000", "155729.970000", "155731.460000", "155732.950000", "155734.440000", "155735.930000", "155737.420000", "155738.910000", "155740.400000", "155741.890000", "155743.380000", "155744.870000", "155746.360000", "155747.850000", "155749.340000", "155750.830000", "155752.320000", "155753.810000", "155755.300000", "155756.790000", "155758.280000", "155759.770000", "155801.260000", "155802.750000"],
      "ContentTime": ["154907.067000", "154907.071000", "154907.074000", "154907.078000", "154907.081000", "154907.085000", "154907.088000", "154907.092000", "154907.095000", "154907.098000", "154907.102000", "154907.105000", "154907.108000", "154907.112000", "154907.115000", "154907.119000", "154907.122000", "154907.126000", "154907.131000", "154907.135000", "154907.138000", "154907.150000", "154907.154000", "154907.158000", "154907.161000", "154907.164000", "154907.168000", "154907.171000", "154907.175000", "154907.178000", "154907.181000", "154907.185000", "154907.188000", "154907.192000", "154907.195000", "154907.198000", "154927.011000", "154927.015000", "154927.022000", "154927.026000", "154927.029000", "154927.032000", "154927.036000", "154927.039000", "154927.042000", "154927.046000", "154927.049000", "154927.052000", "154927.056000", "154927.063000", "154927.066000", "154927.070000", "154927.073000", "154927.076000", "154927.080000", "154927.083000", "154927.087000", "154947.011000", "154947.015000", "154947.018000", "154947.022000", "154947.025000", "154947.029000", "154947.032000", "154947.035000", "154947.039000", "154947.042000", "154947.046000", "154947.049000", "154947.052000", "154947.056000", "154947.059000", "154947.063000", "154947.066000", "154947.069000", "154947.073000", "154947.076000", "155007.011000", "155007.015000", "155007.018000", "155007.022000", "155007.025000", "155007.028000", "155007.032000", "155007.035000", "155007.038000", "155007.042000", "155007.045000", "155007.049000", "155007.052000", "155007.055000", "155007.059000", "155007.062000", "155007.066000", "155007.069000", "155007.072000", "155007.076000", "155047.011000", "155047.015000", "155047.018000", "155047.022000", "155047.025000", "155047.029000", "155047.032000", "155047.036000", "155047.039000", "155047.043000", "155047.046000", "155047.049000", "155047.053000", "155047.056000", "155047.059000", "155047.063000", "155047.066000", "155047.070000", "155047.073000", "155047.076000", "155047.079000", "155047.083000", "155047.086000", "155047.090000", "155047.093000", "155047.096000", "155047.100000", "155047.103000", "155047.107000", "155047.110000", "155127.011000", "155127.015000", "155127.018000", "155127.022000", "155127.025000", "155127.029000", "155127.032000", "155127.036000", "155127.039000", "155127.042000", "155127.046000", "155127.049000", "155127.052000", "155127.069000", "155127.073000", "155127.076000", "155127.079000", "155127.083000", "155127.086000", "155127.089000", "155127.093000", "155127.096000", "155127.100000", "155127.103000", "155127.106000", "155127.110000", "155127.113000", "155207.011000", "155207.015000", "155207.018000", "155207.022000", "155207.025000", "155207.029000", "155207.032000", "155207.035000", "155207.039000", "155207.042000", "155207.045000", "155207.049000", "155207.052000", "155207.056000", "155207.059000", "155207.062000", "155207.066000", "155207.069000", "155207.073000", "155207.077000", "155207.081000", "155207.085000", "155207.089000", "155207.094000", "155207.097000", "155207.101000", "155247.012000", "155247.016000", "155247.019000", "155247.023000", "155247.026000", "155247.030000", "155247.033000", "155247.036000", "155247.040000", "155247.043000", "155247.047000", "155247.050000", "155247.053000", "155247.057000", "155247.060000", "155247.064000", "155247.067000", "155247.070000", "155247.074000", "155247.077000", "155247.080000", "155247.084000", "155247.087000", "155247.090000", "155247.094000", "155247.097000", "155247.100000", "155327.011000", "155327.015000", "155327.019000", "155327.022000", "155327.026000", "155327.029000", "155327.033000", "155327.036000", "155327.040000", "155327.043000", "155327.046000", "155327.050000", "155327.053000", "155327.057000", "155327.060000", "155327.063000", "155327.067000", "155327.070000", "155327.074000", "155327.077000", "155327.080000", "155327.084000", "155327.087000", "155327.091000", "155327.094000", "155327.098000", "155327.101000", "155407.011000", "155407.015000", "155407.018000", "155407.022000", "155407.025000", "155407.029000", "155407.051000", "155407.054000", "155407.057000", "155407.061000", "155407.064000", "155407.068000", "155407.071000", "155407.074000", "155407.078000", "155407.081000", "155407.084000", "155407.088000", "155407.091000", "155407.095000", "155407.098000", "155407.101000", "155407.105000", "155407.108000", "155407.112000", "155407.115000", "155407.118000", "155447.011000", "155447.015000", "155447.018000", "155447.022000", "155447.025000", "155447.029000", "155447.032000", "155447.035000", "155447.039000", "155447.042000", "155447.046000", "155447.049000", "155447.052000", "155447.056000", "155447.059000", "155447.063000", "155447.066000", "155447.069000", "155447.073000", "155447.076000", "155447.080000", "155447.083000", "155447.086000", "155447.090000", "155447.093000", "155447.096000", "155447.100000", "155527.011000", "155527.015000", "155527.018000", "155527.022000", "155527.025000", "155527.029000", "155527.032000", "155527.036000", "155527.039000", "155527.043000", "155527.046000", "155527.049000", "155527.053000", "155527.056000", "155527.060000", "155527.063000", "155527.066000", "155527.070000", "155527.073000", "155527.077000", "155527.080000", "155527.084000", "155527.087000", "155527.091000", "155527.094000", "155527.097000", "155527.101000", "155607.011000", "155607.015000", "155607.018000", "155607.022000", "155607.025000", "155607.029000", "155607.032000", "155607.036000", "155607.039000", "155607.043000", "155607.046000", "155607.049000", "155607.066000", "155607.079000", "155607.093000", "155607.096000", "155607.100000", "155607.103000", "155607.107000", "155607.110000", "155607.113000", "155607.117000", "155607.120000", "155607.124000", "155607.127000", "155607.131000", "155607.134000", "155647.011000", "155647.015000", "155647.018000", "155647.022000", "155647.025000", "155647.029000", "155647.032000", "155647.036000", "155647.039000", "155647.043000", "155647.046000", "155647.050000", "155647.053000", "155647.056000", "155647.060000", "155647.064000", "155647.068000", "155647.072000", "155647.075000", "155647.078000", "155647.082000", "155647.085000", "155647.089000", "155647.092000", "155647.096000", "155647.099000", "155727.013000", "155727.016000", "155727.020000", "155727.023000", "155727.027000", "155727.030000", "155727.033000", "155727.037000", "155727.040000", "155727.044000", "155727.047000", "155727.050000", "155727.053000", "155727.057000", "155727.060000", "155727.064000", "155727.067000", "155727.071000", "155727.075000", "155727.079000", "155727.082000", "155727.086000", "155727.089000", "155727.093000", "155727.096000", "155727.099000", "155727.103000", "155804.819000", "155804.823000", "155804.826000", "155804.829000", "155804.833000", "155804.836000", "155804.840000", "155804.843000", "155804.847000", "155804.850000", "155804.854000", "155804.857000", "155804.860000", "155804.864000", "155804.867000", "155804.871000", "155804.874000", "155804.878000", "155804.881000", "155804.884000", "155804.888000", "155804.891000", "155804.895000", "155804.898000", "155804.901000", "155804.905000"],
      "InstanceCreationTime": ["154907.067000", "154907.071000", "154907.074000", "154907.078000", "154907.081000", "154907.085000", "154907.088000", "154907.092000", "154907.095000", "154907.098000", "154907.102000", "154907.105000", "154907.108000", "154907.112000", "154907.115000", "154907.119000", "154907.122000", "154907.126000", "154907.131000", "154907.135000", "154907.138000", "154907.150000", "154907.154000", "154907.158000", "154907.161000", "154907.164000", "154907.168000", "154907.171000", "154907.175000", "154907.178000", "154907.181000", "154907.185000", "154907.188000", "154907.192000", "154907.195000", "154907.198000", "154927.011000", "154927.015000", "154927.022000", "154927.026000", "154927.029000", "154927.032000", "154927.036000", "154927.039000", "154927.042000", "154927.046000", "154927.049000", "154927.052000", "154927.056000", "154927.063000", "154927.066000", "154927.070000", "154927.073000", "154927.076000", "154927.080000", "154927.083000", "154927.087000", "154947.011000", "154947.015000", "154947.018000", "154947.022000", "154947.025000", "154947.029000", "154947.032000", "154947.035000", "154947.039000", "154947.042000", "154947.046000", "154947.049000", "154947.052000", "154947.056000", "154947.059000", "154947.063000", "154947.066000", "154947.069000", "154947.073000", "154947.076000", "155007.011000", "155007.015000", "155007.018000", "155007.022000", "155007.025000", "155007.028000", "155007.032000", "155007.035000", "155007.038000", "155007.042000", "155007.045000", "155007.049000", "155007.052000", "155007.055000", "155007.059000", "155007.062000", "155007.066000", "155007.069000", "155007.072000", "155007.076000", "155047.011000", "155047.015000", "155047.018000", "155047.022000", "155047.025000", "155047.029000", "155047.032000", "155047.036000", "155047.039000", "155047.043000", "155047.046000", "155047.049000", "155047.053000", "155047.056000", "155047.059000", "155047.063000", "155047.066000", "155047.070000", "155047.073000", "155047.076000", "155047.079000", "155047.083000", "155047.086000", "155047.090000", "155047.093000", "155047.096000", "155047.100000", "155047.103000", "155047.107000", "155047.110000", "155127.011000", "155127.015000", "155127.018000", "155127.022000", "155127.025000", "155127.029000", "155127.032000", "155127.036000", "155127.039000", "155127.042000", "155127.046000", "155127.049000", "155127.052000", "155127.069000", "155127.073000", "155127.076000", "155127.079000", "155127.083000", "155127.086000", "155127.089000", "155127.093000", "155127.096000", "155127.100000", "155127.103000", "155127.106000", "155127.110000", "155127.113000", "155207.011000", "155207.015000", "155207.018000", "155207.022000", "155207.025000", "155207.029000", "155207.032000", "155207.035000", "155207.039000", "155207.042000", "155207.045000", "155207.049000", "155207.052000", "155207.056000", "155207.059000", "155207.062000", "155207.066000", "155207.069000", "155207.073000", "155207.077000", "155207.081000", "155207.085000", "155207.089000", "155207.094000", "155207.097000", "155207.101000", "155247.012000", "155247.016000", "155247.019000", "155247.023000", "155247.026000", "155247.030000", "155247.033000", "155247.036000", "155247.040000", "155247.043000", "155247.047000", "155247.050000", "155247.053000", "155247.057000", "155247.060000", "155247.064000", "155247.067000", "155247.070000", "155247.074000", "155247.077000", "155247.080000", "155247.084000", "155247.087000", "155247.090000", "155247.094000", "155247.097000", "155247.100000", "155327.011000", "155327.015000", "155327.019000", "155327.022000", "155327.026000", "155327.029000", "155327.033000", "155327.036000", "155327.040000", "155327.043000", "155327.046000", "155327.050000", "155327.053000", "155327.057000", "155327.060000", "155327.063000", "155327.067000", "155327.070000", "155327.074000", "155327.077000", "155327.080000", "155327.084000", "155327.087000", "155327.091000", "155327.094000", "155327.098000", "155327.101000", "155407.011000", "155407.015000", "155407.018000", "155407.022000", "155407.025000", "155407.029000", "155407.051000", "155407.054000", "155407.057000", "155407.061000", "155407.064000", "155407.068000", "155407.071000", "155407.074000", "155407.078000", "155407.081000", "155407.084000", "155407.088000", "155407.091000", "155407.095000", "155407.098000", "155407.101000", "155407.105000", "155407.108000", "155407.112000", "155407.115000", "155407.118000", "155447.011000", "155447.015000", "155447.018000", "155447.022000", "155447.025000", "155447.029000", "155447.032000", "155447.035000", "155447.039000", "155447.042000", "155447.046000", "155447.049000", "155447.052000", "155447.056000", "155447.059000", "155447.063000", "155447.066000", "155447.069000", "155447.073000", "155447.076000", "155447.080000", "155447.083000", "155447.086000", "155447.090000", "155447.093000", "155447.096000", "155447.100000", "155527.011000", "155527.015000", "155527.018000", "155527.022000", "155527.025000", "155527.029000", "155527.032000", "155527.036000", "155527.039000", "155527.043000", "155527.046000", "155527.049000", "155527.053000", "155527.056000", "155527.060000", "155527.063000", "155527.066000", "155527.070000", "155527.073000", "155527.077000", "155527.080000", "155527.084000", "155527.087000", "155527.091000", "155527.094000", "155527.097000", "155527.101000", "155607.011000", "155607.015000", "155607.018000", "155607.022000", "155607.025000", "155607.029000", "155607.032000", "155607.036000", "155607.039000", "155607.043000", "155607.046000", "155607.049000", "155607.066000", "155607.079000", "155607.093000", "155607.096000", "155607.100000", "155607.103000", "155607.107000", "155607.110000", "155607.113000", "155607.117000", "155607.120000", "155607.124000", "155607.127000", "155607.131000", "155607.134000", "155647.011000", "155647.015000", "155647.018000", "155647.022000", "155647.025000", "155647.029000", "155647.032000", "155647.036000", "155647.039000", "155647.043000", "155647.046000", "155647.050000", "155647.053000", "155647.056000", "155647.060000", "155647.064000", "155647.068000", "155647.072000", "155647.075000", "155647.078000", "155647.082000", "155647.085000", "155647.089000", "155647.092000", "155647.096000", "155647.099000", "155727.013000", "155727.016000", "155727.020000", "155727.023000", "155727.027000", "155727.030000", "155727.033000", "155727.037000", "155727.040000", "155727.044000", "155727.047000", "155727.050000", "155727.053000", "155727.057000", "155727.060000", "155727.064000", "155727.067000", "155727.071000", "155727.075000", "155727.079000", "155727.082000", "155727.086000", "155727.089000", "155727.093000", "155727.096000", "155727.099000", "155727.103000", "155804.819000", "155804.823000", "155804.826000", "155804.829000", "155804.833000", "155804.836000", "155804.840000", "155804.843000", "155804.847000", "155804.850000", "155804.854000", "155804.857000", "155804.860000", "155804.864000", "155804.867000", "155804.871000", "155804.874000", "155804.878000", "155804.881000", "155804.884000", "155804.888000", "155804.891000", "155804.895000", "155804.898000", "155804.901000", "155804.905000"],
