{
  "AcquisitionMatrixPE": 104,
  "AcquisitionNumber": 1,
  "AcquisitionTime": "18:36:40.107500",
  "BandwidthPerPixelPhaseEncode": 17.17,
  "BaseResolution": 104,
  "BodyPartExamined": "BRAIN",
  "CoilCombinationMethod": "Sum of Squares",
  "ConsistencyInfo": "N4_VE11C_LATEST_20160120",
  "ConversionSoftware": "dcm2niix",
  "ConversionSoftwareVersion": "v1.0.20211006",
  "DerivedVendorReportedEchoSpacing": 0.000560011,
  "DeviceSerialNumber": "167006",
  "DwellTime": 2.1e-06,
  "EchoTime": 0.037,
  "EchoTime1": 0.037,
  "EchoTime2": 0.001,
  "EchoTrainLength": 104,
  "EffectiveEchoSpacing": 0.000560011,
  "FlipAngle": 52,
  "HeudiconvVersion": "0.10.0",
  "ImageComments": "Unaliased MB4/PE3/LB",
  "ImageOrientationPatientDICOM": [0.999176, 0.0102782, 0.0392587, -0.00122068, 0.97457, -0.224081],
  "ImageOrientationText": "Tra>Cor(-12.9)>Sag(2.3)",
  "ImageType": [
    "ORIGINAL",
    "PRIMARY",
    "P",
    "MB",
    "ND",
    "MOSAIC",
    "PHASE"
],
  "ImagingFrequency": 123.259,
  "InPlanePhaseEncodingDirectionDICOM": "COL",
  "InstitutionAddress": "Chemin Queen-Mary 4565,Montreal,District,CA,H3W 1W5",
  "InstitutionName": "IUGM",
  "InstitutionalDepartmentName": "Department",
  "MRAcquisitionType": "2D",
  "MagneticFieldStrength": 3,
  "Manufacturer": "Siemens",
  "ManufacturersModelName": "Prisma_fit",
  "MatrixCoilMode": "SENSE",
  "Modality": "MR",
  "MultibandAccelerationFactor": 4,
  "PartialFourier": 1,
  "PatientPosition": "HFS",
  "PercentPhaseFOV": 100,
  "PercentSampling": 100,
  "PhaseEncodingDirection": "j",
  "PhaseEncodingSteps": 104,
  "PhaseResolution": 1,
  "PixelBandwidth": 2290,
  "ProcedureStepDescription": "games^mario",
  "ProtocolName": "func_task-mario_run-03",
  "PulseSequenceDetails": "%CustomerSeq%\\cmrr_mbep2d_bold",
  "ReceiveCoilActiveElements": "HC1-7;NC1,2",
  "ReceiveCoilName": "HeadNeck_64",
  "ReconMatrixPE": 104,
  "RepetitionTime": 1.49,
  "SAR": 0.0403381,
  "ScanOptions": "FS",
  "ScanningSequence": "EP",
  "SequenceName": "epfid2d1_104",
  "SequenceVariant": "SK\\SS",
  "SeriesDescription": "func_task-mario_run-03",
  "SeriesNumber": 17,
  "ShimSetting": [646, -7222, -8780, 703, 55, -57, 121, -28],
  "SliceThickness": 2,
  "SliceTiming": [0, 0.7825, 0.0975, 0.8825, 0.195, 0.98, 0.2925, 1.0775, 0.3925, 1.175, 0.49, 1.2725, 0.5875, 1.3725, 0.685, 0, 0.7825, 0.0975, 0.8825, 0.195, 0.98, 0.2925, 1.0775, 0.3925, 1.175, 0.49, 1.2725, 0.5875, 1.3725, 0.685, 0, 0.7825, 0.0975, 0.8825, 0.195, 0.98, 0.2925, 1.0775, 0.3925, 1.175, 0.49, 1.2725, 0.5875, 1.3725, 0.685, 0, 0.7825, 0.0975, 0.8825, 0.195, 0.98, 0.2925, 1.0775, 0.3925, 1.175, 0.49, 1.2725, 0.5875, 1.3725, 0.685],
  "SoftwareVersions": "syngo MR E11",
  "SpacingBetweenSlices": 2,
  "StationName": "MRC35049",
  "TaskName": "mario",
  "TotalReadoutTime": 0.0576811,
  "TxRefAmp": 222.275,
  "WipMemBlock": "11277d13-7911-4016-885f-f848a2cf5b8e||Sequence: R016 ve11c/master r/e634e98; Dec 19 2017 11:00:25 by eja",
  "dcmmeta_affine": [
    [-1.9983524084091187, -0.0024413694627583027, 0.08112700283527374, 106.68401336669922],
    [-0.020556364208459854, 1.9491395950317383, -0.4476966857910156, -74.35905456542969],
    [0.07851742953062057, 0.4481617212295532, 1.9475589990615845, -60.56844711303711],
    [0.0, 0.0, 0.0, 1.0]
],
  "dcmmeta_reorient_transform": [
    [0.0, -1.0, 0.0, 103.0],
    [1.0, 0.0, 0.0, 0.0],
    [0.0, 0.0, 1.0, 0.0],
    [0.0, 0.0, 0.0, 1.0]
],
  "dcmmeta_shape": [104, 104, 60, 443],
  "dcmmeta_slice_dim": 2,
  "dcmmeta_version": 0.6,
  "global": {
    "const": {
      "AcquisitionMatrix": [104, 0, 0, 104],
      "AngioFlag": "N",
      "BitsAllocated": 16,
      "BitsStored": 16,
      "BodyPartExamined": "BRAIN",
      "Columns": 832,
      "EchoNumbers": 1,
      "EchoTime": 37.0,
      "EchoTrainLength": 104,
      "FlipAngle": 52.0,
      "HighBit": 15,
      "ImageOrientationPatient": [0.99917621678398, 0.01027818206717, 0.03925871605955, -0.001220684724, 0.97456979267544, -0.2240808540089],
      "ImagePositionPatient": [-832.94417670043, -843.37165104847, 120.14272342474],
      "ImageType": [
        "ORIGINAL",
        "PRIMARY",
        "P",
        "MB",
        "ND",
        "MOSAIC"
],
      "ImagedNucleus": "1H",
      "ImagingFrequency": 123.25889,
      "InPlanePhaseEncodingDirection": "COL",
      "LargestImagePixelValue": 4095,
      "MRAcquisitionType": "2D",
      "MagneticFieldStrength": 3.0,
      "Manufacturer": "SIEMENS",
      "ManufacturerModelName": "Prisma_fit",
      "Modality": "MR",
      "NumberOfAverages": 1.0,
      "NumberOfPhaseEncodingSteps": 104,
      "PercentPhaseFieldOfView": 100.0,
      "PercentSampling": 100.0,
      "PerformedProcedureStepStartTime": "174039.625000",
      "PhotometricInterpretation": "MONOCHROME2",
      "PixelBandwidth": 2290.0,
      "PixelRepresentation": 0,
      "PixelSpacing": [2.0, 2.0],
      "ProtocolName": "func_task-mario_run-03",
      "RepetitionTime": 1490.0,
      "RescaleIntercept": -4096.0,
      "RescaleSlope": 2.0,
      "RescaleType": "US",
      "Rows": 832,
      "SAR": 0.04033804926293,
      "SamplesPerPixel": 1,
      "ScanOptions": "FS",
      "ScanningSequence": "EP",
      "SequenceName": "epfid2d1_104",
      "SequenceVariant": [
        "SK",
        "SS"
],
      "SeriesDescription": "func_task-mario_run-03",
      "SeriesNumber": 17,
      "SeriesTime": "183751.554000",
      "SliceLocation": -38.007686943005,
      "SliceThickness": 2.0,
      "SmallestImagePixelValue": 0,
      "SoftwareVersions": "syngo MR E11",
      "SpacingBetweenSlices": 2.0000000215647,
      "SpecificCharacterSet": "ISO_IR 100",
      "StudyID": "1",
      "StudyTime": "174039.514000",
      "TransmitCoilName": "Body",
      "VariableFlipAngleFlag": "N",
      "WindowCenterWidthExplanation": "Algo1",
      "dBdt": 0.0},
    "slices": {}
  },
  "time": {
    "samples": {
      "AcquisitionNumber": [1, 2, 3, 4, 5, 6, 7, 8, 9, 10, 11, 12, 13, 14, 15, 16, 17, 18, 19, 20, 21, 22, 23, 24, 25, 26, 27, 28, 29, 30, 31, 32, 33, 34, 35, 36, 37, 38, 39, 40, 41, 42, 43, 44, 45, 46, 47, 48, 49, 50, 51, 52, 53, 54, 55, 56, 57, 58, 59, 60, 61, 62, 63, 64, 65, 66, 67, 68, 69, 70, 71, 72, 73, 74, 75, 76, 77, 78, 79, 80, 81, 82, 83, 84, 85, 86, 87, 88, 89, 90, 91, 92, 93, 94, 95, 96, 97, 98, 99, 100, 101, 102, 103, 104, 105, 106, 107, 108, 109, 110, 111, 112, 113, 114, 115, 116, 117, 118, 119, 120, 121, 122, 123, 124, 125, 126, 127, 128, 129, 130, 131, 132, 133, 134, 135, 136, 137, 138, 139, 140, 141, 142, 143, 144, 145, 146, 147, 148, 149, 150, 151, 152, 153, 154, 155, 156, 157, 158, 159, 160, 161, 162, 163, 164, 165, 166, 167, 168, 169, 170, 171, 172, 173, 174, 175, 176, 177, 178, 179, 180, 181, 182, 183, 184, 185, 186, 187, 188, 189, 190, 191, 192, 193, 194, 195, 196, 197, 198, 199, 200, 201, 202, 203, 204, 205, 206, 207, 208, 209, 210, 211, 212, 213, 214, 215, 216, 217, 218, 219, 220, 221, 222, 223, 224, 225, 226, 227, 228, 229, 230, 231, 232, 233, 234, 235, 236, 237, 238, 239, 240, 241, 242, 243, 244, 245, 246, 247, 248, 249, 250, 251, 252, 253, 254, 255, 256, 257, 258, 259, 260, 261, 262, 263, 264, 265, 266, 267, 268, 269, 270, 271, 272, 273, 274, 275, 276, 277, 278, 279, 280, 281, 282, 283, 284, 285, 286, 287, 288, 289, 290, 291, 292, 293, 294, 295, 296, 297, 298, 299, 300, 301, 302, 303, 304, 305, 306, 307, 308, 309, 310, 311, 312, 313, 314, 315, 316, 317, 318, 319, 320, 321, 322, 323, 324, 325, 326, 327, 328, 329, 330, 331, 332, 333, 334, 335, 336, 337, 338, 339, 340, 341, 342, 343, 344, 345, 346, 347, 348, 349, 350, 351, 352, 353, 354, 355, 356, 357, 358, 359, 360, 361, 362, 363, 364, 365, 366, 367, 368, 369, 370, 371, 372, 373, 374, 375, 376, 377, 378, 379, 380, 381, 382, 383, 384, 385, 386, 387, 388, 389, 390, 391, 392, 393, 394, 395, 396, 397, 398, 399, 400, 401, 402, 403, 404, 405, 406, 407, 408, 409, 410, 411, 412, 413, 414, 415, 416, 417, 418, 419, 420, 421, 422, 423, 424, 425, 426, 427, 428, 429, 430, 431, 432, 433, 434, 435, 436, 437, 438, 439, 440, 441, 442, 443],
      "AcquisitionTime": ["183640.107500", "183641.597500", "183643.087500", "183644.577500", "183646.067500", "183647.557500", "183649.047500", "183650.537500", "183652.027500", "183653.517500", "183655.007500", "183656.497500", "183657.987500", "183659.477500", "183700.967500", "183702.457500", "183703.947500", "183705.437500", "183706.927500", "183708.417500", "183709.907500", "183711.397500", "183712.887500", "183714.377500", "183715.867500", "183717.357500", "183718.847500", "183720.337500", "183721.827500", "183723.317500", "183724.807500", "183726.297500", "183727.787500", "183729.277500", "183730.767500", "183732.257500", "183733.747500", "183735.237500", "183736.727500", "183738.217500", "183739.707500", "183741.197500", "183742.687500", "183744.177500", "183745.667500", "183747.157500", "183748.647500", "183750.137500", "183751.627500", "183753.117500", "183754.607500", "183756.097500", "183757.587500", "183759.077500", "183800.567500", "183802.057500", "183803.547500", "183805.037500", "183806.527500", "183808.017500", "183809.507500", "183810.997500", "183812.487500", "183813.977500", "183815.467500", "183816.957500", "183818.447500", "183819.937500", "183821.427500", "183822.917500", "183824.407500", "183825.897500", "183827.387500", "183828.877500", "183830.367500", "183831.857500", "183833.347500", "183834.837500", "183836.327500", "183837.817500", "183839.307500", "183840.797500", "183842.287500", "183843.777500", "183845.267500", "183846.757500", "183848.247500", "183849.737500", "183851.227500", "183852.717500", "183854.207500", "183855.697500", "183857.187500", "183858.677500", "183900.167500", "183901.657500", "183903.147500", "183904.637500", "183906.127500", "183907.617500", "183909.107500", "183910.597500", "183912.087500", "183913.577500", "183915.067500", "183916.557500", "183918.047500", "183919.537500", "183921.027500", "183922.517500", "183924.007500", "183925.497500", "183926.987500", "183928.477500", "183929.967500", "183931.457500", "183932.947500", "183934.437500", "183935.927500", "183937.417500", "183938.907500", "183940.397500", "183941.887500", "183943.377500", "183944.867500", "183946.357500", "183947.847500", "183949.337500", "183950.827500", "183952.317500", "183953.807500", "183955.297500", "183956.787500", "183958.277500", "183959.767500", "184001.257500", "184002.747500", "184004.237500", "184005.727500", "184007.217500", "184008.707500", "184010.197500", "184011.687500", "184013.177500", "184014.667500", "184016.157500", "184017.647500", "184019.137500", "184020.627500", "184022.117500", "184023.607500", "184025.097500", "184026.587500", "184028.077500", "184029.567500", "184031.057500", "184032.547500", "184034.037500", "184035.527500", "184037.017500", "184038.507500", "184039.997500", "184041.487500", "184042.977500", "184044.467500", "184045.957500", "184047.447500", "184048.937500", "184050.427500", "184051.917500", "184053.407500", "184054.897500", "184056.387500", "184057.877500", "184059.367500", "184100.857500", "184102.347500", "184103.837500", "184105.327500", "184106.817500", "184108.307500", "184109.797500", "184111.287500", "184112.777500", "184114.267500", "184115.757500", "184117.247500", "184118.737500", "184120.227500", "184121.717500", "184123.207500", "184124.697500", "184126.187500", "184127.677500", "184129.167500", "184130.657500", "184132.147500", "184133.637500", "184135.127500", "184136.617500", "184138.107500", "184139.597500", "184141.087500", "184142.577500", "184144.067500", "184145.557500", "184147.047500", "184148.537500", "184150.027500", "184151.517500", "184153.007500", "184154.497500", "184155.987500", "184157.477500", "184158.967500", "184200.457500", "184201.947500", "184203.437500", "184204.927500", "184206.417500", "184207.907500", "184209.397500", "184210.887500", "184212.377500", "184213.867500", "184215.357500", "184216.847500", "184218.337500", "184219.827500", "184221.317500", "184222.807500", "184224.297500", "184225.787500", "184227.277500", "184228.767500", "184230.257500", "184231.747500", "184233.237500", "184234.727500", "184236.217500", "184237.707500", "184239.197500", "184240.687500", "184242.177500", "184243.667500", "184245.157500", "184246.647500", "184248.137500", "184249.627500", "184251.117500", "184252.607500", "184254.097500", "184255.587500", "184257.077500", "184258.567500", "184300.057500", "184301.547500", "184303.037500", "184304.527500", "184306.017500", "184307.507500", "184308.997500", "184310.487500", "184311.977500", "184313.467500", "184314.957500", "184316.447500", "184317.937500", "184319.427500", "184320.917500", "184322.407500", "184323.897500", "184325.387500", "184326.877500", "184328.367500", "184329.857500", "184331.347500", "184332.837500", "184334.327500", "184335.817500", "184337.307500", "184338.797500", "184340.287500", "184341.777500", "184343.267500", "184344.757500", "184346.247500", "184347.737500", "184349.227500", "184350.717500", "184352.207500", "184353.697500", "184355.187500", "184356.677500", "184358.167500", "184359.657500", "184401.147500", "184402.637500", "184404.127500", "184405.617500", "184407.107500", "184408.597500", "184410.087500", "184411.577500", "184413.067500", "184414.557500", "184416.047500", "184417.537500", "184419.027500", "184420.517500", "184422.007500", "184423.497500", "184424.987500", "184426.477500", "184427.967500", "184429.457500", "184430.947500", "184432.437500", "184433.927500", "184435.417500", "184436.907500", "184438.397500", "184439.887500", "184441.377500", "184442.867500", "184444.357500", "184445.847500", "184447.337500", "184448.827500", "184450.317500", "184451.807500", "184453.297500", "184454.787500", "184456.277500", "184457.767500", "184459.257500", "184500.747500", "184502.237500", "184503.727500", "184505.217500", "184506.707500", "184508.197500", "184509.687500", "184511.177500", "184512.667500", "184514.157500", "184515.647500", "184517.137500", "184518.627500", "184520.117500", "184521.607500", "184523.097500", "184524.587500", "184526.077500", "184527.567500", "184529.057500", "184530.547500", "184532.037500", "184533.527500", "184535.017500", "184536.507500", "184537.997500", "184539.487500", "184540.977500", "184542.467500", "184543.957500", "184545.447500", "184546.937500", "184548.427500", "184549.917500", "184551.407500", "184552.897500", "184554.387500", "184555.877500", "184557.367500", "184558.857500", "184600.347500", "184601.837500", "184603.327500", "184604.817500", "184606.307500", "184607.797500", "184609.287500", "184610.777500", "184612.267500", "184613.757500", "184615.247500", "184616.737500", "184618.227500", "184619.717500", "184621.207500", "184622.697500", "184624.187500", "184625.677500", "184627.167500", "184628.657500", "184630.147500", "184631.637500", "184633.127500", "184634.617500", "184636.107500", "184637.597500", "184639.087500", "184640.577500", "184642.067500", "184643.557500", "184645.047500", "184646.537500", "184648.027500", "184649.517500", "184651.007500", "184652.497500", "184653.987500", "184655.477500", "184656.967500", "184658.457500", "184659.947500", "184701.437500", "184702.927500", "184704.417500", "184705.907500", "184707.397500", "184708.887500", "184710.377500", "184711.867500", "184713.357500", "184714.847500", "184716.337500", "184717.827500", "184719.317500", "184720.807500", "184722.297500", "184723.787500", "184725.277500", "184726.767500", "184728.257500", "184729.747500", "184731.237500", "184732.727500", "184734.217500", "184735.707500", "184737.197500", "184738.687500"],
      "ContentTime": ["183751.556000", "183751.559000", "183751.562000", "183751.564000", "183751.567000", "183751.569000", "183751.572000", "183751.574000", "183751.576000", "183751.579000", "183751.581000", "183751.584000", "183751.586000", "183751.591000", "183751.593000", "183751.596000", "183751.598000", "183811.526000", "183811.528000", "183811.531000", "183811.533000", "183811.536000", "183811.538000", "183811.541000", "183811.543000", "183811.546000", "183811.548000", "183811.551000", "183811.553000", "183811.556000", "183811.558000", "183811.561000", "183811.563000", "183811.566000", "183811.568000", "183811.570000", "183811.573000", "183811.575000", "183831.520000", "183831.522000", "183831.525000", "183831.527000", "183831.530000", "183831.532000", "183831.535000", "183831.537000", "183831.539000", "183831.542000", "183831.544000", "183831.547000", "183831.549000", "183831.552000", "183831.554000", "183831.557000", "183831.559000", "183831.562000", "183831.569000", "183831.572000", "183851.530000", "183851.533000", "183851.535000", "183851.538000", "183851.540000", "183851.543000", "183851.545000", "183851.548000", "183851.550000", "183851.553000", "183851.555000", "183851.558000", "183851.560000", "183851.563000", "183851.565000", "183851.567000", "183851.570000", "183851.572000", "183851.575000", "183851.577000", "183911.529000", "183911.532000", "183911.534000", "183911.537000", "183911.539000", "183911.542000", "183911.544000", "183911.546000", "183911.549000", "183911.551000", "183911.554000", "183911.556000", "183911.559000", "183911.561000", "183911.564000", "183911.566000", "183911.569000", "183911.571000", "183911.573000", "183911.576000", "183951.560000", "183951.563000", "183951.565000", "183951.568000", "183951.570000", "183951.573000", "183951.575000", "183951.578000", "183951.580000", "183951.583000", "183951.585000", "183951.588000", "183951.590000", "183951.593000", "183951.595000", "183951.597000", "183951.600000", "183951.602000", "183951.605000", "183951.607000", "183951.610000", "183951.612000", "183951.615000", "183951.617000", "183951.620000", "183951.622000", "183951.625000", "183951.632000", "183951.635000", "183951.637000", "184031.556000", "184031.558000", "184031.561000", "184031.564000", "184031.566000", "184031.569000", "184031.571000", "184031.573000", "184031.576000", "184031.578000", "184031.581000", "184031.583000", "184031.586000", "184031.588000", "184031.591000", "184031.593000", "184031.596000", "184031.598000", "184031.600000", "184031.603000", "184031.605000", "184031.608000", "184031.610000", "184031.613000", "184031.615000", "184031.618000", "184111.559000", "184111.561000", "184111.564000", "184111.566000", "184111.569000", "184111.571000", "184111.574000", "184111.576000", "184111.579000", "184111.581000", "184111.584000", "184111.586000", "184111.589000", "184111.591000", "184111.593000", "184111.596000", "184111.598000", "184111.601000", "184111.603000", "184111.606000", "184111.608000", "184111.611000", "184111.613000", "184111.616000", "184111.618000", "184111.621000", "184111.623000", "184151.555000", "184151.557000", "184151.560000", "184151.562000", "184151.565000", "184151.567000", "184151.570000", "184151.582000", "184151.584000", "184151.587000", "184151.589000", "184151.591000", "184151.594000", "184151.596000", "184151.599000", "184151.601000", "184151.604000", "184151.606000", "184151.609000", "184151.611000", "184151.614000", "184151.616000", "184151.618000", "184151.621000", "184151.623000", "184151.626000", "184151.628000", "184231.562000", "184231.565000", "184231.568000", "184231.571000", "184231.573000", "184231.576000", "184231.578000", "184231.581000", "184231.583000", "184231.586000", "184231.588000", "184231.591000", "184231.593000", "184231.595000", "184231.598000", "184231.600000", "184231.603000", "184231.605000", "184231.608000", "184231.610000", "184231.613000", "184231.615000", "184231.618000", "184231.620000", "184231.622000", "184231.625000", "184231.627000", "184311.554000", "184311.556000", "184311.559000", "184311.562000", "184311.564000", "184311.566000", "184311.569000", "184311.571000", "184311.574000", "184311.576000", "184311.579000", "184311.581000", "184311.584000", "184311.586000", "184311.589000", "184311.591000", "184311.594000", "184311.596000", "184311.599000", "184311.601000", "184311.604000", "184311.606000", "184311.609000", "184311.611000", "184311.613000", "184311.616000", "184311.618000", "184351.584000", "184351.587000", "184351.590000", "184351.592000", "184351.594000", "184351.597000", "184351.599000", "184351.602000", "184351.604000", "184351.607000", "184351.609000", "184351.612000", "184351.614000", "184351.616000", "184351.619000", "184351.621000", "184351.624000", "184351.626000", "184351.629000", "184351.631000", "184351.633000", "184351.636000", "184351.638000", "184351.641000", "184351.643000", "184351.646000", "184351.648000", "184431.552000", "184431.555000", "184431.557000", "184431.560000", "184431.562000", "184431.565000", "184431.567000", "184431.569000", "184431.572000", "184431.574000", "184431.577000", "184431.579000", "184431.582000", "184431.584000", "184431.587000", "184431.589000", "184431.592000", "184431.594000", "184431.597000", "184431.599000", "184431.601000", "184431.604000", "184431.606000", "184431.609000", "184431.611000", "184431.614000", "184431.616000", "184511.566000", "184511.569000", "184511.574000", "184511.578000", "184511.580000", "184511.583000", "184511.586000", "184511.589000", "184511.592000", "184511.594000", "184511.597000", "184511.599000", "184511.602000", "184511.604000", "184511.606000", "184511.609000", "184511.611000", "184511.614000", "184511.616000", "184511.619000", "184511.621000", "184511.624000", "184511.626000", "184511.629000", "184511.631000", "184511.634000", "184551.558000", "184551.560000", "184551.563000", "184551.565000", "184551.568000", "184551.570000", "184551.573000", "184551.575000", "184551.578000", "184551.580000", "184551.583000", "184551.585000", "184551.588000", "184551.590000", "184551.593000", "184551.595000", "184551.598000", "184551.600000", "184551.603000", "184551.605000", "184551.608000", "184551.610000", "184551.613000", "184551.615000", "184551.618000", "184551.620000", "184551.623000", "184631.566000", "184631.568000", "184631.571000", "184631.573000", "184631.576000", "184631.578000", "184631.581000", "184631.583000", "184631.586000", "184631.588000", "184631.591000", "184631.593000", "184631.596000", "184631.598000", "184631.600000", "184631.603000", "184631.605000", "184631.608000", "184631.610000", "184631.613000", "184631.615000", "184631.618000", "184631.620000", "184631.622000", "184631.625000", "184631.627000", "184631.630000", "184711.556000", "184711.559000", "184711.562000", "184711.564000", "184711.567000", "184711.569000", "184711.572000", "184711.574000", "184711.577000", "184711.579000", "184711.581000", "184711.584000", "184711.586000", "184711.589000", "184711.591000", "184711.594000", "184711.596000", "184711.599000", "184711.601000", "184711.603000", "184711.606000", "184711.608000", "184711.611000", "184711.613000", "184711.616000", "184711.618000", "184711.621000", "184740.812000", "184740.815000", "184740.817000", "184740.820000", "184740.822000", "184740.825000", "184740.827000", "184740.830000", "184740.832000", "184740.835000", "184740.837000", "184740.840000", "184740.842000", "184740.845000", "184740.847000", "184740.850000", "184740.852000", "184740.855000", "184740.857000", "184740.865000"],
