{
  "AcquisitionMatrixPE": 104,
  "AcquisitionNumber": 1,
  "AcquisitionTime": "17:52:38.722500",
  "BandwidthPerPixelPhaseEncode": 17.17,
  "BaseResolution": 104,
  "BodyPartExamined": "BRAIN",
  "CoilCombinationMethod": "Sum of Squares",
  "ConsistencyInfo": "N4_VE11C_LATEST_20160120",
  "ConversionSoftware": "dcm2niix",
  "ConversionSoftwareVersion": "v1.0.20211006",
  "DerivedVendorReportedEchoSpacing": 0.000560011,
  "DeviceSerialNumber": "167006",
  "DwellTime": 2.1e-06,
  "EchoTime": 0.037,
  "EchoTime1": 0.037,
  "EchoTime2": 0.001,
  "EchoTrainLength": 104,
  "EffectiveEchoSpacing": 0.000560011,
  "FlipAngle": 52,
  "HeudiconvVersion": "0.5.3.post569+g418601f",
  "ImageComments": "Unaliased MB4/PE3/LB",
  "ImageOrientationPatientDICOM": [0.999953, -0.00350902, 0.00905562, 0.00645753, 0.936691, -0.350099],
  "ImageOrientationText": "Tra>Cor(-20.5)>Sag(0.4)",
  "ImageType": [
    "ORIGINAL",
    "PRIMARY",
    "P",
    "MB",
    "ND",
    "MOSAIC",
    "PHASE"
],
  "ImagingFrequency": 123.259,
  "InPlanePhaseEncodingDirectionDICOM": "COL",
  "InstitutionAddress": "Chemin Queen-Mary 4565,Montreal,District,CA,H3W 1W5",
  "InstitutionName": "IUGM",
  "InstitutionalDepartmentName": "Department",
  "MRAcquisitionType": "2D",
  "MagneticFieldStrength": 3,
  "Manufacturer": "Siemens",
  "ManufacturersModelName": "Prisma_fit",
  "MatrixCoilMode": "SENSE",
  "Modality": "MR",
  "MultibandAccelerationFactor": 4,
  "PartialFourier": 1,
  "PatientPosition": "HFS",
  "PercentPhaseFOV": 100,
  "PercentSampling": 100,
  "PhaseEncodingDirection": "j",
  "PhaseEncodingSteps": 104,
  "PhaseResolution": 1,
  "PixelBandwidth": 2290,
  "ProcedureStepDescription": "games^mario",
  "ProtocolName": "func_task-mario_run-02",
  "PulseSequenceDetails": "%CustomerSeq%\\cmrr_mbep2d_bold",
  "ReceiveCoilActiveElements": "HC1-7;NC1,2",
  "ReceiveCoilName": "HeadNeck_64",
  "ReconMatrixPE": 104,
  "RepetitionTime": 1.49,
  "SAR": 0.0579274,
  "ScanOptions": "FS",
  "ScanningSequence": "EP",
  "SequenceName": "epfid2d1_104",
  "SequenceVariant": "SK\\SS",
  "SeriesDescription": "func_task-mario_run-02",
  "SeriesNumber": 14,
  "ShimSetting": [615, -7266, -8821, 368, 4, -311, 20, 37],
  "SliceThickness": 2,
  "SliceTiming": [0, 0.785, 0.0975, 0.8825, 0.1975, 0.98, 0.295, 1.0775, 0.3925, 1.175, 0.49, 1.275, 0.5875, 1.3725, 0.685, 0, 0.785, 0.0975, 0.8825, 0.1975, 0.98, 0.295, 1.0775, 0.3925, 1.175, 0.49, 1.275, 0.5875, 1.3725, 0.685, 0, 0.785, 0.0975, 0.8825, 0.1975, 0.98, 0.295, 1.0775, 0.3925, 1.175, 0.49, 1.275, 0.5875, 1.3725, 0.685, 0, 0.785, 0.0975, 0.8825, 0.1975, 0.98, 0.295, 1.0775, 0.3925, 1.175, 0.49, 1.275, 0.5875, 1.3725, 0.685],
  "SoftwareVersions": "syngo MR E11",
  "SpacingBetweenSlices": 2,
  "StationName": "MRC35049",
  "TaskName": "mario",
  "TotalReadoutTime": 0.0576811,
  "TxRefAmp": 288.766,
  "WipMemBlock": "e901109a-4963-4749-bc27-12cd535aa637||Sequence: R016 ve11c/master r/e634e98; Dec 19 2017 11:00:25 by eja",
  "dcmmeta_affine": [
    [-1.9999057054519653, 0.012915057130157948, 0.014507630839943886, 103.41004180908203],
    [0.007018032018095255, 1.8733811378479004, -0.7002812027931213, -63.634605407714844],
    [0.018111247569322586, 0.7001972794532776, 1.8733381032943726, -59.60406494140625],
    [0.0, 0.0, 0.0, 1.0]
],
  "dcmmeta_reorient_transform": [
    [0.0, -1.0, 0.0, 103.0],
    [1.0, 0.0, 0.0, 0.0],
    [0.0, 0.0, 1.0, 0.0],
    [0.0, 0.0, 0.0, 1.0]
],
  "dcmmeta_shape": [104, 104, 60, 463],
  "dcmmeta_slice_dim": 2,
  "dcmmeta_version": 0.6,
  "global": {
    "const": {
      "AcquisitionMatrix": [104, 0, 0, 104],
      "AngioFlag": "N",
      "BitsAllocated": 16,
      "BitsStored": 16,
      "BodyPartExamined": "BRAIN",
      "Columns": 832,
      "EchoNumbers": 1,
      "EchoTime": 37.0,
      "EchoTrainLength": 104,
      "FlipAngle": 52.0,
      "HighBit": 15,
      "ImageOrientationPatient": [0.99995284013103, -0.0035090159881, 0.00905562370484, 0.00645752836272, 0.93669057697061, -0.350098648015],
      "ImagePositionPatient": [-837.40704107236, -808.67982866539, 260.79557912398],
      "ImageType": [
        "ORIGINAL",
        "PRIMARY",
        "P",
        "MB",
        "ND",
        "MOSAIC"
],
      "ImagedNucleus": "1H",
      "ImagingFrequency": 123.258794,
      "InPlanePhaseEncodingDirection": "COL",
      "LargestImagePixelValue": 4095,
      "MRAcquisitionType": "2D",
      "MagneticFieldStrength": 3.0,
      "Manufacturer": "SIEMENS",
      "ManufacturerModelName": "Prisma_fit",
      "Modality": "MR",
      "NumberOfAverages": 1.0,
      "NumberOfPhaseEncodingSteps": 104,
      "PercentPhaseFieldOfView": 100.0,
      "PercentSampling": 100.0,
      "PerformedProcedureStepStartTime": "170506.688000",
      "PhotometricInterpretation": "MONOCHROME2",
      "PixelBandwidth": 2290.0,
      "PixelRepresentation": 0,
      "PixelSpacing": [2.0, 2.0],
      "ProtocolName": "func_task-mario_run-02",
      "RepetitionTime": 1490.0,
      "RescaleIntercept": -4096.0,
      "RescaleSlope": 2.0,
      "RescaleType": "US",
      "Rows": 832,
      "SAR": 0.05792739527635,
      "SamplesPerPixel": 1,
      "ScanOptions": "FS",
      "ScanningSequence": "EP",
      "SequenceName": "epfid2d1_104",
      "SequenceVariant": [
        "SK",
        "SS"
],
      "SeriesDescription": "func_task-mario_run-02",
      "SeriesNumber": 14,
      "SeriesTime": "175405.644000",
      "SliceLocation": -32.79810517514,
      "SliceThickness": 2.0,
      "SmallestImagePixelValue": 0,
      "SoftwareVersions": "syngo MR E11",
      "SpacingBetweenSlices": 1.999999972702,
      "SpecificCharacterSet": "ISO_IR 100",
      "StudyID": "1",
      "StudyTime": "170506.545000",
      "TransmitCoilName": "Body",
      "VariableFlipAngleFlag": "N",
      "WindowCenterWidthExplanation": "Algo1",
      "dBdt": 0.0},
    "slices": {}
  },
  "time": {
    "samples": {
      "AcquisitionNumber": [1, 2, 3, 4, 5, 6, 7, 8, 9, 10, 11, 12, 13, 14, 15, 16, 17, 18, 19, 20, 21, 22, 23, 24, 25, 26, 27, 28, 29, 30, 31, 32, 33, 34, 35, 36, 37, 38, 39, 40, 41, 42, 43, 44, 45, 46, 47, 48, 49, 50, 51, 52, 53, 54, 55, 56, 57, 58, 59, 60, 61, 62, 63, 64, 65, 66, 67, 68, 69, 70, 71, 72, 73, 74, 75, 76, 77, 78, 79, 80, 81, 82, 83, 84, 85, 86, 87, 88, 89, 90, 91, 92, 93, 94, 95, 96, 97, 98, 99, 100, 101, 102, 103, 104, 105, 106, 107, 108, 109, 110, 111, 112, 113, 114, 115, 116, 117, 118, 119, 120, 121, 122, 123, 124, 125, 126, 127, 128, 129, 130, 131, 132, 133, 134, 135, 136, 137, 138, 139, 140, 141, 142, 143, 144, 145, 146, 147, 148, 149, 150, 151, 152, 153, 154, 155, 156, 157, 158, 159, 160, 161, 162, 163, 164, 165, 166, 167, 168, 169, 170, 171, 172, 173, 174, 175, 176, 177, 178, 179, 180, 181, 182, 183, 184, 185, 186, 187, 188, 189, 190, 191, 192, 193, 194, 195, 196, 197, 198, 199, 200, 201, 202, 203, 204, 205, 206, 207, 208, 209, 210, 211, 212, 213, 214, 215, 216, 217, 218, 219, 220, 221, 222, 223, 224, 225, 226, 227, 228, 229, 230, 231, 232, 233, 234, 235, 236, 237, 238, 239, 240, 241, 242, 243, 244, 245, 246, 247, 248, 249, 250, 251, 252, 253, 254, 255, 256, 257, 258, 259, 260, 261, 262, 263, 264, 265, 266, 267, 268, 269, 270, 271, 272, 273, 274, 275, 276, 277, 278, 279, 280, 281, 282, 283, 284, 285, 286, 287, 288, 289, 290, 291, 292, 293, 294, 295, 296, 297, 298, 299, 300, 301, 302, 303, 304, 305, 306, 307, 308, 309, 310, 311, 312, 313, 314, 315, 316, 317, 318, 319, 320, 321, 322, 323, 324, 325, 326, 327, 328, 329, 330, 331, 332, 333, 334, 335, 336, 337, 338, 339, 340, 341, 342, 343, 344, 345, 346, 347, 348, 349, 350, 351, 352, 353, 354, 355, 356, 357, 358, 359, 360, 361, 362, 363, 364, 365, 366, 367, 368, 369, 370, 371, 372, 373, 374, 375, 376, 377, 378, 379, 380, 381, 382, 383, 384, 385, 386, 387, 388, 389, 390, 391, 392, 393, 394, 395, 396, 397, 398, 399, 400, 401, 402, 403, 404, 405, 406, 407, 408, 409, 410, 411, 412, 413, 414, 415, 416, 417, 418, 419, 420, 421, 422, 423, 424, 425, 426, 427, 428, 429, 430, 431, 432, 433, 434, 435, 436, 437, 438, 439, 440, 441, 442, 443, 444, 445, 446, 447, 448, 449, 450, 451, 452, 453, 454, 455, 456, 457, 458, 459, 460, 461, 462, 463],
      "AcquisitionTime": ["175238.722500", "175240.212500", "175241.702500", "175243.192500", "175244.682500", "175246.172500", "175247.662500", "175249.152500", "175250.642500", "175252.132500", "175253.622500", "175255.112500", "175256.602500", "175258.092500", "175259.582500", "175301.072500", "175302.562500", "175304.052500", "175305.542500", "175307.032500", "175308.522500", "175310.012500", "175311.502500", "175312.992500", "175314.482500", "175315.972500", "175317.462500", "175318.952500", "175320.442500", "175321.932500", "175323.422500", "175324.912500", "175326.402500", "175327.892500", "175329.382500", "175330.872500", "175332.362500", "175333.852500", "175335.342500", "175336.832500", "175338.322500", "175339.812500", "175341.302500", "175342.792500", "175344.282500", "175345.772500", "175347.262500", "175348.752500", "175350.242500", "175351.732500", "175353.222500", "175354.712500", "175356.202500", "175357.692500", "175359.182500", "175400.672500", "175402.162500", "175403.652500", "175405.142500", "175406.632500", "175408.122500", "175409.612500", "175411.102500", "175412.592500", "175414.082500", "175415.572500", "175417.062500", "175418.552500", "175420.042500", "175421.532500", "175423.022500", "175424.512500", "175426.002500", "175427.492500", "175428.982500", "175430.472500", "175431.962500", "175433.452500", "175434.942500", "175436.432500", "175437.922500", "175439.412500", "175440.902500", "175442.392500", "175443.882500", "175445.372500", "175446.862500", "175448.352500", "175449.842500", "175451.332500", "175452.822500", "175454.312500", "175455.802500", "175457.292500", "175458.782500", "175500.272500", "175501.762500", "175503.252500", "175504.742500", "175506.232500", "175507.722500", "175509.212500", "175510.702500", "175512.192500", "175513.682500", "175515.172500", "175516.662500", "175518.152500", "175519.642500", "175521.132500", "175522.622500", "175524.112500", "175525.602500", "175527.092500", "175528.582500", "175530.072500", "175531.562500", "175533.052500", "175534.542500", "175536.032500", "175537.522500", "175539.012500", "175540.502500", "175541.992500", "175543.482500", "175544.972500", "175546.462500", "175547.952500", "175549.442500", "175550.932500", "175552.422500", "175553.912500", "175555.402500", "175556.892500", "175558.382500", "175559.872500", "175601.362500", "175602.852500", "175604.342500", "175605.832500", "175607.322500", "175608.812500", "175610.302500", "175611.792500", "175613.282500", "175614.772500", "175616.262500", "175617.752500", "175619.242500", "175620.732500", "175622.222500", "175623.712500", "175625.202500", "175626.692500", "175628.182500", "175629.672500", "175631.162500", "175632.652500", "175634.142500", "175635.632500", "175637.122500", "175638.612500", "175640.102500", "175641.592500", "175643.082500", "175644.572500", "175646.062500", "175647.552500", "175649.042500", "175650.532500", "175652.022500", "175653.512500", "175655.002500", "175656.492500", "175657.982500", "175659.472500", "175700.962500", "175702.452500", "175703.942500", "175705.432500", "175706.922500", "175708.412500", "175709.902500", "175711.392500", "175712.882500", "175714.372500", "175715.862500", "175717.352500", "175718.842500", "175720.332500", "175721.822500", "175723.312500", "175724.802500", "175726.292500", "175727.782500", "175729.272500", "175730.762500", "175732.252500", "175733.742500", "175735.232500", "175736.722500", "175738.212500", "175739.702500", "175741.192500", "175742.682500", "175744.172500", "175745.662500", "175747.152500", "175748.642500", "175750.132500", "175751.622500", "175753.112500", "175754.602500", "175756.092500", "175757.582500", "175759.072500", "175800.562500", "175802.052500", "175803.542500", "175805.032500", "175806.522500", "175808.012500", "175809.502500", "175810.992500", "175812.482500", "175813.972500", "175815.462500", "175816.952500", "175818.442500", "175819.932500", "175821.422500", "175822.912500", "175824.402500", "175825.892500", "175827.382500", "175828.872500", "175830.362500", "175831.852500", "175833.342500", "175834.832500", "175836.322500", "175837.812500", "175839.302500", "175840.792500", "175842.282500", "175843.772500", "175845.262500", "175846.752500", "175848.242500", "175849.732500", "175851.222500", "175852.712500", "175854.202500", "175855.692500", "175857.182500", "175858.672500", "175900.162500", "175901.652500", "175903.142500", "175904.632500", "175906.122500", "175907.612500", "175909.102500", "175910.592500", "175912.082500", "175913.572500", "175915.062500", "175916.552500", "175918.042500", "175919.532500", "175921.022500", "175922.512500", "175924.002500", "175925.492500", "175926.982500", "175928.472500", "175929.962500", "175931.452500", "175932.942500", "175934.432500", "175935.922500", "175937.412500", "175938.902500", "175940.392500", "175941.882500", "175943.372500", "175944.862500", "175946.352500", "175947.842500", "175949.332500", "175950.822500", "175952.312500", "175953.802500", "175955.292500", "175956.782500", "175958.272500", "175959.762500", "180001.252500", "180002.742500", "180004.232500", "180005.722500", "180007.212500", "180008.702500", "180010.192500", "180011.682500", "180013.172500", "180014.662500", "180016.152500", "180017.642500", "180019.132500", "180020.622500", "180022.112500", "180023.602500", "180025.092500", "180026.582500", "180028.072500", "180029.562500", "180031.052500", "180032.542500", "180034.032500", "180035.522500", "180037.012500", "180038.502500", "180039.992500", "180041.482500", "180042.972500", "180044.462500", "180045.952500", "180047.442500", "180048.932500", "180050.422500", "180051.912500", "180053.402500", "180054.892500", "180056.382500", "180057.872500", "180059.362500", "180100.852500", "180102.342500", "180103.832500", "180105.322500", "180106.812500", "180108.302500", "180109.792500", "180111.282500", "180112.772500", "180114.262500", "180115.752500", "180117.242500", "180118.732500", "180120.222500", "180121.712500", "180123.202500", "180124.692500", "180126.182500", "180127.672500", "180129.162500", "180130.652500", "180132.142500", "180133.632500", "180135.122500", "180136.612500", "180138.102500", "180139.592500", "180141.082500", "180142.572500", "180144.062500", "180145.552500", "180147.042500", "180148.532500", "180150.022500", "180151.512500", "180153.002500", "180154.492500", "180155.982500", "180157.472500", "180158.962500", "180200.452500", "180201.942500", "180203.432500", "180204.922500", "180206.412500", "180207.902500", "180209.392500", "180210.882500", "180212.372500", "180213.862500", "180215.352500", "180216.842500", "180218.332500", "180219.822500", "180221.312500", "180222.802500", "180224.292500", "180225.782500", "180227.272500", "180228.762500", "180230.252500", "180231.742500", "180233.232500", "180234.722500", "180236.212500", "180237.702500", "180239.192500", "180240.682500", "180242.172500", "180243.662500", "180245.152500", "180246.642500", "180248.132500", "180249.622500", "180251.112500", "180252.602500", "180254.092500", "180255.582500", "180257.072500", "180258.562500", "180300.052500", "180301.542500", "180303.032500", "180304.522500", "180306.012500", "180307.502500", "180308.992500", "180310.482500", "180311.972500", "180313.462500", "180314.952500", "180316.442500", "180317.932500", "180319.422500", "180320.912500", "180322.402500", "180323.892500", "180325.382500", "180326.872500", "180328.362500", "180329.852500", "180331.342500", "180332.832500", "180334.322500", "180335.812500", "180337.302500", "180338.792500", "180340.282500", "180341.772500", "180343.262500", "180344.752500", "180346.242500", "180347.732500", "180349.222500", "180350.712500", "180352.202500", "180353.692500", "180355.182500", "180356.672500", "180358.162500", "180359.652500", "180401.142500", "180402.632500", "180404.122500", "180405.612500", "180407.102500"],
      "ContentTime": ["175405.646000", "175405.649000", "175405.651000", "175405.654000", "175405.656000", "175405.658000", "175405.661000", "175405.663000", "175405.666000", "175405.668000", "175405.671000", "175405.673000", "175405.676000", "175405.678000", "175405.681000", "175405.683000", "175405.686000", "175405.697000", "175405.700000", "175405.702000", "175405.705000", "175405.707000", "175405.710000", "175405.712000", "175405.714000", "175405.717000", "175405.719000", "175405.722000", "175405.724000", "175405.727000", "175405.729000", "175405.732000", "175405.734000", "175425.557000", "175425.560000", "175425.563000", "175425.565000", "175425.567000", "175425.570000", "175425.572000", "175425.575000", "175425.577000", "175425.580000", "175425.582000", "175425.585000", "175425.587000", "175425.597000", "175425.600000", "175425.602000", "175425.605000", "175425.607000", "175425.610000", "175425.612000", "175445.557000", "175445.560000", "175445.563000", "175445.565000", "175445.568000", "175445.570000", "175445.573000", "175445.575000", "175445.578000", "175445.580000", "175445.583000", "175445.585000", "175445.587000", "175445.590000", "175445.592000", "175445.595000", "175445.597000", "175445.600000", "175445.602000", "175445.605000", "175445.607000", "175505.551000", "175505.560000", "175505.562000", "175505.565000", "175505.567000", "175505.570000", "175505.572000", "175505.575000", "175505.577000", "175505.580000", "175505.582000", "175505.584000", "175505.587000", "175505.589000", "175505.592000", "175505.594000", "175505.597000", "175505.599000", "175505.602000", "175505.604000", "175545.627000", "175545.629000", "175545.632000", "175545.634000", "175545.637000", "175545.639000", "175545.642000", "175545.644000", "175545.647000", "175545.649000", "175545.652000", "175545.654000", "175545.657000", "175545.659000", "175545.662000", "175545.664000", "175545.666000", "175545.669000", "175545.672000", "175545.674000", "175545.677000", "175545.679000", "175545.681000", "175545.684000", "175545.686000", "175545.689000", "175545.691000", "175545.694000", "175545.696000", "175545.699000", "175545.701000", "175625.582000", "175625.585000", "175625.587000", "175625.590000", "175625.592000", "175625.595000", "175625.598000", "175625.601000", "175625.603000", "175625.606000", "175625.608000", "175625.611000", "175625.613000", "175625.616000", "175625.619000", "175625.621000", "175625.624000", "175625.626000", "175625.629000", "175625.631000", "175625.634000", "175625.636000", "175625.639000", "175625.641000", "175625.644000", "175625.646000", "175705.602000", "175705.604000", "175705.607000", "175705.609000", "175705.612000", "175705.614000", "175705.617000", "175705.619000", "175705.622000", "175705.625000", "175705.627000", "175705.630000", "175705.632000", "175705.635000", "175705.637000", "175705.640000", "175705.642000", "175705.645000", "175705.647000", "175705.650000", "175705.652000", "175705.655000", "175705.657000", "175705.660000", "175705.662000", "175705.665000", "175705.667000", "175745.581000", "175745.583000", "175745.586000", "175745.588000", "175745.591000", "175745.593000", "175745.596000", "175745.598000", "175745.601000", "175745.603000", "175745.606000", "175745.608000", "175745.611000", "175745.613000", "175745.616000", "175745.619000", "175745.621000", "175745.623000", "175745.626000", "175745.629000", "175745.631000", "175745.634000", "175745.636000", "175745.639000", "175745.641000", "175745.644000", "175745.646000", "175825.588000", "175825.591000", "175825.593000", "175825.596000", "175825.598000", "175825.601000", "175825.604000", "175825.606000", "175825.609000", "175825.611000", "175825.614000", "175825.616000", "175825.619000", "175825.621000", "175825.624000", "175825.626000", "175825.629000", "175825.631000", "175825.634000", "175825.636000", "175825.639000", "175825.641000", "175825.644000", "175825.646000", "175825.649000", "175825.651000", "175825.654000", "175905.579000", "175905.582000", "175905.584000", "175905.587000", "175905.591000", "175905.593000", "175905.596000", "175905.599000", "175905.601000", "175905.604000", "175905.606000", "175905.609000", "175905.611000", "175905.614000", "175905.616000", "175905.619000", "175905.621000", "175905.624000", "175905.627000", "175905.629000", "175905.632000", "175905.634000", "175905.637000", "175905.639000", "175905.642000", "175905.644000", "175905.647000", "175925.532000", "175925.535000", "175925.537000", "175925.540000", "175925.542000", "175925.545000", "175925.547000", "175925.550000", "175925.552000", "175925.555000", "175925.557000", "175925.560000", "175925.563000", "180005.581000", "180005.583000", "180005.586000", "180005.588000", "180005.591000", "180005.593000", "180005.596000", "180005.598000", "180005.601000", "180005.603000", "180005.606000", "180005.609000", "180005.611000", "180005.614000", "180005.616000", "180005.619000", "180005.621000", "180005.624000", "180005.626000", "180005.629000", "180005.631000", "180005.634000", "180005.636000", "180005.639000", "180005.641000", "180005.644000", "180005.646000", "180045.583000", "180045.586000", "180045.588000", "180045.590000", "180045.593000", "180045.595000", "180045.598000", "180045.600000", "180045.603000", "180045.605000", "180045.608000", "180045.610000", "180045.613000", "180045.615000", "180045.618000", "180045.620000", "180045.622000", "180045.625000", "180045.627000", "180045.630000", "180045.632000", "180045.635000", "180045.638000", "180045.640000", "180045.643000", "180045.645000", "180045.648000", "180125.573000", "180125.576000", "180125.579000", "180125.581000", "180125.584000", "180125.586000", "180125.588000", "180125.591000", "180125.593000", "180125.596000", "180125.598000", "180125.601000", "180125.603000", "180125.606000", "180125.609000", "180125.611000", "180125.613000", "180125.616000", "180125.618000", "180125.621000", "180125.623000", "180125.626000", "180125.628000", "180125.631000", "180125.633000", "180125.636000", "180125.638000", "180205.582000", "180205.585000", "180205.588000", "180205.590000", "180205.592000", "180205.595000", "180205.597000", "180205.600000", "180205.602000", "180205.605000", "180205.607000", "180205.610000", "180205.612000", "180205.615000", "180205.617000", "180205.620000", "180205.622000", "180205.625000", "180205.627000", "180205.629000", "180205.632000", "180205.634000", "180205.637000", "180205.639000", "180205.642000", "180205.644000", "180205.647000", "180245.596000", "180245.599000", "180245.601000", "180245.604000", "180245.606000", "180245.609000", "180245.611000", "180245.613000", "180245.616000", "180245.618000", "180245.628000", "180245.630000", "180245.633000", "180245.635000", "180245.638000", "180245.640000", "180245.642000", "180245.645000", "180245.647000", "180245.650000", "180245.652000", "180245.655000", "180245.657000", "180245.660000", "180245.662000", "180245.665000", "180325.598000", "180325.601000", "180325.604000", "180325.606000", "180325.609000", "180325.611000", "180325.613000", "180325.616000", "180325.618000", "180325.621000", "180325.623000", "180325.626000", "180325.628000", "180325.631000", "180325.633000", "180325.636000", "180325.638000", "180325.642000", "180325.645000", "180325.647000", "180325.650000", "180325.653000", "180325.655000", "180325.658000", "180325.660000", "180325.663000", "180325.665000", "180405.591000", "180405.593000", "180405.596000", "180405.598000", "180405.601000", "180405.603000", "180405.606000", "180405.608000", "180405.611000", "180405.619000", "180405.621000", "180405.624000", "180405.626000", "180405.628000", "180405.631000", "180405.633000", "180405.636000", "180405.638000", "180405.641000", "180405.643000", "180405.646000", "180405.648000", "180405.651000", "180405.653000", "180405.656000", "180405.658000", "180405.661000", "180410.255000", "180410.258000", "180410.261000"],
