{
  "AcquisitionMatrixPE": 104,
  "AcquisitionNumber": 1,
  "AcquisitionTime": "13:50:30.802500",
  "BandwidthPerPixelPhaseEncode": 17.17,
  "BaseResolution": 104,
  "BodyPartExamined": "BRAIN",
  "CoilCombinationMethod": "Sum of Squares",
  "ConsistencyInfo": "N4_VE11C_LATEST_20160120",
  "ConversionSoftware": "dcm2niix",
  "ConversionSoftwareVersion": "v1.0.20211006",
  "DerivedVendorReportedEchoSpacing": 0.000560011,
  "DeviceSerialNumber": "167006",
  "DwellTime": 2.1e-06,
  "EchoTime": 0.037,
  "EchoTrainLength": 104,
  "EffectiveEchoSpacing": 0.000560011,
  "FlipAngle": 52,
  "HeudiconvVersion": "0.5.3.post569+g418601f",
  "ImageComments": "Unaliased MB4/PE3/LB",
  "ImageOrientationPatientDICOM": [0.99881, 0.0354022, 0.0335398, -0.0251082, 0.962908, -0.268659],
  "ImageOrientationText": "Tra>Cor(-15.5)>Sag(2.4)",
  "ImageType": [
    "ORIGINAL",
    "PRIMARY",
    "M",
    "MB",
    "ND",
    "MOSAIC"
],
  "ImagingFrequency": 123.259,
  "InPlanePhaseEncodingDirectionDICOM": "COL",
  "InstitutionAddress": "Chemin Queen-Mary 4565,Montreal,District,CA,H3W 1W5",
  "InstitutionName": "IUGM",
  "InstitutionalDepartmentName": "Department",
  "MRAcquisitionType": "2D",
  "MagneticFieldStrength": 3,
  "Manufacturer": "Siemens",
  "ManufacturersModelName": "Prisma_fit",
  "MatrixCoilMode": "SENSE",
  "Modality": "MR",
  "MultibandAccelerationFactor": 4,
  "PartialFourier": 1,
  "PatientPosition": "HFS",
  "PercentPhaseFOV": 100,
  "PercentSampling": 100,
  "PhaseEncodingDirection": "j",
  "PhaseEncodingSteps": 104,
  "PhaseResolution": 1,
  "PixelBandwidth": 2290,
  "ProcedureStepDescription": "games^mario",
  "ProtocolName": "func_task-mario_run-02",
  "PulseSequenceDetails": "%CustomerSeq%\\cmrr_mbep2d_bold",
  "ReceiveCoilActiveElements": "HC1-7;NC1,2",
  "ReceiveCoilName": "HeadNeck_64",
  "ReconMatrixPE": 104,
  "RepetitionTime": 1.49,
  "SAR": 0.0447881,
  "ScanOptions": "FS",
  "ScanningSequence": "EP",
  "SequenceName": "epfid2d1_104",
  "SequenceVariant": "SK\\SS",
  "SeriesDescription": "func_task-mario_run-02",
  "SeriesNumber": 13,
  "ShimSetting": [645, -7211, -8723, 702, 51, -2, 54, 3],
  "SliceThickness": 2,
  "SliceTiming": [0, 0.785, 0.0975, 0.8825, 0.1975, 0.98, 0.295, 1.0775, 0.3925, 1.1775, 0.49, 1.275, 0.5875, 1.3725, 0.6875, 0, 0.785, 0.0975, 0.8825, 0.1975, 0.98, 0.295, 1.0775, 0.3925, 1.1775, 0.49, 1.275, 0.5875, 1.3725, 0.6875, 0, 0.785, 0.0975, 0.8825, 0.1975, 0.98, 0.295, 1.0775, 0.3925, 1.1775, 0.49, 1.275, 0.5875, 1.3725, 0.6875, 0, 0.785, 0.0975, 0.8825, 0.1975, 0.98, 0.295, 1.0775, 0.3925, 1.1775, 0.49, 1.275, 0.5875, 1.3725, 0.6875],
  "SoftwareVersions": "syngo MR E11",
  "SpacingBetweenSlices": 2,
  "StationName": "MRC35049",
  "TaskName": "mario",
  "TotalReadoutTime": 0.0576811,
  "TxRefAmp": 227.33,
  "WipMemBlock": "b28d70e7-612f-4cfb-b8b4-37fee7b626d5||Sequence: R016 ve11c/master r/e634e98; Dec 19 2017 11:00:25 by eja",
  "dcmmeta_affine": [
    [-1.9976203441619873, -0.050216350704431534, 0.0836137905716896, 108.9431381225586],
    [-0.0708044096827507, 1.925816297531128, -0.5349938869476318, -69.0767593383789],
    [0.06707967817783356, 0.5373174548149109, 1.9253026247024536, -49.64554977416992],
    [0.0, 0.0, 0.0, 1.0]
],
  "dcmmeta_reorient_transform": [
    [0.0, -1.0, 0.0, 103.0],
    [1.0, 0.0, 0.0, 0.0],
    [0.0, 0.0, 1.0, 0.0],
    [0.0, 0.0, 0.0, 1.0]
],
  "dcmmeta_shape": [104, 104, 60, 467],
  "dcmmeta_slice_dim": 2,
  "dcmmeta_version": 0.6,
  "global": {
    "const": {
      "AcquisitionMatrix": [104, 0, 0, 104],
      "AngioFlag": "N",
      "BitsAllocated": 16,
      "BitsStored": 16,
      "BodyPartExamined": "BRAIN",
      "Columns": 832,
      "EchoNumbers": 1,
      "EchoTime": 37.0,
      "EchoTrainLength": 104,
      "FlipAngle": 52.0,
      "HighBit": 15,
      "ImageOrientationPatient": [0.99881017370511, 0.03540220582053, 0.03353983789768, -0.0251081755969, 0.96290812773266, -0.2686587371827],
      "ImagePositionPatient": [-812.62590487332, -856.05223966103, 176.86470896462],
      "ImageType": [
        "ORIGINAL",
        "PRIMARY",
        "M",
        "MB",
        "ND",
        "MOSAIC"
],
      "ImagedNucleus": "1H",
      "ImagingFrequency": 123.258806,
      "InPlanePhaseEncodingDirection": "COL",
      "MRAcquisitionType": "2D",
      "MagneticFieldStrength": 3.0,
      "Manufacturer": "SIEMENS",
      "ManufacturerModelName": "Prisma_fit",
      "Modality": "MR",
      "NumberOfAverages": 1.0,
      "NumberOfPhaseEncodingSteps": 104,
      "PercentPhaseFieldOfView": 100.0,
      "PercentSampling": 100.0,
      "PerformedProcedureStepStartTime": "130723.052000",
      "PhotometricInterpretation": "MONOCHROME2",
      "PixelBandwidth": 2290.0,
      "PixelRepresentation": 0,
      "PixelSpacing": [2.0, 2.0],
      "ProtocolName": "func_task-mario_run-02",
      "RepetitionTime": 1490.0,
      "Rows": 832,
      "SAR": 0.04478806343786,
      "SamplesPerPixel": 1,
      "ScanOptions": "FS",
      "ScanningSequence": "EP",
      "SequenceName": "epfid2d1_104",
      "SequenceVariant": [
        "SK",
        "SS"
],
      "SeriesDescription": "func_task-mario_run-02",
      "SeriesNumber": 13,
      "SeriesTime": "135148.396000",
      "SliceLocation": -24.758957324423,
      "SliceThickness": 2.0,
      "SmallestImagePixelValue": 0,
      "SoftwareVersions": "syngo MR E11",
      "SpacingBetweenSlices": 1.9999999683067,
      "SpecificCharacterSet": "ISO_IR 100",
      "StudyID": "1",
      "StudyTime": "130722.963000",
      "TransmitCoilName": "Body",
      "VariableFlipAngleFlag": "N",
      "WindowCenterWidthExplanation": "Algo1",
      "dBdt": 0.0},
    "slices": {}
  },
  "time": {
    "samples": {
      "AcquisitionNumber": [1, 2, 3, 4, 5, 6, 7, 8, 9, 10, 11, 12, 13, 14, 15, 16, 17, 18, 19, 20, 21, 22, 23, 24, 25, 26, 27, 28, 29, 30, 31, 32, 33, 34, 35, 36, 37, 38, 39, 40, 41, 42, 43, 44, 45, 46, 47, 48, 49, 50, 51, 52, 53, 54, 55, 56, 57, 58, 59, 60, 61, 62, 63, 64, 65, 66, 67, 68, 69, 70, 71, 72, 73, 74, 75, 76, 77, 78, 79, 80, 81, 82, 83, 84, 85, 86, 87, 88, 89, 90, 91, 92, 93, 94, 95, 96, 97, 98, 99, 100, 101, 102, 103, 104, 105, 106, 107, 108, 109, 110, 111, 112, 113, 114, 115, 116, 117, 118, 119, 120, 121, 122, 123, 124, 125, 126, 127, 128, 129, 130, 131, 132, 133, 134, 135, 136, 137, 138, 139, 140, 141, 142, 143, 144, 145, 146, 147, 148, 149, 150, 151, 152, 153, 154, 155, 156, 157, 158, 159, 160, 161, 162, 163, 164, 165, 166, 167, 168, 169, 170, 171, 172, 173, 174, 175, 176, 177, 178, 179, 180, 181, 182, 183, 184, 185, 186, 187, 188, 189, 190, 191, 192, 193, 194, 195, 196, 197, 198, 199, 200, 201, 202, 203, 204, 205, 206, 207, 208, 209, 210, 211, 212, 213, 214, 215, 216, 217, 218, 219, 220, 221, 222, 223, 224, 225, 226, 227, 228, 229, 230, 231, 232, 233, 234, 235, 236, 237, 238, 239, 240, 241, 242, 243, 244, 245, 246, 247, 248, 249, 250, 251, 252, 253, 254, 255, 256, 257, 258, 259, 260, 261, 262, 263, 264, 265, 266, 267, 268, 269, 270, 271, 272, 273, 274, 275, 276, 277, 278, 279, 280, 281, 282, 283, 284, 285, 286, 287, 288, 289, 290, 291, 292, 293, 294, 295, 296, 297, 298, 299, 300, 301, 302, 303, 304, 305, 306, 307, 308, 309, 310, 311, 312, 313, 314, 315, 316, 317, 318, 319, 320, 321, 322, 323, 324, 325, 326, 327, 328, 329, 330, 331, 332, 333, 334, 335, 336, 337, 338, 339, 340, 341, 342, 343, 344, 345, 346, 347, 348, 349, 350, 351, 352, 353, 354, 355, 356, 357, 358, 359, 360, 361, 362, 363, 364, 365, 366, 367, 368, 369, 370, 371, 372, 373, 374, 375, 376, 377, 378, 379, 380, 381, 382, 383, 384, 385, 386, 387, 388, 389, 390, 391, 392, 393, 394, 395, 396, 397, 398, 399, 400, 401, 402, 403, 404, 405, 406, 407, 408, 409, 410, 411, 412, 413, 414, 415, 416, 417, 418, 419, 420, 421, 422, 423, 424, 425, 426, 427, 428, 429, 430, 431, 432, 433, 434, 435, 436, 437, 438, 439, 440, 441, 442, 443, 444, 445, 446, 447, 448, 449, 450, 451, 452, 453, 454, 455, 456, 457, 458, 459, 460, 461, 462, 463, 464, 465, 466, 467],
      "AcquisitionTime": ["135030.802500", "135032.292500", "135033.782500", "135035.272500", "135036.762500", "135038.252500", "135039.742500", "135041.232500", "135042.722500", "135044.212500", "135045.702500", "135047.192500", "135048.682500", "135050.172500", "135051.662500", "135053.152500", "135054.642500", "135056.132500", "135057.622500", "135059.112500", "135100.602500", "135102.092500", "135103.582500", "135105.072500", "135106.562500", "135108.052500", "135109.542500", "135111.032500", "135112.522500", "135114.012500", "135115.502500", "135116.992500", "135118.482500", "135119.972500", "135121.462500", "135122.952500", "135124.442500", "135125.932500", "135127.422500", "135128.912500", "135130.402500", "135131.892500", "135133.382500", "135134.872500", "135136.362500", "135137.852500", "135139.342500", "135140.832500", "135142.322500", "135143.812500", "135145.302500", "135146.792500", "135148.282500", "135149.772500", "135151.262500", "135152.752500", "135154.242500", "135155.732500", "135157.222500", "135158.712500", "135200.202500", "135201.692500", "135203.182500", "135204.672500", "135206.162500", "135207.652500", "135209.142500", "135210.632500", "135212.122500", "135213.612500", "135215.102500", "135216.592500", "135218.082500", "135219.572500", "135221.062500", "135222.552500", "135224.042500", "135225.532500", "135227.022500", "135228.512500", "135230.002500", "135231.492500", "135232.982500", "135234.472500", "135235.962500", "135237.452500", "135238.942500", "135240.432500", "135241.922500", "135243.412500", "135244.902500", "135246.392500", "135247.882500", "135249.372500", "135250.862500", "135252.352500", "135253.842500", "135255.332500", "135256.822500", "135258.312500", "135259.802500", "135301.292500", "135302.782500", "135304.272500", "135305.762500", "135307.252500", "135308.742500", "135310.232500", "135311.722500", "135313.212500", "135314.702500", "135316.192500", "135317.682500", "135319.172500", "135320.662500", "135322.152500", "135323.642500", "135325.132500", "135326.622500", "135328.112500", "135329.602500", "135331.092500", "135332.582500", "135334.072500", "135335.562500", "135337.052500", "135338.542500", "135340.032500", "135341.522500", "135343.012500", "135344.502500", "135345.992500", "135347.482500", "135348.972500", "135350.462500", "135351.952500", "135353.442500", "135354.932500", "135356.422500", "135357.912500", "135359.402500", "135400.892500", "135402.382500", "135403.872500", "135405.362500", "135406.852500", "135408.342500", "135409.832500", "135411.322500", "135412.812500", "135414.302500", "135415.792500", "135417.282500", "135418.772500", "135420.262500", "135421.752500", "135423.242500", "135424.732500", "135426.222500", "135427.712500", "135429.202500", "135430.692500", "135432.182500", "135433.672500", "135435.162500", "135436.652500", "135438.142500", "135439.632500", "135441.122500", "135442.612500", "135444.102500", "135445.592500", "135447.082500", "135448.572500", "135450.062500", "135451.552500", "135453.042500", "135454.532500", "135456.022500", "135457.512500", "135459.002500", "135500.492500", "135501.982500", "135503.472500", "135504.962500", "135506.452500", "135507.942500", "135509.432500", "135510.922500", "135512.412500", "135513.902500", "135515.392500", "135516.882500", "135518.372500", "135519.862500", "135521.352500", "135522.842500", "135524.332500", "135525.822500", "135527.312500", "135528.802500", "135530.292500", "135531.782500", "135533.272500", "135534.762500", "135536.252500", "135537.742500", "135539.232500", "135540.722500", "135542.212500", "135543.702500", "135545.192500", "135546.682500", "135548.172500", "135549.662500", "135551.152500", "135552.642500", "135554.132500", "135555.622500", "135557.112500", "135558.602500", "135600.092500", "135601.582500", "135603.072500", "135604.562500", "135606.052500", "135607.542500", "135609.032500", "135610.522500", "135612.012500", "135613.502500", "135614.992500", "135616.482500", "135617.972500", "135619.462500", "135620.952500", "135622.442500", "135623.932500", "135625.422500", "135626.912500", "135628.402500", "135629.892500", "135631.382500", "135632.872500", "135634.362500", "135635.852500", "135637.342500", "135638.832500", "135640.322500", "135641.812500", "135643.302500", "135644.792500", "135646.282500", "135647.772500", "135649.262500", "135650.752500", "135652.242500", "135653.732500", "135655.222500", "135656.712500", "135658.202500", "135659.692500", "135701.182500", "135702.672500", "135704.162500", "135705.652500", "135707.142500", "135708.632500", "135710.122500", "135711.612500", "135713.102500", "135714.592500", "135716.082500", "135717.572500", "135719.062500", "135720.552500", "135722.042500", "135723.532500", "135725.022500", "135726.512500", "135728.002500", "135729.492500", "135730.982500", "135732.472500", "135733.962500", "135735.452500", "135736.942500", "135738.432500", "135739.922500", "135741.412500", "135742.902500", "135744.392500", "135745.882500", "135747.372500", "135748.862500", "135750.352500", "135751.842500", "135753.332500", "135754.822500", "135756.312500", "135757.802500", "135759.292500", "135800.782500", "135802.272500", "135803.762500", "135805.252500", "135806.742500", "135808.232500", "135809.722500", "135811.212500", "135812.702500", "135814.192500", "135815.682500", "135817.172500", "135818.662500", "135820.152500", "135821.642500", "135823.132500", "135824.622500", "135826.112500", "135827.602500", "135829.092500", "135830.582500", "135832.072500", "135833.562500", "135835.052500", "135836.542500", "135838.032500", "135839.522500", "135841.012500", "135842.502500", "135843.992500", "135845.482500", "135846.972500", "135848.462500", "135849.952500", "135851.442500", "135852.932500", "135854.422500", "135855.912500", "135857.402500", "135858.892500", "135900.382500", "135901.872500", "135903.362500", "135904.852500", "135906.342500", "135907.832500", "135909.322500", "135910.812500", "135912.302500", "135913.792500", "135915.282500", "135916.772500", "135918.262500", "135919.752500", "135921.242500", "135922.732500", "135924.222500", "135925.712500", "135927.202500", "135928.692500", "135930.182500", "135931.672500", "135933.162500", "135934.652500", "135936.142500", "135937.632500", "135939.122500", "135940.612500", "135942.102500", "135943.592500", "135945.082500", "135946.572500", "135948.062500", "135949.552500", "135951.042500", "135952.532500", "135954.022500", "135955.512500", "135957.002500", "135958.492500", "135959.982500", "140001.472500", "140002.962500", "140004.452500", "140005.942500", "140007.432500", "140008.922500", "140010.412500", "140011.902500", "140013.392500", "140014.882500", "140016.372500", "140017.862500", "140019.352500", "140020.842500", "140022.332500", "140023.822500", "140025.312500", "140026.802500", "140028.292500", "140029.782500", "140031.272500", "140032.762500", "140034.252500", "140035.742500", "140037.232500", "140038.722500", "140040.212500", "140041.702500", "140043.192500", "140044.682500", "140046.172500", "140047.662500", "140049.152500", "140050.642500", "140052.132500", "140053.622500", "140055.112500", "140056.602500", "140058.092500", "140059.582500", "140101.072500", "140102.562500", "140104.052500", "140105.542500", "140107.032500", "140108.522500", "140110.012500", "140111.502500", "140112.992500", "140114.482500", "140115.972500", "140117.462500", "140118.952500", "140120.442500", "140121.932500", "140123.422500", "140124.912500", "140126.402500", "140127.892500", "140129.382500", "140130.872500", "140132.362500", "140133.852500", "140135.342500", "140136.832500", "140138.322500", "140139.812500", "140141.302500", "140142.792500", "140144.282500", "140145.772500", "140147.262500", "140148.752500", "140150.242500", "140151.732500", "140153.222500", "140154.712500", "140156.202500", "140157.692500", "140159.182500", "140200.672500", "140202.162500", "140203.652500", "140205.142500"],
      "ContentTime": ["135148.399000", "135148.403000", "135148.407000", "135148.410000", "135148.413000", "135148.416000", "135148.420000", "135148.423000", "135148.426000", "135148.429000", "135148.433000", "135148.436000", "135148.439000", "135148.442000", "135148.446000", "135148.449000", "135148.459000", "135148.462000", "135148.465000", "135148.468000", "135148.472000", "135148.475000", "135208.363000", "135208.367000", "135208.370000", "135208.373000", "135208.377000", "135208.380000", "135208.383000", "135208.386000", "135208.390000", "135208.393000", "135208.396000", "135208.399000", "135208.403000", "135208.406000", "135208.409000", "135208.412000", "135208.416000", "135208.419000", "135208.422000", "135208.425000", "135228.363000", "135228.367000", "135228.370000", "135228.373000", "135228.376000", "135228.380000", "135228.383000", "135228.387000", "135228.390000", "135228.393000", "135228.397000", "135228.400000", "135228.403000", "135228.406000", "135228.410000", "135228.413000", "135228.416000", "135228.419000", "135228.423000", "135228.426000", "135248.363000", "135248.367000", "135248.379000", "135248.383000", "135248.386000", "135248.389000", "135248.392000", "135248.396000", "135248.399000", "135248.402000", "135248.405000", "135248.409000", "135248.412000", "135248.415000", "135248.418000", "135248.422000", "135248.425000", "135248.428000", "135248.431000", "135248.435000", "135308.363000", "135308.367000", "135308.370000", "135308.373000", "135308.377000", "135308.380000", "135308.383000", "135308.386000", "135308.390000", "135308.393000", "135308.396000", "135308.400000", "135308.403000", "135308.406000", "135308.409000", "135308.413000", "135308.416000", "135308.419000", "135308.423000", "135308.426000", "135308.429000", "135348.363000", "135348.367000", "135348.370000", "135348.373000", "135348.377000", "135348.380000", "135348.383000", "135348.387000", "135348.390000", "135348.393000", "135348.397000", "135348.400000", "135348.403000", "135348.407000", "135348.410000", "135348.413000", "135348.417000", "135348.420000", "135348.423000", "135348.426000", "135348.430000", "135348.433000", "135348.436000", "135348.440000", "135348.443000", "135348.446000", "135348.449000", "135348.453000", "135428.363000", "135428.367000", "135428.370000", "135428.373000", "135428.377000", "135428.380000", "135428.383000", "135428.387000", "135428.390000", "135428.393000", "135428.396000", "135428.400000", "135428.403000", "135428.406000", "135428.409000", "135428.413000", "135428.416000", "135428.419000", "135428.423000", "135428.426000", "135428.430000", "135428.433000", "135428.436000", "135428.440000", "135428.443000", "135428.446000", "135428.449000", "135448.363000", "135448.367000", "135448.370000", "135448.373000", "135448.389000", "135448.392000", "135448.395000", "135448.399000", "135448.402000", "135448.405000", "135448.408000", "135448.412000", "135448.415000", "135448.418000", "135528.363000", "135528.367000", "135528.370000", "135528.374000", "135528.377000", "135528.380000", "135528.383000", "135528.387000", "135528.390000", "135528.393000", "135528.397000", "135528.400000", "135528.403000", "135528.406000", "135528.410000", "135528.413000", "135528.416000", "135528.420000", "135528.423000", "135528.426000", "135528.429000", "135528.433000", "135528.436000", "135528.439000", "135528.442000", "135528.446000", "135528.449000", "135608.363000", "135608.367000", "135608.370000", "135608.374000", "135608.377000", "135608.380000", "135608.384000", "135608.387000", "135608.390000", "135608.394000", "135608.397000", "135608.401000", "135608.405000", "135608.408000", "135608.411000", "135608.415000", "135608.418000", "135608.421000", "135608.425000", "135608.428000", "135608.431000", "135608.435000", "135608.438000", "135608.441000", "135608.445000", "135608.448000", "135648.363000", "135648.367000", "135648.370000", "135648.373000", "135648.377000", "135648.380000", "135648.383000", "135648.387000", "135648.390000", "135648.394000", "135648.397000", "135648.400000", "135648.403000", "135648.407000", "135648.410000", "135648.413000", "135648.417000", "135648.420000", "135648.423000", "135648.427000", "135648.430000", "135648.433000", "135648.437000", "135648.440000", "135648.452000", "135648.455000", "135648.458000", "135728.362000", "135728.366000", "135728.369000", "135728.373000", "135728.376000", "135728.379000", "135728.383000", "135728.386000", "135728.399000", "135728.402000", "135728.406000", "135728.409000", "135728.412000", "135728.416000", "135728.419000", "135728.423000", "135728.426000", "135728.429000", "135728.433000", "135728.436000", "135728.440000", "135728.443000", "135728.446000", "135728.450000", "135728.453000", "135728.456000", "135728.460000", "135808.363000", "135808.367000", "135808.370000", "135808.374000", "135808.377000", "135808.380000", "135808.383000", "135808.387000", "135808.390000", "135808.393000", "135808.397000", "135808.400000", "135808.403000", "135808.407000", "135808.410000", "135808.413000", "135808.417000", "135808.420000", "135808.423000", "135808.427000", "135808.430000", "135808.433000", "135808.436000", "135808.440000", "135808.443000", "135808.446000", "135808.450000", "135848.363000", "135848.367000", "135848.370000", "135848.374000", "135848.377000", "135848.380000", "135848.385000", "135848.388000", "135848.391000", "135848.395000", "135848.398000", "135848.401000", "135848.405000", "135848.408000", "135848.411000", "135848.415000", "135848.418000", "135848.421000", "135848.425000", "135848.428000", "135848.431000", "135848.435000", "135848.438000", "135848.441000", "135848.445000", "135848.448000", "135848.451000", "135928.363000", "135928.367000", "135928.370000", "135928.374000", "135928.377000", "135928.380000", "135928.384000", "135928.387000", "135928.390000", "135928.394000", "135928.397000", "135928.400000", "135928.404000", "135928.407000", "135928.410000", "135928.414000", "135928.417000", "135928.420000", "135928.424000", "135928.427000", "135928.430000", "135928.434000", "135928.437000", "135928.446000", "135928.449000", "135928.452000", "135928.456000", "140008.364000", "140008.367000", "140008.370000", "140008.374000", "140008.377000", "140008.380000", "140008.384000", "140008.387000", "140008.392000", "140008.395000", "140008.398000", "140008.402000", "140008.405000", "140008.415000", "140008.419000", "140008.422000", "140008.426000", "140008.430000", "140008.433000", "140008.437000", "140008.441000", "140008.445000", "140008.448000", "140008.452000", "140008.455000", "140008.459000", "140048.363000", "140048.367000", "140048.370000", "140048.374000", "140048.377000", "140048.380000", "140048.384000", "140048.387000", "140048.390000", "140048.399000", "140048.402000", "140048.406000", "140048.409000", "140048.413000", "140048.416000", "140048.419000", "140048.422000", "140048.426000", "140048.429000", "140048.439000", "140048.442000", "140048.446000", "140048.449000", "140048.452000", "140048.456000", "140048.459000", "140048.462000", "140128.363000", "140128.367000", "140128.370000", "140128.374000", "140128.377000", "140128.380000", "140128.384000", "140128.387000", "140128.390000", "140128.394000", "140128.397000", "140128.401000", "140128.404000", "140128.407000", "140128.410000", "140128.421000", "140128.425000", "140128.428000", "140128.431000", "140128.435000", "140128.438000", "140128.441000", "140128.445000", "140128.448000", "140128.451000", "140128.455000", "140128.458000", "140208.363000", "140208.377000", "140208.381000", "140208.384000", "140208.388000", "140208.391000", "140208.396000", "140208.401000", "140208.406000", "140208.411000", "140208.416000", "140208.419000", "140208.423000", "140208.426000", "140208.430000", "140208.433000", "140208.437000", "140208.440000", "140208.443000", "140208.447000", "140208.450000", "140208.453000", "140208.457000", "140208.460000", "140208.463000", "140208.467000", "140208.470000"],
