{
  "AcquisitionMatrixPE": 104,
  "AcquisitionNumber": 1,
  "AcquisitionTime": "14:06:4.390000",
  "BandwidthPerPixelPhaseEncode": 17.17,
  "BaseResolution": 104,
  "BodyPartExamined": "BRAIN",
  "CoilCombinationMethod": "Sum of Squares",
  "ConsistencyInfo": "N4_VE11C_LATEST_20160120",
  "ConversionSoftware": "dcm2niix",
  "ConversionSoftwareVersion": "v1.0.20211006",
  "DerivedVendorReportedEchoSpacing": 0.000560011,
  "DeviceSerialNumber": "167006",
  "DwellTime": 2.1e-06,
  "EchoTime": 0.037,
  "EchoTrainLength": 104,
  "EffectiveEchoSpacing": 0.000560011,
  "FlipAngle": 52,
  "HeudiconvVersion": "0.5.3.post569+g418601f",
  "ImageComments": "Unaliased MB4/PE3/LB",
  "ImageOrientationPatientDICOM": [0.99881, 0.0354022, 0.0335398, -0.0251082, 0.962908, -0.268659],
  "ImageOrientationText": "Tra>Cor(-15.5)>Sag(2.4)",
  "ImageType": [
    "ORIGINAL",
    "PRIMARY",
    "M",
    "MB",
    "ND",
    "MOSAIC"
],
  "ImagingFrequency": 123.259,
  "InPlanePhaseEncodingDirectionDICOM": "COL",
  "InstitutionAddress": "Chemin Queen-Mary 4565,Montreal,District,CA,H3W 1W5",
  "InstitutionName": "IUGM",
  "InstitutionalDepartmentName": "Department",
  "MRAcquisitionType": "2D",
  "MagneticFieldStrength": 3,
  "Manufacturer": "Siemens",
  "ManufacturersModelName": "Prisma_fit",
  "MatrixCoilMode": "SENSE",
  "Modality": "MR",
  "MultibandAccelerationFactor": 4,
  "PartialFourier": 1,
  "PatientPosition": "HFS",
  "PercentPhaseFOV": 100,
  "PercentSampling": 100,
  "PhaseEncodingDirection": "j",
  "PhaseEncodingSteps": 104,
  "PhaseResolution": 1,
  "PixelBandwidth": 2290,
  "ProcedureStepDescription": "games^mario",
  "ProtocolName": "func_task-mario_run-03",
  "PulseSequenceDetails": "%CustomerSeq%\\cmrr_mbep2d_bold",
  "ReceiveCoilActiveElements": "HC1-7;NC1,2",
  "ReceiveCoilName": "HeadNeck_64",
  "ReconMatrixPE": 104,
  "RepetitionTime": 1.49,
  "SAR": 0.0447881,
  "ScanOptions": "FS",
  "ScanningSequence": "EP",
  "SequenceName": "epfid2d1_104",
  "SequenceVariant": "SK\\SS",
  "SeriesDescription": "func_task-mario_run-03",
  "SeriesNumber": 16,
  "ShimSetting": [645, -7211, -8723, 702, 51, -2, 54, 3],
  "SliceThickness": 2,
  "SliceTiming": [0, 0.785, 0.1, 0.8825, 0.1975, 0.98, 0.295, 1.08, 0.3925, 1.1775, 0.49, 1.275, 0.59, 1.3725, 0.6875, 0, 0.785, 0.1, 0.8825, 0.1975, 0.98, 0.295, 1.08, 0.3925, 1.1775, 0.49, 1.275, 0.59, 1.3725, 0.6875, 0, 0.785, 0.1, 0.8825, 0.1975, 0.98, 0.295, 1.08, 0.3925, 1.1775, 0.49, 1.275, 0.59, 1.3725, 0.6875, 0, 0.785, 0.1, 0.8825, 0.1975, 0.98, 0.295, 1.08, 0.3925, 1.1775, 0.49, 1.275, 0.59, 1.3725, 0.6875],
  "SoftwareVersions": "syngo MR E11",
  "SpacingBetweenSlices": 2,
  "StationName": "MRC35049",
  "TaskName": "mario",
  "TotalReadoutTime": 0.0576811,
  "TxRefAmp": 227.33,
  "WipMemBlock": "54ab6c86-0507-46b1-9154-10bd58428e26||Sequence: R016 ve11c/master r/e634e98; Dec 19 2017 11:00:25 by eja",
  "dcmmeta_affine": [
    [-1.9976203441619873, -0.050216350704431534, 0.0836137905716896, 108.9431381225586],
    [-0.0708044096827507, 1.925816297531128, -0.5349938869476318, -69.0767593383789],
    [0.06707967817783356, 0.5373174548149109, 1.9253026247024536, -49.64554977416992],
    [0.0, 0.0, 0.0, 1.0]
],
  "dcmmeta_reorient_transform": [
    [0.0, -1.0, 0.0, 103.0],
    [1.0, 0.0, 0.0, 0.0],
    [0.0, 0.0, 1.0, 0.0],
    [0.0, 0.0, 0.0, 1.0]
],
  "dcmmeta_shape": [104, 104, 60, 451],
  "dcmmeta_slice_dim": 2,
  "dcmmeta_version": 0.6,
  "global": {
    "const": {
      "AcquisitionMatrix": [104, 0, 0, 104],
      "AngioFlag": "N",
      "BitsAllocated": 16,
      "BitsStored": 16,
      "BodyPartExamined": "BRAIN",
      "Columns": 832,
      "EchoNumbers": 1,
      "EchoTime": 37.0,
      "EchoTrainLength": 104,
      "FlipAngle": 52.0,
      "HighBit": 15,
      "ImageOrientationPatient": [0.99881017370511, 0.03540220582053, 0.03353983789768, -0.0251081755969, 0.96290812773266, -0.2686587371827],
      "ImagePositionPatient": [-812.62590487332, -856.05223966103, 176.86470896462],
      "ImageType": [
        "ORIGINAL",
        "PRIMARY",
        "M",
        "MB",
        "ND",
        "MOSAIC"
],
      "ImagedNucleus": "1H",
      "ImagingFrequency": 123.258814,
      "InPlanePhaseEncodingDirection": "COL",
      "MRAcquisitionType": "2D",
      "MagneticFieldStrength": 3.0,
      "Manufacturer": "SIEMENS",
      "ManufacturerModelName": "Prisma_fit",
      "Modality": "MR",
      "NumberOfAverages": 1.0,
      "NumberOfPhaseEncodingSteps": 104,
      "PercentPhaseFieldOfView": 100.0,
      "PercentSampling": 100.0,
      "PerformedProcedureStepStartTime": "130723.052000",
      "PhotometricInterpretation": "MONOCHROME2",
      "PixelBandwidth": 2290.0,
      "PixelRepresentation": 0,
      "PixelSpacing": [2.0, 2.0],
      "ProtocolName": "func_task-mario_run-03",
      "RepetitionTime": 1490.0,
      "Rows": 832,
      "SAR": 0.04478806343786,
      "SamplesPerPixel": 1,
      "ScanOptions": "FS",
      "ScanningSequence": "EP",
      "SequenceName": "epfid2d1_104",
      "SequenceVariant": [
        "SK",
        "SS"
],
      "SeriesDescription": "func_task-mario_run-03",
      "SeriesNumber": 16,
      "SeriesTime": "140708.470000",
      "SliceLocation": -24.758957324423,
      "SliceThickness": 2.0,
      "SmallestImagePixelValue": 0,
      "SoftwareVersions": "syngo MR E11",
      "SpacingBetweenSlices": 1.9999999683067,
      "SpecificCharacterSet": "ISO_IR 100",
      "StudyID": "1",
      "StudyTime": "130722.963000",
      "TransmitCoilName": "Body",
      "VariableFlipAngleFlag": "N",
      "WindowCenterWidthExplanation": "Algo1",
      "dBdt": 0.0},
    "slices": {}
  },
  "time": {
    "samples": {
      "AcquisitionNumber": [1, 2, 3, 4, 5, 6, 7, 8, 9, 10, 11, 12, 13, 14, 15, 16, 17, 18, 19, 20, 21, 22, 23, 24, 25, 26, 27, 28, 29, 30, 31, 32, 33, 34, 35, 36, 37, 38, 39, 40, 41, 42, 43, 44, 45, 46, 47, 48, 49, 50, 51, 52, 53, 54, 55, 56, 57, 58, 59, 60, 61, 62, 63, 64, 65, 66, 67, 68, 69, 70, 71, 72, 73, 74, 75, 76, 77, 78, 79, 80, 81, 82, 83, 84, 85, 86, 87, 88, 89, 90, 91, 92, 93, 94, 95, 96, 97, 98, 99, 100, 101, 102, 103, 104, 105, 106, 107, 108, 109, 110, 111, 112, 113, 114, 115, 116, 117, 118, 119, 120, 121, 122, 123, 124, 125, 126, 127, 128, 129, 130, 131, 132, 133, 134, 135, 136, 137, 138, 139, 140, 141, 142, 143, 144, 145, 146, 147, 148, 149, 150, 151, 152, 153, 154, 155, 156, 157, 158, 159, 160, 161, 162, 163, 164, 165, 166, 167, 168, 169, 170, 171, 172, 173, 174, 175, 176, 177, 178, 179, 180, 181, 182, 183, 184, 185, 186, 187, 188, 189, 190, 191, 192, 193, 194, 195, 196, 197, 198, 199, 200, 201, 202, 203, 204, 205, 206, 207, 208, 209, 210, 211, 212, 213, 214, 215, 216, 217, 218, 219, 220, 221, 222, 223, 224, 225, 226, 227, 228, 229, 230, 231, 232, 233, 234, 235, 236, 237, 238, 239, 240, 241, 242, 243, 244, 245, 246, 247, 248, 249, 250, 251, 252, 253, 254, 255, 256, 257, 258, 259, 260, 261, 262, 263, 264, 265, 266, 267, 268, 269, 270, 271, 272, 273, 274, 275, 276, 277, 278, 279, 280, 281, 282, 283, 284, 285, 286, 287, 288, 289, 290, 291, 292, 293, 294, 295, 296, 297, 298, 299, 300, 301, 302, 303, 304, 305, 306, 307, 308, 309, 310, 311, 312, 313, 314, 315, 316, 317, 318, 319, 320, 321, 322, 323, 324, 325, 326, 327, 328, 329, 330, 331, 332, 333, 334, 335, 336, 337, 338, 339, 340, 341, 342, 343, 344, 345, 346, 347, 348, 349, 350, 351, 352, 353, 354, 355, 356, 357, 358, 359, 360, 361, 362, 363, 364, 365, 366, 367, 368, 369, 370, 371, 372, 373, 374, 375, 376, 377, 378, 379, 380, 381, 382, 383, 384, 385, 386, 387, 388, 389, 390, 391, 392, 393, 394, 395, 396, 397, 398, 399, 400, 401, 402, 403, 404, 405, 406, 407, 408, 409, 410, 411, 412, 413, 414, 415, 416, 417, 418, 419, 420, 421, 422, 423, 424, 425, 426, 427, 428, 429, 430, 431, 432, 433, 434, 435, 436, 437, 438, 439, 440, 441, 442, 443, 444, 445, 446, 447, 448, 449, 450, 451],
      "AcquisitionTime": ["140604.390000", "140605.880000", "140607.370000", "140608.860000", "140610.350000", "140611.840000", "140613.330000", "140614.820000", "140616.310000", "140617.800000", "140619.290000", "140620.780000", "140622.270000", "140623.760000", "140625.250000", "140626.740000", "140628.230000", "140629.720000", "140631.210000", "140632.700000", "140634.190000", "140635.680000", "140637.170000", "140638.660000", "140640.150000", "140641.640000", "140643.130000", "140644.620000", "140646.110000", "140647.600000", "140649.090000", "140650.580000", "140652.070000", "140653.560000", "140655.050000", "140656.540000", "140658.030000", "140659.520000", "140701.010000", "140702.500000", "140703.990000", "140705.480000", "140706.970000", "140708.460000", "140709.950000", "140711.440000", "140712.930000", "140714.420000", "140715.910000", "140717.400000", "140718.890000", "140720.380000", "140721.870000", "140723.360000", "140724.850000", "140726.340000", "140727.830000", "140729.320000", "140730.810000", "140732.300000", "140733.790000", "140735.280000", "140736.770000", "140738.260000", "140739.750000", "140741.240000", "140742.730000", "140744.220000", "140745.710000", "140747.200000", "140748.690000", "140750.180000", "140751.670000", "140753.160000", "140754.650000", "140756.140000", "140757.630000", "140759.120000", "140800.610000", "140802.100000", "140803.590000", "140805.080000", "140806.570000", "140808.060000", "140809.550000", "140811.040000", "140812.530000", "140814.020000", "140815.510000", "140817.000000", "140818.490000", "140819.980000", "140821.470000", "140822.960000", "140824.450000", "140825.940000", "140827.430000", "140828.920000", "140830.410000", "140831.900000", "140833.390000", "140834.880000", "140836.370000", "140837.860000", "140839.350000", "140840.840000", "140842.330000", "140843.820000", "140845.310000", "140846.800000", "140848.290000", "140849.780000", "140851.270000", "140852.760000", "140854.250000", "140855.740000", "140857.230000", "140858.720000", "140900.210000", "140901.700000", "140903.190000", "140904.680000", "140906.170000", "140907.660000", "140909.150000", "140910.640000", "140912.130000", "140913.620000", "140915.110000", "140916.600000", "140918.090000", "140919.580000", "140921.070000", "140922.560000", "140924.050000", "140925.540000", "140927.030000", "140928.520000", "140930.010000", "140931.500000", "140932.990000", "140934.480000", "140935.970000", "140937.460000", "140938.950000", "140940.440000", "140941.930000", "140943.420000", "140944.910000", "140946.400000", "140947.890000", "140949.380000", "140950.870000", "140952.360000", "140953.850000", "140955.340000", "140956.830000", "140958.320000", "140959.810000", "141001.300000", "141002.790000", "141004.280000", "141005.770000", "141007.260000", "141008.750000", "141010.240000", "141011.730000", "141013.220000", "141014.710000", "141016.200000", "141017.690000", "141019.180000", "141020.670000", "141022.160000", "141023.650000", "141025.140000", "141026.630000", "141028.120000", "141029.610000", "141031.100000", "141032.590000", "141034.080000", "141035.570000", "141037.060000", "141038.550000", "141040.040000", "141041.530000", "141043.020000", "141044.510000", "141046.000000", "141047.490000", "141048.980000", "141050.470000", "141051.960000", "141053.450000", "141054.940000", "141056.430000", "141057.920000", "141059.410000", "141100.900000", "141102.390000", "141103.880000", "141105.370000", "141106.860000", "141108.350000", "141109.840000", "141111.330000", "141112.820000", "141114.310000", "141115.800000", "141117.290000", "141118.780000", "141120.270000", "141121.760000", "141123.250000", "141124.740000", "141126.230000", "141127.720000", "141129.210000", "141130.700000", "141132.190000", "141133.680000", "141135.170000", "141136.660000", "141138.150000", "141139.640000", "141141.130000", "141142.620000", "141144.110000", "141145.600000", "141147.090000", "141148.580000", "141150.070000", "141151.560000", "141153.050000", "141154.540000", "141156.030000", "141157.520000", "141159.010000", "141200.500000", "141201.990000", "141203.480000", "141204.970000", "141206.460000", "141207.950000", "141209.440000", "141210.930000", "141212.420000", "141213.910000", "141215.400000", "141216.890000", "141218.380000", "141219.870000", "141221.360000", "141222.850000", "141224.340000", "141225.830000", "141227.320000", "141228.810000", "141230.300000", "141231.790000", "141233.280000", "141234.770000", "141236.260000", "141237.750000", "141239.240000", "141240.730000", "141242.220000", "141243.710000", "141245.200000", "141246.690000", "141248.180000", "141249.670000", "141251.160000", "141252.650000", "141254.140000", "141255.630000", "141257.120000", "141258.610000", "141300.100000", "141301.590000", "141303.080000", "141304.570000", "141306.060000", "141307.550000", "141309.040000", "141310.530000", "141312.020000", "141313.510000", "141315.000000", "141316.490000", "141317.980000", "141319.470000", "141320.960000", "141322.450000", "141323.940000", "141325.430000", "141326.920000", "141328.410000", "141329.900000", "141331.390000", "141332.880000", "141334.370000", "141335.860000", "141337.350000", "141338.840000", "141340.330000", "141341.820000", "141343.310000", "141344.800000", "141346.290000", "141347.780000", "141349.270000", "141350.760000", "141352.250000", "141353.740000", "141355.230000", "141356.720000", "141358.210000", "141359.700000", "141401.190000", "141402.680000", "141404.170000", "141405.660000", "141407.150000", "141408.640000", "141410.130000", "141411.620000", "141413.110000", "141414.600000", "141416.090000", "141417.580000", "141419.070000", "141420.560000", "141422.050000", "141423.540000", "141425.030000", "141426.520000", "141428.010000", "141429.500000", "141430.990000", "141432.480000", "141433.970000", "141435.460000", "141436.950000", "141438.440000", "141439.930000", "141441.420000", "141442.910000", "141444.400000", "141445.890000", "141447.380000", "141448.870000", "141450.360000", "141451.850000", "141453.340000", "141454.830000", "141456.320000", "141457.810000", "141459.300000", "141500.790000", "141502.280000", "141503.770000", "141505.260000", "141506.750000", "141508.240000", "141509.730000", "141511.220000", "141512.710000", "141514.200000", "141515.690000", "141517.180000", "141518.670000", "141520.160000", "141521.650000", "141523.140000", "141524.630000", "141526.120000", "141527.610000", "141529.100000", "141530.590000", "141532.080000", "141533.570000", "141535.060000", "141536.550000", "141538.040000", "141539.530000", "141541.020000", "141542.510000", "141544.000000", "141545.490000", "141546.980000", "141548.470000", "141549.960000", "141551.450000", "141552.940000", "141554.430000", "141555.920000", "141557.410000", "141558.900000", "141600.390000", "141601.880000", "141603.370000", "141604.860000", "141606.350000", "141607.840000", "141609.330000", "141610.820000", "141612.310000", "141613.800000", "141615.290000", "141616.780000", "141618.270000", "141619.760000", "141621.250000", "141622.740000", "141624.230000", "141625.720000", "141627.210000", "141628.700000", "141630.190000", "141631.680000", "141633.170000", "141634.660000", "141636.150000", "141637.640000", "141639.130000", "141640.620000", "141642.110000", "141643.600000", "141645.090000", "141646.580000", "141648.070000", "141649.560000", "141651.050000", "141652.540000", "141654.030000", "141655.520000", "141657.010000", "141658.500000", "141659.990000", "141701.480000", "141702.970000", "141704.460000", "141705.950000", "141707.440000", "141708.930000", "141710.420000", "141711.910000", "141713.400000", "141714.890000"],
      "ContentTime": ["140708.473000", "140708.477000", "140708.480000", "140708.483000", "140708.487000", "140708.494000", "140708.497000", "140708.501000", "140708.504000", "140708.507000", "140708.511000", "140728.433000", "140728.437000", "140728.440000", "140728.444000", "140728.447000", "140728.450000", "140728.453000", "140728.457000", "140728.460000", "140728.463000", "140728.467000", "140728.470000", "140728.473000", "140728.476000", "140728.480000", "140728.483000", "140728.487000", "140728.490000", "140728.493000", "140728.496000", "140748.433000", "140748.437000", "140748.440000", "140748.443000", "140748.447000", "140748.450000", "140748.453000", "140748.457000", "140748.460000", "140748.463000", "140748.466000", "140748.470000", "140748.473000", "140748.476000", "140748.480000", "140748.483000", "140748.486000", "140748.490000", "140748.493000", "140748.503000", "140748.506000", "140808.433000", "140808.437000", "140808.440000", "140808.443000", "140808.447000", "140808.450000", "140808.454000", "140808.457000", "140808.460000", "140808.464000", "140808.467000", "140808.470000", "140808.473000", "140808.485000", "140808.488000", "140808.492000", "140808.495000", "140808.498000", "140808.502000", "140808.505000", "140828.433000", "140828.437000", "140828.440000", "140828.443000", "140828.447000", "140828.450000", "140828.454000", "140828.457000", "140828.460000", "140828.464000", "140828.467000", "140828.470000", "140828.473000", "140828.477000", "140828.480000", "140828.483000", "140828.487000", "140828.490000", "140828.493000", "140828.496000", "140908.432000", "140908.436000", "140908.439000", "140908.443000", "140908.446000", "140908.449000", "140908.459000", "140908.463000", "140908.466000", "140908.469000", "140908.473000", "140908.476000", "140908.479000", "140908.483000", "140908.486000", "140908.489000", "140908.492000", "140908.496000", "140908.499000", "140908.502000", "140908.506000", "140908.509000", "140908.512000", "140908.516000", "140908.519000", "140908.523000", "140908.526000", "140908.529000", "140908.532000", "140908.536000", "140908.539000", "140948.433000", "140948.437000", "140948.440000", "140948.444000", "140948.447000", "140948.450000", "140948.454000", "140948.457000", "140948.460000", "140948.464000", "140948.467000", "140948.471000", "140948.474000", "140948.477000", "140948.481000", "140948.484000", "140948.487000", "140948.490000", "140948.494000", "140948.497000", "140948.501000", "140948.504000", "140948.507000", "140948.511000", "140948.514000", "140948.517000", "141028.433000", "141028.437000", "141028.440000", "141028.444000", "141028.447000", "141028.450000", "141028.454000", "141028.457000", "141028.460000", "141028.464000", "141028.467000", "141028.470000", "141028.474000", "141028.477000", "141028.480000", "141028.492000", "141028.495000", "141028.499000", "141028.502000", "141028.505000", "141028.509000", "141028.528000", "141028.531000", "141028.535000", "141028.538000", "141028.541000", "141028.545000", "141108.433000", "141108.437000", "141108.440000", "141108.444000", "141108.447000", "141108.451000", "141108.454000", "141108.457000", "141108.461000", "141108.464000", "141108.467000", "141108.475000", "141108.478000", "141108.482000", "141108.485000", "141108.488000", "141108.491000", "141108.495000", "141108.498000", "141108.501000", "141108.505000", "141108.508000", "141108.511000", "141108.515000", "141108.518000", "141108.521000", "141108.525000", "141148.433000", "141148.437000", "141148.440000", "141148.443000", "141148.447000", "141148.450000", "141148.454000", "141148.457000", "141148.460000", "141148.463000", "141148.467000", "141148.470000", "141148.473000", "141148.477000", "141148.480000", "141148.483000", "141148.487000", "141148.490000", "141148.493000", "141148.496000", "141148.500000", "141148.503000", "141148.506000", "141148.510000", "141148.513000", "141148.516000", "141148.519000", "141228.433000", "141228.437000", "141228.440000", "141228.444000", "141228.447000", "141228.450000", "141228.453000", "141228.457000", "141228.460000", "141228.463000", "141228.467000", "141228.470000", "141228.473000", "141228.477000", "141228.480000", "141228.483000", "141228.487000", "141228.490000", "141228.493000", "141228.497000", "141228.500000", "141228.503000", "141228.506000", "141228.510000", "141228.513000", "141228.516000", "141228.520000", "141308.433000", "141308.437000", "141308.446000", "141308.449000", "141308.453000", "141308.456000", "141308.459000", "141308.463000", "141308.466000", "141308.469000", "141308.473000", "141308.476000", "141308.479000", "141308.483000", "141308.486000", "141308.489000", "141308.493000", "141308.496000", "141308.499000", "141308.503000", "141308.506000", "141308.509000", "141308.513000", "141308.516000", "141308.519000", "141308.522000", "141308.526000", "141348.434000", "141348.446000", "141348.450000", "141348.453000", "141348.457000", "141348.460000", "141348.464000", "141348.467000", "141348.471000", "141348.474000", "141348.478000", "141348.481000", "141348.484000", "141348.488000", "141348.491000", "141348.494000", "141348.498000", "141348.501000", "141348.504000", "141348.508000", "141348.511000", "141348.514000", "141348.518000", "141348.521000", "141348.524000", "141348.528000", "141428.433000", "141428.437000", "141428.441000", "141428.444000", "141428.448000", "141428.451000", "141428.454000", "141428.458000", "141428.462000", "141428.465000", "141428.469000", "141428.472000", "141428.476000", "141428.479000", "141428.482000", "141428.486000", "141428.489000", "141428.493000", "141428.496000", "141428.500000", "141428.503000", "141428.507000", "141428.510000", "141428.513000", "141428.517000", "141428.521000", "141428.525000", "141508.434000", "141508.437000", "141508.441000", "141508.444000", "141508.447000", "141508.451000", "141508.454000", "141508.469000", "141508.472000", "141508.476000", "141508.479000", "141508.483000", "141508.486000", "141508.489000", "141508.493000", "141508.517000", "141508.520000", "141508.523000", "141508.527000", "141508.530000", "141508.534000", "141508.537000", "141508.540000", "141508.544000", "141508.547000", "141508.550000", "141508.554000", "141548.433000", "141548.437000", "141548.440000", "141548.444000", "141548.447000", "141548.451000", "141548.454000", "141548.457000", "141548.461000", "141548.464000", "141548.467000", "141548.471000", "141548.474000", "141548.477000", "141548.481000", "141548.484000", "141548.488000", "141548.491000", "141548.494000", "141548.497000", "141548.501000", "141548.504000", "141548.507000", "141548.511000", "141548.514000", "141548.518000", "141548.521000", "141628.433000", "141628.437000", "141628.440000", "141628.444000", "141628.447000", "141628.451000", "141628.454000", "141628.457000", "141628.461000", "141628.464000", "141628.467000", "141628.471000", "141628.474000", "141628.477000", "141628.481000", "141628.484000", "141628.487000", "141628.491000", "141628.494000", "141628.498000", "141628.501000", "141628.504000", "141628.508000", "141628.519000", "141628.523000", "141628.526000", "141628.530000", "141708.433000", "141708.437000", "141708.440000", "141708.444000", "141708.447000", "141708.451000", "141708.454000", "141708.457000", "141708.461000", "141708.464000", "141708.467000", "141708.471000", "141708.474000", "141708.478000", "141708.481000", "141708.484000", "141708.488000", "141708.491000", "141708.494000", "141708.498000", "141708.501000", "141708.505000", "141708.508000", "141708.511000", "141708.515000", "141708.518000", "141708.521000", "141718.125000", "141718.129000", "141718.132000", "141718.136000", "141718.139000", "141718.143000"],
