{
  "AcquisitionMatrixPE": 104,
  "AcquisitionNumber": 1,
  "AcquisitionTime": "14:26:51.815000",
  "BandwidthPerPixelPhaseEncode": 17.17,
  "BaseResolution": 104,
  "BodyPartExamined": "BRAIN",
  "CoilString": "HC1-7;NC1_2",
  "ConsistencyInfo": "N4_VE11C_LATEST_20160120",
  "ConversionSoftware": "dcm2niix",
  "ConversionSoftwareVersion": "v1.0.20190902",
  "DerivedVendorReportedEchoSpacing": 0.000560011,
  "DeviceSerialNumber": "167006",
  "DwellTime": 2.1e-06,
  "EchoTime": 0.037,
  "EchoTrainLength": 104,
  "EffectiveEchoSpacing": 0.000560011,
  "FlipAngle": 52,
  "HeudiconvVersion": "0.10.0",
  "ImageComments": "Unaliased_MB4_PE3_LB",
  "ImageOrientationPatientDICOM": [0.999593, -0.00272334, 0.0284142, 0.0160518, 0.87676, -0.48066],
  "ImageType": [
    "ORIGINAL",
    "PRIMARY",
    "M",
    "MB",
    "ND",
    "MOSAIC"
],
  "ImagingFrequency": 123.259,
  "InPlanePhaseEncodingDirectionDICOM": "COL",
  "InstitutionAddress": "Chemin_Queen-Mary_4565_Montreal_District_CA_H3W_1W5",
  "InstitutionName": "IUGM",
  "InstitutionalDepartmentName": "Department",
  "MRAcquisitionType": "2D",
  "MagneticFieldStrength": 3,
  "Manufacturer": "Siemens",
  "ManufacturersModelName": "Prisma_fit",
  "Modality": "MR",
  "MultibandAccelerationFactor": 4,
  "PartialFourier": 1,
  "PatientPosition": "HFS",
  "PercentPhaseFOV": 100,
  "PhaseEncodingDirection": "j",
  "PhaseEncodingSteps": 104,
  "PhaseResolution": 1,
  "PixelBandwidth": 2290,
  "ProcedureStepDescription": "games_mario",
  "ProtocolName": "func_task-mario_run-03",
  "PulseSequenceDetails": "%CustomerSeq%_cmrr_mbep2d_bold",
  "ReceiveCoilActiveElements": "HC1-7;NC1,2",
  "ReceiveCoilName": "HeadNeck_64",
  "ReconMatrixPE": 104,
  "RepetitionTime": 1.49,
  "SAR": 0.0613944,
  "ScanOptions": "FS",
  "ScanningSequence": "EP",
  "SequenceName": "epfid2d1_104",
  "SequenceVariant": "SK_SS",
  "SeriesDescription": "func_task-mario_run-03",
  "SeriesNumber": 16,
  "ShimSetting": [623, -7189, -8845, 379, -13, -106, -68, -21],
  "SliceThickness": 2,
  "SliceTiming": [0, 0.785, 0.0975, 0.8825, 0.195, 0.98, 0.295, 1.0775, 0.3925, 1.175, 0.49, 1.275, 0.5875, 1.3725, 0.685, 0, 0.785, 0.0975, 0.8825, 0.195, 0.98, 0.295, 1.0775, 0.3925, 1.175, 0.49, 1.275, 0.5875, 1.3725, 0.685, 0, 0.785, 0.0975, 0.8825, 0.195, 0.98, 0.295, 1.0775, 0.3925, 1.175, 0.49, 1.275, 0.5875, 1.3725, 0.685, 0, 0.785, 0.0975, 0.8825, 0.195, 0.98, 0.295, 1.0775, 0.3925, 1.175, 0.49, 1.275, 0.5875, 1.3725, 0.685],
  "SoftwareVersions": "syngo_MR_E11",
  "SpacingBetweenSlices": 2,
  "StationName": "MRC35049",
  "TaskName": "mario",
  "TotalReadoutTime": 0.0576811,
  "TxRefAmp": 309.669,
  "WipMemBlock": "6c4ccbf6-a2b9-4b9e-99ca-de89b121e7ac||Sequence: R016 ve11c/master r/e634e98; Dec 19 2017 11:00:25 by eja",
  "dcmmeta_affine": [
    [-1.9991850852966309, 0.03210364282131195, 0.04720689728856087, 104.8277359008789],
    [0.005446689203381538, 1.7535207271575928, -0.9618396162986755, -61.038516998291016],
    [0.05682840943336487, 0.961319088935852, 1.7528936862945557, -90.69271087646484],
    [0.0, 0.0, 0.0, 1.0]
],
  "dcmmeta_reorient_transform": [
    [0.0, -1.0, 0.0, 103.0],
    [1.0, 0.0, 0.0, 0.0],
    [0.0, 0.0, 1.0, 0.0],
    [0.0, 0.0, 0.0, 1.0]
],
  "dcmmeta_shape": [104, 104, 60, 446],
  "dcmmeta_slice_dim": 2,
  "dcmmeta_version": 0.6,
  "global": {
    "const": {
      "AcquisitionMatrix": [104, 0, 0, 104],
      "AngioFlag": "N",
      "BitsAllocated": 16,
      "BitsStored": 16,
      "BodyPartExamined": "BRAIN",
      "Columns": 832,
      "EchoNumbers": 1,
      "EchoTime": 37.0,
      "EchoTrainLength": 104,
      "FlipAngle": 52.0,
      "HighBit": 15,
      "ImageOrientationPatient": [0.99959252514611, -0.0027233447026, 0.02841420534969, 0.01605182073886, 0.87676036051776, -0.4806595565218],
      "ImagePositionPatient": [-847.52349247429, -755.87306588076, 337.55777069449],
      "ImageType": [
        "ORIGINAL",
        "PRIMARY",
        "M",
        "MB",
        "ND",
        "MOSAIC"
],
      "ImagedNucleus": "1H",
      "ImagingFrequency": 123.258952,
      "InPlanePhaseEncodingDirection": "COL",
      "MRAcquisitionType": "2D",
      "MagneticFieldStrength": 3.0,
      "Manufacturer": "SIEMENS",
      "ManufacturerModelName": "Prisma_fit",
      "Modality": "MR",
      "NumberOfAverages": 1.0,
      "NumberOfPhaseEncodingSteps": 104,
      "PercentPhaseFieldOfView": 100.0,
      "PercentSampling": 100.0,
      "PerformedProcedureStepStartTime": "133557.811000",
      "PhotometricInterpretation": "MONOCHROME2",
      "PixelBandwidth": 2290.0,
      "PixelRepresentation": 0,
      "PixelSpacing": [2.0, 2.0],
      "ProtocolName": "func_task-mario_run-03",
      "RepetitionTime": 1490.0,
      "Rows": 832,
      "SAR": 0.06139440638753,
      "SamplesPerPixel": 1,
      "ScanOptions": "FS",
      "ScanningSequence": "EP",
      "SequenceName": "epfid2d1_104",
      "SequenceVariant": [
        "SK",
        "SS"
],
      "SeriesDescription": "func_task-mario_run-03",
      "SeriesNumber": 16,
      "SeriesTime": "142753.928000",
      "SliceLocation": -47.658413479697,
      "SliceThickness": 2.0,
      "SmallestImagePixelValue": 0,
      "SoftwareVersions": "syngo MR E11",
      "SpacingBetweenSlices": 2.0000000404086,
      "SpecificCharacterSet": "ISO_IR 100",
      "StudyID": "1",
      "StudyTime": "133557.725000",
      "TransmitCoilName": "Body",
      "VariableFlipAngleFlag": "N",
      "WindowCenterWidthExplanation": "Algo1",
      "dBdt": 0.0},
    "slices": {}
  },
  "time": {
    "samples": {
      "AcquisitionNumber": [1, 2, 3, 4, 5, 6, 7, 8, 9, 10, 11, 12, 13, 14, 15, 16, 17, 18, 19, 20, 21, 22, 23, 24, 25, 26, 27, 28, 29, 30, 31, 32, 33, 34, 35, 36, 37, 38, 39, 40, 41, 42, 43, 44, 45, 46, 47, 48, 49, 50, 51, 52, 53, 54, 55, 56, 57, 58, 59, 60, 61, 62, 63, 64, 65, 66, 67, 68, 69, 70, 71, 72, 73, 74, 75, 76, 77, 78, 79, 80, 81, 82, 83, 84, 85, 86, 87, 88, 89, 90, 91, 92, 93, 94, 95, 96, 97, 98, 99, 100, 101, 102, 103, 104, 105, 106, 107, 108, 109, 110, 111, 112, 113, 114, 115, 116, 117, 118, 119, 120, 121, 122, 123, 124, 125, 126, 127, 128, 129, 130, 131, 132, 133, 134, 135, 136, 137, 138, 139, 140, 141, 142, 143, 144, 145, 146, 147, 148, 149, 150, 151, 152, 153, 154, 155, 156, 157, 158, 159, 160, 161, 162, 163, 164, 165, 166, 167, 168, 169, 170, 171, 172, 173, 174, 175, 176, 177, 178, 179, 180, 181, 182, 183, 184, 185, 186, 187, 188, 189, 190, 191, 192, 193, 194, 195, 196, 197, 198, 199, 200, 201, 202, 203, 204, 205, 206, 207, 208, 209, 210, 211, 212, 213, 214, 215, 216, 217, 218, 219, 220, 221, 222, 223, 224, 225, 226, 227, 228, 229, 230, 231, 232, 233, 234, 235, 236, 237, 238, 239, 240, 241, 242, 243, 244, 245, 246, 247, 248, 249, 250, 251, 252, 253, 254, 255, 256, 257, 258, 259, 260, 261, 262, 263, 264, 265, 266, 267, 268, 269, 270, 271, 272, 273, 274, 275, 276, 277, 278, 279, 280, 281, 282, 283, 284, 285, 286, 287, 288, 289, 290, 291, 292, 293, 294, 295, 296, 297, 298, 299, 300, 301, 302, 303, 304, 305, 306, 307, 308, 309, 310, 311, 312, 313, 314, 315, 316, 317, 318, 319, 320, 321, 322, 323, 324, 325, 326, 327, 328, 329, 330, 331, 332, 333, 334, 335, 336, 337, 338, 339, 340, 341, 342, 343, 344, 345, 346, 347, 348, 349, 350, 351, 352, 353, 354, 355, 356, 357, 358, 359, 360, 361, 362, 363, 364, 365, 366, 367, 368, 369, 370, 371, 372, 373, 374, 375, 376, 377, 378, 379, 380, 381, 382, 383, 384, 385, 386, 387, 388, 389, 390, 391, 392, 393, 394, 395, 396, 397, 398, 399, 400, 401, 402, 403, 404, 405, 406, 407, 408, 409, 410, 411, 412, 413, 414, 415, 416, 417, 418, 419, 420, 421, 422, 423, 424, 425, 426, 427, 428, 429, 430, 431, 432, 433, 434, 435, 436, 437, 438, 439, 440, 441, 442, 443, 444, 445, 446],
      "AcquisitionTime": ["142651.815000", "142653.305000", "142654.795000", "142656.285000", "142657.775000", "142659.265000", "142700.755000", "142702.245000", "142703.735000", "142705.225000", "142706.715000", "142708.205000", "142709.695000", "142711.185000", "142712.675000", "142714.165000", "142715.655000", "142717.145000", "142718.635000", "142720.125000", "142721.615000", "142723.105000", "142724.595000", "142726.085000", "142727.575000", "142729.065000", "142730.555000", "142732.045000", "142733.535000", "142735.025000", "142736.515000", "142738.005000", "142739.495000", "142740.985000", "142742.475000", "142743.965000", "142745.455000", "142746.945000", "142748.435000", "142749.925000", "142751.415000", "142752.905000", "142754.395000", "142755.885000", "142757.375000", "142758.865000", "142800.355000", "142801.845000", "142803.335000", "142804.825000", "142806.315000", "142807.805000", "142809.295000", "142810.785000", "142812.275000", "142813.765000", "142815.255000", "142816.745000", "142818.235000", "142819.725000", "142821.215000", "142822.705000", "142824.195000", "142825.685000", "142827.175000", "142828.665000", "142830.155000", "142831.645000", "142833.135000", "142834.625000", "142836.115000", "142837.605000", "142839.095000", "142840.585000", "142842.075000", "142843.565000", "142845.055000", "142846.545000", "142848.035000", "142849.525000", "142851.015000", "142852.505000", "142853.995000", "142855.485000", "142856.975000", "142858.465000", "142859.955000", "142901.445000", "142902.935000", "142904.425000", "142905.915000", "142907.405000", "142908.895000", "142910.385000", "142911.875000", "142913.365000", "142914.855000", "142916.345000", "142917.835000", "142919.325000", "142920.815000", "142922.305000", "142923.795000", "142925.285000", "142926.775000", "142928.265000", "142929.755000", "142931.245000", "142932.735000", "142934.225000", "142935.715000", "142937.205000", "142938.695000", "142940.185000", "142941.675000", "142943.165000", "142944.655000", "142946.145000", "142947.635000", "142949.125000", "142950.615000", "142952.105000", "142953.595000", "142955.085000", "142956.575000", "142958.065000", "142959.555000", "143001.045000", "143002.535000", "143004.025000", "143005.515000", "143007.005000", "143008.495000", "143009.985000", "143011.475000", "143012.965000", "143014.455000", "143015.945000", "143017.435000", "143018.925000", "143020.415000", "143021.905000", "143023.395000", "143024.885000", "143026.375000", "143027.865000", "143029.355000", "143030.845000", "143032.335000", "143033.825000", "143035.315000", "143036.805000", "143038.295000", "143039.785000", "143041.275000", "143042.765000", "143044.255000", "143045.745000", "143047.235000", "143048.725000", "143050.215000", "143051.705000", "143053.195000", "143054.685000", "143056.175000", "143057.665000", "143059.155000", "143100.645000", "143102.135000", "143103.625000", "143105.115000", "143106.605000", "143108.095000", "143109.585000", "143111.075000", "143112.565000", "143114.055000", "143115.545000", "143117.035000", "143118.525000", "143120.015000", "143121.505000", "143122.995000", "143124.485000", "143125.975000", "143127.465000", "143128.955000", "143130.445000", "143131.935000", "143133.425000", "143134.915000", "143136.405000", "143137.895000", "143139.385000", "143140.875000", "143142.365000", "143143.855000", "143145.345000", "143146.835000", "143148.325000", "143149.815000", "143151.305000", "143152.795000", "143154.285000", "143155.775000", "143157.265000", "143158.755000", "143200.245000", "143201.735000", "143203.225000", "143204.715000", "143206.205000", "143207.695000", "143209.185000", "143210.675000", "143212.165000", "143213.655000", "143215.145000", "143216.635000", "143218.125000", "143219.615000", "143221.105000", "143222.595000", "143224.085000", "143225.575000", "143227.065000", "143228.555000", "143230.045000", "143231.535000", "143233.025000", "143234.515000", "143236.005000", "143237.495000", "143238.985000", "143240.475000", "143241.965000", "143243.455000", "143244.945000", "143246.435000", "143247.925000", "143249.415000", "143250.905000", "143252.395000", "143253.885000", "143255.375000", "143256.865000", "143258.355000", "143259.845000", "143301.335000", "143302.825000", "143304.315000", "143305.805000", "143307.295000", "143308.785000", "143310.275000", "143311.765000", "143313.255000", "143314.745000", "143316.235000", "143317.725000", "143319.215000", "143320.705000", "143322.195000", "143323.685000", "143325.175000", "143326.665000", "143328.155000", "143329.645000", "143331.135000", "143332.625000", "143334.115000", "143335.605000", "143337.095000", "143338.585000", "143340.075000", "143341.565000", "143343.055000", "143344.545000", "143346.035000", "143347.525000", "143349.015000", "143350.505000", "143351.995000", "143353.485000", "143354.975000", "143356.465000", "143357.955000", "143359.445000", "143400.935000", "143402.425000", "143403.915000", "143405.405000", "143406.895000", "143408.385000", "143409.875000", "143411.365000", "143412.855000", "143414.345000", "143415.835000", "143417.325000", "143418.815000", "143420.305000", "143421.795000", "143423.285000", "143424.775000", "143426.265000", "143427.755000", "143429.245000", "143430.735000", "143432.225000", "143433.715000", "143435.205000", "143436.695000", "143438.185000", "143439.675000", "143441.165000", "143442.655000", "143444.145000", "143445.635000", "143447.125000", "143448.615000", "143450.105000", "143451.595000", "143453.085000", "143454.575000", "143456.065000", "143457.555000", "143459.045000", "143500.535000", "143502.025000", "143503.515000", "143505.005000", "143506.495000", "143507.985000", "143509.475000", "143510.965000", "143512.455000", "143513.945000", "143515.435000", "143516.925000", "143518.415000", "143519.905000", "143521.395000", "143522.885000", "143524.375000", "143525.865000", "143527.355000", "143528.845000", "143530.335000", "143531.825000", "143533.315000", "143534.805000", "143536.295000", "143537.785000", "143539.275000", "143540.765000", "143542.255000", "143543.745000", "143545.235000", "143546.725000", "143548.215000", "143549.705000", "143551.195000", "143552.685000", "143554.175000", "143555.665000", "143557.155000", "143558.645000", "143600.135000", "143601.625000", "143603.115000", "143604.605000", "143606.095000", "143607.585000", "143609.075000", "143610.565000", "143612.055000", "143613.545000", "143615.035000", "143616.525000", "143618.015000", "143619.505000", "143620.995000", "143622.485000", "143623.975000", "143625.465000", "143626.955000", "143628.445000", "143629.935000", "143631.425000", "143632.915000", "143634.405000", "143635.895000", "143637.385000", "143638.875000", "143640.365000", "143641.855000", "143643.345000", "143644.835000", "143646.325000", "143647.815000", "143649.305000", "143650.795000", "143652.285000", "143653.775000", "143655.265000", "143656.755000", "143658.245000", "143659.735000", "143701.225000", "143702.715000", "143704.205000", "143705.695000", "143707.185000", "143708.675000", "143710.165000", "143711.655000", "143713.145000", "143714.635000", "143716.125000", "143717.615000", "143719.105000", "143720.595000", "143722.085000", "143723.575000", "143725.065000", "143726.555000", "143728.045000", "143729.535000", "143731.025000", "143732.515000", "143734.005000", "143735.495000", "143736.985000", "143738.475000", "143739.965000", "143741.455000", "143742.945000", "143744.435000", "143745.925000", "143747.415000", "143748.905000", "143750.395000", "143751.885000", "143753.375000", "143754.865000"],
      "ContentTime": ["142753.931000", "142753.935000", "142753.938000", "142753.941000", "142753.944000", "142753.948000", "142753.951000", "142753.954000", "142813.880000", "142813.884000", "142813.887000", "142813.891000", "142813.894000", "142813.905000", "142813.908000", "142813.911000", "142813.915000", "142813.918000", "142813.921000", "142813.925000", "142813.928000", "142813.931000", "142813.935000", "142813.938000", "142813.941000", "142813.944000", "142813.948000", "142813.951000", "142833.880000", "142833.884000", "142833.887000", "142833.890000", "142833.893000", "142833.897000", "142833.900000", "142833.903000", "142833.907000", "142833.910000", "142833.913000", "142833.917000", "142833.920000", "142833.923000", "142833.927000", "142833.930000", "142833.933000", "142833.937000", "142833.940000", "142833.943000", "142853.880000", "142853.884000", "142853.887000", "142853.890000", "142853.894000", "142853.897000", "142853.900000", "142853.903000", "142853.907000", "142853.910000", "142853.914000", "142853.917000", "142853.920000", "142853.923000", "142853.927000", "142853.930000", "142853.933000", "142853.937000", "142853.940000", "142853.943000", "142913.880000", "142913.884000", "142913.887000", "142913.891000", "142913.894000", "142913.897000", "142913.900000", "142913.904000", "142913.907000", "142913.910000", "142913.914000", "142913.920000", "142913.924000", "142913.929000", "142913.932000", "142913.936000", "142913.939000", "142913.943000", "142913.948000", "142913.951000", "142933.879000", "142933.883000", "142933.886000", "142933.889000", "142933.893000", "142933.896000", "142933.899000", "142933.903000", "142933.906000", "142933.929000", "142933.933000", "142933.936000", "142933.939000", "142933.942000", "142933.946000", "142933.949000", "142933.952000", "142933.956000", "142933.959000", "142933.962000", "143013.880000", "143013.884000", "143013.887000", "143013.891000", "143013.894000", "143013.897000", "143013.900000", "143013.904000", "143013.916000", "143013.920000", "143013.923000", "143013.927000", "143013.930000", "143013.933000", "143013.937000", "143013.940000", "143013.943000", "143013.947000", "143013.950000", "143013.953000", "143013.957000", "143013.960000", "143013.963000", "143013.966000", "143013.970000", "143013.973000", "143053.880000", "143053.884000", "143053.887000", "143053.891000", "143053.894000", "143053.897000", "143053.901000", "143053.904000", "143053.907000", "143053.911000", "143053.914000", "143053.917000", "143053.920000", "143053.924000", "143053.927000", "143053.930000", "143053.934000", "143053.937000", "143053.940000", "143053.944000", "143053.947000", "143053.950000", "143053.953000", "143053.957000", "143053.960000", "143053.964000", "143053.967000", "143133.880000", "143133.884000", "143133.887000", "143133.891000", "143133.895000", "143133.898000", "143133.901000", "143133.905000", "143133.908000", "143133.911000", "143133.915000", "143133.918000", "143133.921000", "143133.925000", "143133.928000", "143133.931000", "143133.935000", "143133.938000", "143133.941000", "143133.945000", "143133.948000", "143133.951000", "143133.955000", "143133.958000", "143133.961000", "143133.965000", "143133.968000", "143213.880000", "143213.884000", "143213.887000", "143213.891000", "143213.894000", "143213.897000", "143213.901000", "143213.917000", "143213.920000", "143213.924000", "143213.927000", "143213.930000", "143213.934000", "143213.937000", "143213.940000", "143213.944000", "143213.947000", "143213.950000", "143213.954000", "143213.957000", "143213.960000", "143213.964000", "143213.967000", "143213.970000", "143213.973000", "143213.977000", "143213.980000", "143253.880000", "143253.884000", "143253.887000", "143253.891000", "143253.894000", "143253.897000", "143253.901000", "143253.904000", "143253.907000", "143253.911000", "143253.914000", "143253.917000", "143253.921000", "143253.924000", "143253.927000", "143253.931000", "143253.934000", "143253.937000", "143253.940000", "143253.944000", "143253.947000", "143253.951000", "143253.954000", "143253.957000", "143253.960000", "143253.964000", "143253.967000", "143333.880000", "143333.884000", "143333.887000", "143333.891000", "143333.894000", "143333.897000", "143333.901000", "143333.904000", "143333.907000", "143333.911000", "143333.914000", "143333.917000", "143333.921000", "143333.924000", "143333.928000", "143333.931000", "143333.934000", "143333.938000", "143333.941000", "143333.944000", "143333.947000", "143333.951000", "143333.954000", "143333.957000", "143333.961000", "143333.964000", "143333.967000", "143413.881000", "143413.886000", "143413.889000", "143413.893000", "143413.897000", "143413.901000", "143413.905000", "143413.908000", "143413.912000", "143413.915000", "143413.918000", "143413.922000", "143413.925000", "143413.929000", "143413.932000", "143413.936000", "143413.939000", "143413.942000", "143413.956000", "143413.959000", "143413.962000", "143413.966000", "143413.969000", "143413.973000", "143413.976000", "143413.979000", "143453.880000", "143453.884000", "143453.887000", "143453.891000", "143453.894000", "143453.897000", "143453.900000", "143453.904000", "143453.907000", "143453.910000", "143453.914000", "143453.917000", "143453.921000", "143453.924000", "143453.927000", "143453.931000", "143453.934000", "143453.937000", "143453.940000", "143453.944000", "143453.947000", "143453.950000", "143453.954000", "143453.957000", "143453.960000", "143453.964000", "143453.967000", "143533.880000", "143533.884000", "143533.887000", "143533.891000", "143533.894000", "143533.897000", "143533.901000", "143533.904000", "143533.907000", "143533.911000", "143533.914000", "143533.918000", "143533.921000", "143533.925000", "143533.928000", "143533.931000", "143533.935000", "143533.938000", "143533.942000", "143533.945000", "143533.948000", "143533.952000", "143533.955000", "143533.958000", "143533.961000", "143533.965000", "143533.968000", "143613.880000", "143613.884000", "143613.887000", "143613.891000", "143613.894000", "143613.898000", "143613.901000", "143613.904000", "143613.908000", "143613.911000", "143613.914000", "143613.918000", "143613.921000", "143613.924000", "143613.928000", "143613.931000", "143613.934000", "143613.939000", "143613.943000", "143613.946000", "143613.949000", "143613.953000", "143613.956000", "143613.960000", "143613.963000", "143613.966000", "143613.970000", "143653.880000", "143653.884000", "143653.887000", "143653.891000", "143653.894000", "143653.897000", "143653.901000", "143653.904000", "143653.907000", "143653.911000", "143653.914000", "143653.917000", "143653.921000", "143653.924000", "143653.927000", "143653.931000", "143653.934000", "143653.937000", "143653.941000", "143653.944000", "143653.947000", "143653.951000", "143653.954000", "143653.957000", "143653.961000", "143653.964000", "143653.967000", "143733.880000", "143733.884000", "143733.887000", "143733.891000", "143733.894000", "143733.897000", "143733.901000", "143733.904000", "143733.907000", "143733.911000", "143733.914000", "143733.917000", "143733.920000", "143733.924000", "143733.927000", "143733.931000", "143733.934000", "143733.937000", "143733.941000", "143733.944000", "143733.947000", "143733.951000", "143733.954000", "143733.957000", "143733.961000", "143733.964000", "143733.968000", "143757.701000", "143757.705000", "143757.708000", "143757.711000", "143757.715000", "143757.718000", "143757.730000", "143757.733000", "143757.736000", "143757.740000", "143757.743000", "143757.746000", "143757.749000", "143757.753000", "143757.756000", "143757.760000"],
