{
  "AcquisitionMatrixPE": 104,
  "AcquisitionNumber": 1,
  "AcquisitionTime": "13:56:24.175000",
  "BandwidthPerPixelPhaseEncode": 17.17,
  "BaseResolution": 104,
  "BodyPartExamined": "BRAIN",
  "CoilString": "HC1-7;NC1_2",
  "ConsistencyInfo": "N4_VE11C_LATEST_20160120",
  "ConversionSoftware": "dcm2niix",
  "ConversionSoftwareVersion": "v1.0.20190902",
  "DerivedVendorReportedEchoSpacing": 0.000560011,
  "DeviceSerialNumber": "167006",
  "DwellTime": 2.1e-06,
  "EchoTime": 0.037,
  "EchoTrainLength": 104,
  "EffectiveEchoSpacing": 0.000560011,
  "FlipAngle": 52,
  "HeudiconvVersion": "0.10.0",
  "ImageComments": "Unaliased_MB4_PE3_LB",
  "ImageOrientationPatientDICOM": [0.999593, -0.00272334, 0.0284142, 0.0160518, 0.87676, -0.48066],
  "ImageType": [
    "ORIGINAL",
    "PRIMARY",
    "M",
    "MB",
    "ND",
    "MOSAIC"
],
  "ImagingFrequency": 123.259,
  "InPlanePhaseEncodingDirectionDICOM": "COL",
  "InstitutionAddress": "Chemin_Queen-Mary_4565_Montreal_District_CA_H3W_1W5",
  "InstitutionName": "IUGM",
  "InstitutionalDepartmentName": "Department",
  "MRAcquisitionType": "2D",
  "MagneticFieldStrength": 3,
  "Manufacturer": "Siemens",
  "ManufacturersModelName": "Prisma_fit",
  "Modality": "MR",
  "MultibandAccelerationFactor": 4,
  "PartialFourier": 1,
  "PatientPosition": "HFS",
  "PercentPhaseFOV": 100,
  "PhaseEncodingDirection": "j",
  "PhaseEncodingSteps": 104,
  "PhaseResolution": 1,
  "PixelBandwidth": 2290,
  "ProcedureStepDescription": "games_mario",
  "ProtocolName": "func_task-mario_run-01",
  "PulseSequenceDetails": "%CustomerSeq%_cmrr_mbep2d_bold",
  "ReceiveCoilActiveElements": "HC1-7;NC1,2",
  "ReceiveCoilName": "HeadNeck_64",
  "ReconMatrixPE": 104,
  "RepetitionTime": 1.49,
  "SAR": 0.0613944,
  "ScanOptions": "FS",
  "ScanningSequence": "EP",
  "SequenceName": "epfid2d1_104",
  "SequenceVariant": "SK_SS",
  "SeriesDescription": "func_task-mario_run-01",
  "SeriesNumber": 10,
  "ShimSetting": [623, -7189, -8845, 379, -13, -106, -68, -21],
  "SliceThickness": 2,
  "SliceTiming": [0, 0.785, 0.0975, 0.8825, 0.195, 0.98, 0.295, 1.0775, 0.3925, 1.175, 0.49, 1.275, 0.5875, 1.3725, 0.685, 0, 0.785, 0.0975, 0.8825, 0.195, 0.98, 0.295, 1.0775, 0.3925, 1.175, 0.49, 1.275, 0.5875, 1.3725, 0.685, 0, 0.785, 0.0975, 0.8825, 0.195, 0.98, 0.295, 1.0775, 0.3925, 1.175, 0.49, 1.275, 0.5875, 1.3725, 0.685, 0, 0.785, 0.0975, 0.8825, 0.195, 0.98, 0.295, 1.0775, 0.3925, 1.175, 0.49, 1.275, 0.5875, 1.3725, 0.685],
  "SoftwareVersions": "syngo_MR_E11",
  "SpacingBetweenSlices": 2,
  "StationName": "MRC35049",
  "TaskName": "mario",
  "TotalReadoutTime": 0.0576811,
  "TxRefAmp": 309.669,
  "WipMemBlock": "b534f8fd-2438-4c8c-9561-683f3c8d3fad||Sequence: R016 ve11c/master r/e634e98; Dec 19 2017 11:00:25 by eja",
  "dcmmeta_affine": [
    [-1.9991850852966309, 0.03210364282131195, 0.04720689728856087, 104.8277359008789],
    [0.005446689203381538, 1.7535207271575928, -0.9618396162986755, -61.038516998291016],
    [0.05682840943336487, 0.961319088935852, 1.7528936862945557, -90.69271087646484],
    [0.0, 0.0, 0.0, 1.0]
],
  "dcmmeta_reorient_transform": [
    [0.0, -1.0, 0.0, 103.0],
    [1.0, 0.0, 0.0, 0.0],
    [0.0, 0.0, 1.0, 0.0],
    [0.0, 0.0, 0.0, 1.0]
],
  "dcmmeta_shape": [104, 104, 60, 451],
  "dcmmeta_slice_dim": 2,
  "dcmmeta_version": 0.6,
  "global": {
    "const": {
      "AcquisitionMatrix": [104, 0, 0, 104],
      "AngioFlag": "N",
      "BitsAllocated": 16,
      "BitsStored": 16,
      "BodyPartExamined": "BRAIN",
      "Columns": 832,
      "EchoNumbers": 1,
      "EchoTime": 37.0,
      "EchoTrainLength": 104,
      "FlipAngle": 52.0,
      "HighBit": 15,
      "ImageOrientationPatient": [0.99959252514611, -0.0027233447026, 0.02841420534969, 0.01605182073886, 0.87676036051776, -0.4806595565218],
      "ImagePositionPatient": [-847.52349247429, -755.87306588076, 337.55777069449],
      "ImageType": [
        "ORIGINAL",
        "PRIMARY",
        "M",
        "MB",
        "ND",
        "MOSAIC"
],
      "ImagedNucleus": "1H",
      "ImagingFrequency": 123.258938,
      "InPlanePhaseEncodingDirection": "COL",
      "MRAcquisitionType": "2D",
      "MagneticFieldStrength": 3.0,
      "Manufacturer": "SIEMENS",
      "ManufacturerModelName": "Prisma_fit",
      "Modality": "MR",
      "NumberOfAverages": 1.0,
      "NumberOfPhaseEncodingSteps": 104,
      "PercentPhaseFieldOfView": 100.0,
      "PercentSampling": 100.0,
      "PerformedProcedureStepStartTime": "133557.811000",
      "PhotometricInterpretation": "MONOCHROME2",
      "PixelBandwidth": 2290.0,
      "PixelRepresentation": 0,
      "PixelSpacing": [2.0, 2.0],
      "ProtocolName": "func_task-mario_run-01",
      "RepetitionTime": 1490.0,
      "Rows": 832,
      "SAR": 0.06139440638753,
      "SamplesPerPixel": 1,
      "ScanOptions": "FS",
      "ScanningSequence": "EP",
      "SequenceName": "epfid2d1_104",
      "SequenceVariant": [
        "SK",
        "SS"
],
      "SeriesDescription": "func_task-mario_run-01",
      "SeriesNumber": 10,
      "SeriesTime": "135739.075000",
      "SliceLocation": -47.658413479697,
      "SliceThickness": 2.0,
      "SmallestImagePixelValue": 0,
      "SoftwareVersions": "syngo MR E11",
      "SpacingBetweenSlices": 2.0000000404086,
      "SpecificCharacterSet": "ISO_IR 100",
      "StudyID": "1",
      "StudyTime": "133557.725000",
      "TransmitCoilName": "Body",
      "VariableFlipAngleFlag": "N",
      "WindowCenterWidthExplanation": "Algo1",
      "dBdt": 0.0},
    "slices": {}
  },
  "time": {
    "samples": {
      "AcquisitionNumber": [1, 2, 3, 4, 5, 6, 7, 8, 9, 10, 11, 12, 13, 14, 15, 16, 17, 18, 19, 20, 21, 22, 23, 24, 25, 26, 27, 28, 29, 30, 31, 32, 33, 34, 35, 36, 37, 38, 39, 40, 41, 42, 43, 44, 45, 46, 47, 48, 49, 50, 51, 52, 53, 54, 55, 56, 57, 58, 59, 60, 61, 62, 63, 64, 65, 66, 67, 68, 69, 70, 71, 72, 73, 74, 75, 76, 77, 78, 79, 80, 81, 82, 83, 84, 85, 86, 87, 88, 89, 90, 91, 92, 93, 94, 95, 96, 97, 98, 99, 100, 101, 102, 103, 104, 105, 106, 107, 108, 109, 110, 111, 112, 113, 114, 115, 116, 117, 118, 119, 120, 121, 122, 123, 124, 125, 126, 127, 128, 129, 130, 131, 132, 133, 134, 135, 136, 137, 138, 139, 140, 141, 142, 143, 144, 145, 146, 147, 148, 149, 150, 151, 152, 153, 154, 155, 156, 157, 158, 159, 160, 161, 162, 163, 164, 165, 166, 167, 168, 169, 170, 171, 172, 173, 174, 175, 176, 177, 178, 179, 180, 181, 182, 183, 184, 185, 186, 187, 188, 189, 190, 191, 192, 193, 194, 195, 196, 197, 198, 199, 200, 201, 202, 203, 204, 205, 206, 207, 208, 209, 210, 211, 212, 213, 214, 215, 216, 217, 218, 219, 220, 221, 222, 223, 224, 225, 226, 227, 228, 229, 230, 231, 232, 233, 234, 235, 236, 237, 238, 239, 240, 241, 242, 243, 244, 245, 246, 247, 248, 249, 250, 251, 252, 253, 254, 255, 256, 257, 258, 259, 260, 261, 262, 263, 264, 265, 266, 267, 268, 269, 270, 271, 272, 273, 274, 275, 276, 277, 278, 279, 280, 281, 282, 283, 284, 285, 286, 287, 288, 289, 290, 291, 292, 293, 294, 295, 296, 297, 298, 299, 300, 301, 302, 303, 304, 305, 306, 307, 308, 309, 310, 311, 312, 313, 314, 315, 316, 317, 318, 319, 320, 321, 322, 323, 324, 325, 326, 327, 328, 329, 330, 331, 332, 333, 334, 335, 336, 337, 338, 339, 340, 341, 342, 343, 344, 345, 346, 347, 348, 349, 350, 351, 352, 353, 354, 355, 356, 357, 358, 359, 360, 361, 362, 363, 364, 365, 366, 367, 368, 369, 370, 371, 372, 373, 374, 375, 376, 377, 378, 379, 380, 381, 382, 383, 384, 385, 386, 387, 388, 389, 390, 391, 392, 393, 394, 395, 396, 397, 398, 399, 400, 401, 402, 403, 404, 405, 406, 407, 408, 409, 410, 411, 412, 413, 414, 415, 416, 417, 418, 419, 420, 421, 422, 423, 424, 425, 426, 427, 428, 429, 430, 431, 432, 433, 434, 435, 436, 437, 438, 439, 440, 441, 442, 443, 444, 445, 446, 447, 448, 449, 450, 451],
      "AcquisitionTime": ["135624.175000", "135625.665000", "135627.155000", "135628.645000", "135630.135000", "135631.625000", "135633.115000", "135634.605000", "135636.095000", "135637.585000", "135639.075000", "135640.565000", "135642.055000", "135643.545000", "135645.035000", "135646.525000", "135648.015000", "135649.505000", "135650.995000", "135652.485000", "135653.975000", "135655.465000", "135656.955000", "135658.445000", "135659.935000", "135701.425000", "135702.915000", "135704.405000", "135705.895000", "135707.385000", "135708.875000", "135710.365000", "135711.855000", "135713.345000", "135714.835000", "135716.325000", "135717.815000", "135719.305000", "135720.795000", "135722.285000", "135723.775000", "135725.265000", "135726.755000", "135728.245000", "135729.735000", "135731.225000", "135732.715000", "135734.205000", "135735.695000", "135737.185000", "135738.675000", "135740.165000", "135741.655000", "135743.145000", "135744.635000", "135746.125000", "135747.615000", "135749.105000", "135750.595000", "135752.085000", "135753.575000", "135755.065000", "135756.555000", "135758.045000", "135759.535000", "135801.025000", "135802.515000", "135804.005000", "135805.495000", "135806.985000", "135808.475000", "135809.965000", "135811.455000", "135812.945000", "135814.435000", "135815.925000", "135817.415000", "135818.905000", "135820.395000", "135821.885000", "135823.375000", "135824.865000", "135826.355000", "135827.845000", "135829.335000", "135830.825000", "135832.315000", "135833.805000", "135835.295000", "135836.785000", "135838.275000", "135839.765000", "135841.255000", "135842.745000", "135844.235000", "135845.725000", "135847.215000", "135848.705000", "135850.195000", "135851.685000", "135853.175000", "135854.665000", "135856.155000", "135857.645000", "135859.135000", "135900.625000", "135902.115000", "135903.605000", "135905.095000", "135906.585000", "135908.075000", "135909.565000", "135911.055000", "135912.545000", "135914.035000", "135915.525000", "135917.015000", "135918.505000", "135919.995000", "135921.485000", "135922.975000", "135924.465000", "135925.955000", "135927.445000", "135928.935000", "135930.425000", "135931.915000", "135933.405000", "135934.895000", "135936.385000", "135937.875000", "135939.365000", "135940.855000", "135942.345000", "135943.835000", "135945.325000", "135946.815000", "135948.305000", "135949.795000", "135951.285000", "135952.775000", "135954.265000", "135955.755000", "135957.245000", "135958.735000", "140000.225000", "140001.715000", "140003.205000", "140004.695000", "140006.185000", "140007.675000", "140009.165000", "140010.655000", "140012.145000", "140013.635000", "140015.125000", "140016.615000", "140018.105000", "140019.595000", "140021.085000", "140022.575000", "140024.065000", "140025.555000", "140027.045000", "140028.535000", "140030.025000", "140031.515000", "140033.005000", "140034.495000", "140035.985000", "140037.475000", "140038.965000", "140040.455000", "140041.945000", "140043.435000", "140044.925000", "140046.415000", "140047.905000", "140049.395000", "140050.885000", "140052.375000", "140053.865000", "140055.355000", "140056.845000", "140058.335000", "140059.825000", "140101.315000", "140102.805000", "140104.295000", "140105.785000", "140107.275000", "140108.765000", "140110.255000", "140111.745000", "140113.235000", "140114.725000", "140116.215000", "140117.705000", "140119.195000", "140120.685000", "140122.175000", "140123.665000", "140125.155000", "140126.645000", "140128.135000", "140129.625000", "140131.115000", "140132.605000", "140134.095000", "140135.585000", "140137.075000", "140138.565000", "140140.055000", "140141.545000", "140143.035000", "140144.525000", "140146.015000", "140147.505000", "140148.995000", "140150.485000", "140151.975000", "140153.465000", "140154.955000", "140156.445000", "140157.935000", "140159.425000", "140200.915000", "140202.405000", "140203.895000", "140205.385000", "140206.875000", "140208.365000", "140209.855000", "140211.345000", "140212.835000", "140214.325000", "140215.815000", "140217.305000", "140218.795000", "140220.285000", "140221.775000", "140223.265000", "140224.755000", "140226.245000", "140227.735000", "140229.225000", "140230.715000", "140232.205000", "140233.695000", "140235.185000", "140236.675000", "140238.165000", "140239.655000", "140241.145000", "140242.635000", "140244.125000", "140245.615000", "140247.105000", "140248.595000", "140250.085000", "140251.575000", "140253.065000", "140254.555000", "140256.045000", "140257.535000", "140259.025000", "140300.515000", "140302.005000", "140303.495000", "140304.985000", "140306.475000", "140307.965000", "140309.455000", "140310.945000", "140312.435000", "140313.925000", "140315.415000", "140316.905000", "140318.395000", "140319.885000", "140321.375000", "140322.865000", "140324.355000", "140325.845000", "140327.335000", "140328.825000", "140330.315000", "140331.805000", "140333.295000", "140334.785000", "140336.275000", "140337.765000", "140339.255000", "140340.745000", "140342.235000", "140343.725000", "140345.215000", "140346.705000", "140348.195000", "140349.685000", "140351.175000", "140352.665000", "140354.155000", "140355.645000", "140357.135000", "140358.625000", "140400.115000", "140401.605000", "140403.095000", "140404.585000", "140406.075000", "140407.565000", "140409.055000", "140410.545000", "140412.035000", "140413.525000", "140415.015000", "140416.505000", "140417.995000", "140419.485000", "140420.975000", "140422.465000", "140423.955000", "140425.445000", "140426.935000", "140428.425000", "140429.915000", "140431.405000", "140432.895000", "140434.385000", "140435.875000", "140437.365000", "140438.855000", "140440.345000", "140441.835000", "140443.325000", "140444.815000", "140446.305000", "140447.795000", "140449.285000", "140450.775000", "140452.265000", "140453.755000", "140455.245000", "140456.735000", "140458.225000", "140459.715000", "140501.205000", "140502.695000", "140504.185000", "140505.675000", "140507.165000", "140508.655000", "140510.145000", "140511.635000", "140513.125000", "140514.615000", "140516.105000", "140517.595000", "140519.085000", "140520.575000", "140522.065000", "140523.555000", "140525.045000", "140526.535000", "140528.025000", "140529.515000", "140531.005000", "140532.495000", "140533.985000", "140535.475000", "140536.965000", "140538.455000", "140539.945000", "140541.435000", "140542.925000", "140544.415000", "140545.905000", "140547.395000", "140548.885000", "140550.375000", "140551.865000", "140553.355000", "140554.845000", "140556.335000", "140557.825000", "140559.315000", "140600.805000", "140602.295000", "140603.785000", "140605.275000", "140606.765000", "140608.255000", "140609.745000", "140611.235000", "140612.725000", "140614.215000", "140615.705000", "140617.195000", "140618.685000", "140620.175000", "140621.665000", "140623.155000", "140624.645000", "140626.135000", "140627.625000", "140629.115000", "140630.605000", "140632.095000", "140633.585000", "140635.075000", "140636.565000", "140638.055000", "140639.545000", "140641.035000", "140642.525000", "140644.015000", "140645.505000", "140646.995000", "140648.485000", "140649.975000", "140651.465000", "140652.955000", "140654.445000", "140655.935000", "140657.425000", "140658.915000", "140700.405000", "140701.895000", "140703.385000", "140704.875000", "140706.365000", "140707.855000", "140709.345000", "140710.835000", "140712.325000", "140713.815000", "140715.305000", "140716.795000", "140718.285000", "140719.775000", "140721.265000", "140722.755000", "140724.245000", "140725.735000", "140727.225000", "140728.715000", "140730.205000", "140731.695000", "140733.185000", "140734.675000"],
      "ContentTime": ["135739.079000", "135739.083000", "135739.086000", "135739.089000", "135739.092000", "135739.096000", "135739.099000", "135739.102000", "135739.105000", "135739.116000", "135739.120000", "135739.123000", "135739.128000", "135739.132000", "135739.135000", "135739.138000", "135739.141000", "135739.145000", "135739.148000", "135739.151000", "135759.046000", "135759.050000", "135759.053000", "135759.056000", "135759.060000", "135759.063000", "135759.066000", "135759.070000", "135759.073000", "135759.076000", "135759.079000", "135759.083000", "135759.086000", "135759.102000", "135759.105000", "135759.116000", "135759.119000", "135759.122000", "135759.125000", "135759.129000", "135819.046000", "135819.050000", "135819.053000", "135819.056000", "135819.059000", "135819.063000", "135819.066000", "135819.069000", "135819.073000", "135819.076000", "135819.082000", "135819.086000", "135819.089000", "135819.092000", "135819.095000", "135819.099000", "135819.102000", "135819.105000", "135819.108000", "135819.112000", "135839.045000", "135839.049000", "135839.052000", "135839.055000", "135839.059000", "135839.062000", "135839.065000", "135839.069000", "135839.072000", "135839.075000", "135839.078000", "135839.082000", "135839.085000", "135839.088000", "135839.091000", "135839.095000", "135839.098000", "135839.101000", "135839.104000", "135839.108000", "135859.046000", "135859.050000", "135859.053000", "135859.056000", "135859.060000", "135859.063000", "135859.066000", "135859.070000", "135859.073000", "135859.076000", "135859.079000", "135859.083000", "135859.086000", "135859.089000", "135859.092000", "135859.096000", "135859.099000", "135859.102000", "135859.105000", "135859.109000", "135939.046000", "135939.050000", "135939.053000", "135939.057000", "135939.060000", "135939.063000", "135939.066000", "135939.070000", "135939.073000", "135939.076000", "135939.080000", "135939.083000", "135939.086000", "135939.089000", "135939.093000", "135939.096000", "135939.099000", "135939.103000", "135939.106000", "135939.109000", "135939.113000", "135939.116000", "135939.119000", "135939.122000", "135939.126000", "135939.129000", "135939.132000", "135939.136000", "135939.139000", "135939.142000", "140019.046000", "140019.050000", "140019.053000", "140019.057000", "140019.060000", "140019.063000", "140019.083000", "140019.087000", "140019.090000", "140019.094000", "140019.097000", "140019.100000", "140019.104000", "140019.107000", "140019.110000", "140019.114000", "140019.117000", "140019.120000", "140019.123000", "140019.127000", "140019.130000", "140019.133000", "140019.137000", "140019.140000", "140019.143000", "140019.146000", "140059.045000", "140059.049000", "140059.052000", "140059.056000", "140059.059000", "140059.062000", "140059.065000", "140059.069000", "140059.072000", "140059.075000", "140059.079000", "140059.082000", "140059.085000", "140059.089000", "140059.092000", "140059.095000", "140059.099000", "140059.102000", "140059.105000", "140059.109000", "140059.112000", "140059.115000", "140059.118000", "140059.122000", "140059.125000", "140059.128000", "140059.132000", "140139.046000", "140139.051000", "140139.054000", "140139.058000", "140139.061000", "140139.064000", "140139.068000", "140139.071000", "140139.074000", "140139.078000", "140139.081000", "140139.084000", "140139.087000", "140139.091000", "140139.094000", "140139.097000", "140139.101000", "140139.104000", "140139.107000", "140139.110000", "140139.114000", "140139.117000", "140139.120000", "140139.124000", "140139.127000", "140139.130000", "140139.133000", "140219.046000", "140219.050000", "140219.053000", "140219.056000", "140219.060000", "140219.063000", "140219.067000", "140219.070000", "140219.073000", "140219.076000", "140219.080000", "140219.083000", "140219.086000", "140219.090000", "140219.093000", "140219.096000", "140219.100000", "140219.103000", "140219.106000", "140219.119000", "140219.122000", "140219.126000", "140219.129000", "140219.132000", "140219.135000", "140219.139000", "140219.142000", "140259.045000", "140259.049000", "140259.052000", "140259.056000", "140259.059000", "140259.062000", "140259.066000", "140259.069000", "140259.072000", "140259.075000", "140259.079000", "140259.082000", "140259.086000", "140259.089000", "140259.092000", "140259.095000", "140259.099000", "140259.102000", "140259.105000", "140259.109000", "140259.112000", "140259.115000", "140259.118000", "140259.122000", "140259.125000", "140259.128000", "140259.132000", "140339.046000", "140339.050000", "140339.053000", "140339.056000", "140339.060000", "140339.063000", "140339.066000", "140339.070000", "140339.073000", "140339.076000", "140339.080000", "140339.083000", "140339.086000", "140339.090000", "140339.093000", "140339.097000", "140339.100000", "140339.104000", "140339.107000", "140339.110000", "140339.113000", "140339.117000", "140339.120000", "140339.123000", "140339.126000", "140339.130000", "140339.133000", "140419.046000", "140419.050000", "140419.053000", "140419.057000", "140419.060000", "140419.063000", "140419.067000", "140419.070000", "140419.073000", "140419.077000", "140419.080000", "140419.083000", "140419.087000", "140419.090000", "140419.093000", "140419.097000", "140419.100000", "140419.103000", "140419.106000", "140419.110000", "140419.113000", "140419.116000", "140419.119000", "140419.123000", "140419.126000", "140419.129000", "140459.046000", "140459.050000", "140459.053000", "140459.057000", "140459.060000", "140459.063000", "140459.066000", "140459.070000", "140459.073000", "140459.076000", "140459.080000", "140459.083000", "140459.086000", "140459.090000", "140459.093000", "140459.096000", "140459.100000", "140459.103000", "140459.106000", "140459.109000", "140459.113000", "140459.116000", "140459.119000", "140459.123000", "140459.126000", "140459.129000", "140459.133000", "140539.045000", "140539.049000", "140539.052000", "140539.056000", "140539.059000", "140539.062000", "140539.066000", "140539.069000", "140539.072000", "140539.076000", "140539.079000", "140539.082000", "140539.085000", "140539.089000", "140539.092000", "140539.095000", "140539.099000", "140539.102000", "140539.105000", "140539.109000", "140539.112000", "140539.115000", "140539.119000", "140539.122000", "140539.125000", "140539.129000", "140539.132000", "140619.048000", "140619.051000", "140619.055000", "140619.058000", "140619.061000", "140619.065000", "140619.068000", "140619.071000", "140619.075000", "140619.078000", "140619.081000", "140619.085000", "140619.088000", "140619.091000", "140619.095000", "140619.098000", "140619.101000", "140619.105000", "140619.108000", "140619.111000", "140619.114000", "140619.118000", "140619.121000", "140619.124000", "140619.128000", "140619.131000", "140619.134000", "140659.047000", "140659.051000", "140659.054000", "140659.058000", "140659.061000", "140659.079000", "140659.083000", "140659.086000", "140659.089000", "140659.092000", "140659.096000", "140659.099000", "140659.102000", "140659.106000", "140659.109000", "140659.112000", "140659.116000", "140659.119000", "140659.122000", "140659.126000", "140659.129000", "140659.132000", "140659.136000", "140659.139000", "140659.142000", "140659.145000", "140659.149000", "140738.028000", "140738.032000", "140738.035000", "140738.039000", "140738.042000", "140738.045000", "140738.049000", "140738.052000", "140738.056000", "140738.059000", "140738.062000", "140738.066000", "140738.069000", "140738.072000", "140738.076000", "140738.079000", "140738.082000", "140738.086000", "140738.089000", "140738.092000", "140738.096000", "140738.099000", "140738.102000", "140738.106000", "140738.109000", "140738.112000"],
