{
  "AcquisitionMatrixPE": 104,
  "AcquisitionNumber": 1,
  "AcquisitionTime": "14:39:37.292500",
  "BandwidthPerPixelPhaseEncode": 17.17,
  "BaseResolution": 104,
  "BodyPartExamined": "BRAIN",
  "CoilString": "HC1-7;NC1_2",
  "ConsistencyInfo": "N4_VE11C_LATEST_20160120",
  "ConversionSoftware": "dcm2niix",
  "ConversionSoftwareVersion": "v1.0.20190902",
  "DerivedVendorReportedEchoSpacing": 0.000560011,
  "DeviceSerialNumber": "167006",
  "DwellTime": 2.1e-06,
  "EchoTime": 0.037,
  "EchoTrainLength": 104,
  "EffectiveEchoSpacing": 0.000560011,
  "FlipAngle": 52,
  "HeudiconvVersion": "0.10.0",
  "ImageComments": "Unaliased_MB4_PE3_LB",
  "ImageOrientationPatientDICOM": [0.999593, -0.00272334, 0.0284142, 0.0160518, 0.87676, -0.48066],
  "ImageType": [
    "ORIGINAL",
    "PRIMARY",
    "M",
    "MB",
    "ND",
    "MOSAIC"
],
  "ImagingFrequency": 123.259,
  "InPlanePhaseEncodingDirectionDICOM": "COL",
  "InstitutionAddress": "Chemin_Queen-Mary_4565_Montreal_District_CA_H3W_1W5",
  "InstitutionName": "IUGM",
  "InstitutionalDepartmentName": "Department",
  "MRAcquisitionType": "2D",
  "MagneticFieldStrength": 3,
  "Manufacturer": "Siemens",
  "ManufacturersModelName": "Prisma_fit",
  "Modality": "MR",
  "MultibandAccelerationFactor": 4,
  "PartialFourier": 1,
  "PatientPosition": "HFS",
  "PercentPhaseFOV": 100,
  "PhaseEncodingDirection": "j",
  "PhaseEncodingSteps": 104,
  "PhaseResolution": 1,
  "PixelBandwidth": 2290,
  "ProcedureStepDescription": "games_mario",
  "ProtocolName": "func_task-mario_run-04",
  "PulseSequenceDetails": "%CustomerSeq%_cmrr_mbep2d_bold",
  "ReceiveCoilActiveElements": "HC1-7;NC1,2",
  "ReceiveCoilName": "HeadNeck_64",
  "ReconMatrixPE": 104,
  "RepetitionTime": 1.49,
  "SAR": 0.0613944,
  "ScanOptions": "FS",
  "ScanningSequence": "EP",
  "SequenceName": "epfid2d1_104",
  "SequenceVariant": "SK_SS",
  "SeriesDescription": "func_task-mario_run-04",
  "SeriesNumber": 19,
  "ShimSetting": [623, -7189, -8845, 379, -13, -106, -68, -21],
  "SliceThickness": 2,
  "SliceTiming": [0, 0.785, 0.1, 0.8825, 0.1975, 0.98, 0.295, 1.0775, 0.3925, 1.1775, 0.49, 1.275, 0.59, 1.3725, 0.6875, 0, 0.785, 0.1, 0.8825, 0.1975, 0.98, 0.295, 1.0775, 0.3925, 1.1775, 0.49, 1.275, 0.59, 1.3725, 0.6875, 0, 0.785, 0.1, 0.8825, 0.1975, 0.98, 0.295, 1.0775, 0.3925, 1.1775, 0.49, 1.275, 0.59, 1.3725, 0.6875, 0, 0.785, 0.1, 0.8825, 0.1975, 0.98, 0.295, 1.0775, 0.3925, 1.1775, 0.49, 1.275, 0.59, 1.3725, 0.6875],
  "SoftwareVersions": "syngo_MR_E11",
  "SpacingBetweenSlices": 2,
  "StationName": "MRC35049",
  "TaskName": "mario",
  "TotalReadoutTime": 0.0576811,
  "TxRefAmp": 309.669,
  "WipMemBlock": "2ea4db7d-d87c-4ef9-bea1-5bbe4f8e3791||Sequence: R016 ve11c/master r/e634e98; Dec 19 2017 11:00:25 by eja",
  "dcmmeta_affine": [
    [-1.9991850852966309, 0.03210364282131195, 0.04720689728856087, 104.8277359008789],
    [0.005446689203381538, 1.7535207271575928, -0.9618396162986755, -61.038516998291016],
    [0.05682840943336487, 0.961319088935852, 1.7528936862945557, -90.69271087646484],
    [0.0, 0.0, 0.0, 1.0]
],
  "dcmmeta_reorient_transform": [
    [0.0, -1.0, 0.0, 103.0],
    [1.0, 0.0, 0.0, 0.0],
    [0.0, 0.0, 1.0, 0.0],
    [0.0, 0.0, 0.0, 1.0]
],
  "dcmmeta_shape": [104, 104, 60, 468],
  "dcmmeta_slice_dim": 2,
  "dcmmeta_version": 0.6,
  "global": {
    "const": {
      "AcquisitionMatrix": [104, 0, 0, 104],
      "AngioFlag": "N",
      "BitsAllocated": 16,
      "BitsStored": 16,
      "BodyPartExamined": "BRAIN",
      "Columns": 832,
      "EchoNumbers": 1,
      "EchoTime": 37.0,
      "EchoTrainLength": 104,
      "FlipAngle": 52.0,
      "HighBit": 15,
      "ImageOrientationPatient": [0.99959252514611, -0.0027233447026, 0.02841420534969, 0.01605182073886, 0.87676036051776, -0.4806595565218],
      "ImagePositionPatient": [-847.52349247429, -755.87306588076, 337.55777069449],
      "ImageType": [
        "ORIGINAL",
        "PRIMARY",
        "M",
        "MB",
        "ND",
        "MOSAIC"
],
      "ImagedNucleus": "1H",
      "ImagingFrequency": 123.258959,
      "InPlanePhaseEncodingDirection": "COL",
      "MRAcquisitionType": "2D",
      "MagneticFieldStrength": 3.0,
      "Manufacturer": "SIEMENS",
      "ManufacturerModelName": "Prisma_fit",
      "Modality": "MR",
      "NumberOfAverages": 1.0,
      "NumberOfPhaseEncodingSteps": 104,
      "PercentPhaseFieldOfView": 100.0,
      "PercentSampling": 100.0,
      "PerformedProcedureStepStartTime": "133557.811000",
      "PhotometricInterpretation": "MONOCHROME2",
      "PixelBandwidth": 2290.0,
      "PixelRepresentation": 0,
      "PixelSpacing": [2.0, 2.0],
      "ProtocolName": "func_task-mario_run-04",
      "RepetitionTime": 1490.0,
      "Rows": 832,
      "SAR": 0.06139440638753,
      "SamplesPerPixel": 1,
      "ScanOptions": "FS",
      "ScanningSequence": "EP",
      "SequenceName": "epfid2d1_104",
      "SequenceVariant": [
        "SK",
        "SS"
],
      "SeriesDescription": "func_task-mario_run-04",
      "SeriesNumber": 19,
      "SeriesTime": "144059.072000",
      "SliceLocation": -47.658413479697,
      "SliceThickness": 2.0,
      "SmallestImagePixelValue": 0,
      "SoftwareVersions": "syngo MR E11",
      "SpacingBetweenSlices": 2.0000000404086,
      "SpecificCharacterSet": "ISO_IR 100",
      "StudyID": "1",
      "StudyTime": "133557.725000",
      "TransmitCoilName": "Body",
      "VariableFlipAngleFlag": "N",
      "WindowCenterWidthExplanation": "Algo1",
      "dBdt": 0.0},
    "slices": {}
  },
  "time": {
    "samples": {
      "AcquisitionNumber": [1, 2, 3, 4, 5, 6, 7, 8, 9, 10, 11, 12, 13, 14, 15, 16, 17, 18, 19, 20, 21, 22, 23, 24, 25, 26, 27, 28, 29, 30, 31, 32, 33, 34, 35, 36, 37, 38, 39, 40, 41, 42, 43, 44, 45, 46, 47, 48, 49, 50, 51, 52, 53, 54, 55, 56, 57, 58, 59, 60, 61, 62, 63, 64, 65, 66, 67, 68, 69, 70, 71, 72, 73, 74, 75, 76, 77, 78, 79, 80, 81, 82, 83, 84, 85, 86, 87, 88, 89, 90, 91, 92, 93, 94, 95, 96, 97, 98, 99, 100, 101, 102, 103, 104, 105, 106, 107, 108, 109, 110, 111, 112, 113, 114, 115, 116, 117, 118, 119, 120, 121, 122, 123, 124, 125, 126, 127, 128, 129, 130, 131, 132, 133, 134, 135, 136, 137, 138, 139, 140, 141, 142, 143, 144, 145, 146, 147, 148, 149, 150, 151, 152, 153, 154, 155, 156, 157, 158, 159, 160, 161, 162, 163, 164, 165, 166, 167, 168, 169, 170, 171, 172, 173, 174, 175, 176, 177, 178, 179, 180, 181, 182, 183, 184, 185, 186, 187, 188, 189, 190, 191, 192, 193, 194, 195, 196, 197, 198, 199, 200, 201, 202, 203, 204, 205, 206, 207, 208, 209, 210, 211, 212, 213, 214, 215, 216, 217, 218, 219, 220, 221, 222, 223, 224, 225, 226, 227, 228, 229, 230, 231, 232, 233, 234, 235, 236, 237, 238, 239, 240, 241, 242, 243, 244, 245, 246, 247, 248, 249, 250, 251, 252, 253, 254, 255, 256, 257, 258, 259, 260, 261, 262, 263, 264, 265, 266, 267, 268, 269, 270, 271, 272, 273, 274, 275, 276, 277, 278, 279, 280, 281, 282, 283, 284, 285, 286, 287, 288, 289, 290, 291, 292, 293, 294, 295, 296, 297, 298, 299, 300, 301, 302, 303, 304, 305, 306, 307, 308, 309, 310, 311, 312, 313, 314, 315, 316, 317, 318, 319, 320, 321, 322, 323, 324, 325, 326, 327, 328, 329, 330, 331, 332, 333, 334, 335, 336, 337, 338, 339, 340, 341, 342, 343, 344, 345, 346, 347, 348, 349, 350, 351, 352, 353, 354, 355, 356, 357, 358, 359, 360, 361, 362, 363, 364, 365, 366, 367, 368, 369, 370, 371, 372, 373, 374, 375, 376, 377, 378, 379, 380, 381, 382, 383, 384, 385, 386, 387, 388, 389, 390, 391, 392, 393, 394, 395, 396, 397, 398, 399, 400, 401, 402, 403, 404, 405, 406, 407, 408, 409, 410, 411, 412, 413, 414, 415, 416, 417, 418, 419, 420, 421, 422, 423, 424, 425, 426, 427, 428, 429, 430, 431, 432, 433, 434, 435, 436, 437, 438, 439, 440, 441, 442, 443, 444, 445, 446, 447, 448, 449, 450, 451, 452, 453, 454, 455, 456, 457, 458, 459, 460, 461, 462, 463, 464, 465, 466, 467, 468],
      "AcquisitionTime": ["143937.292500", "143938.782500", "143940.272500", "143941.762500", "143943.252500", "143944.742500", "143946.232500", "143947.722500", "143949.212500", "143950.702500", "143952.192500", "143953.682500", "143955.172500", "143956.662500", "143958.152500", "143959.642500", "144001.132500", "144002.622500", "144004.112500", "144005.602500", "144007.092500", "144008.582500", "144010.072500", "144011.562500", "144013.052500", "144014.542500", "144016.032500", "144017.522500", "144019.012500", "144020.502500", "144021.992500", "144023.482500", "144024.972500", "144026.462500", "144027.952500", "144029.442500", "144030.932500", "144032.422500", "144033.912500", "144035.402500", "144036.892500", "144038.382500", "144039.872500", "144041.362500", "144042.852500", "144044.342500", "144045.832500", "144047.322500", "144048.812500", "144050.302500", "144051.792500", "144053.282500", "144054.772500", "144056.262500", "144057.752500", "144059.242500", "144100.732500", "144102.222500", "144103.712500", "144105.202500", "144106.692500", "144108.182500", "144109.672500", "144111.162500", "144112.652500", "144114.142500", "144115.632500", "144117.122500", "144118.612500", "144120.102500", "144121.592500", "144123.082500", "144124.572500", "144126.062500", "144127.552500", "144129.042500", "144130.532500", "144132.022500", "144133.512500", "144135.002500", "144136.492500", "144137.982500", "144139.472500", "144140.962500", "144142.452500", "144143.942500", "144145.432500", "144146.922500", "144148.412500", "144149.902500", "144151.392500", "144152.882500", "144154.372500", "144155.862500", "144157.352500", "144158.842500", "144200.332500", "144201.822500", "144203.312500", "144204.802500", "144206.292500", "144207.782500", "144209.272500", "144210.762500", "144212.252500", "144213.742500", "144215.232500", "144216.722500", "144218.212500", "144219.702500", "144221.192500", "144222.682500", "144224.172500", "144225.662500", "144227.152500", "144228.642500", "144230.132500", "144231.622500", "144233.112500", "144234.602500", "144236.092500", "144237.582500", "144239.072500", "144240.562500", "144242.052500", "144243.542500", "144245.032500", "144246.522500", "144248.012500", "144249.502500", "144250.992500", "144252.482500", "144253.972500", "144255.462500", "144256.952500", "144258.442500", "144259.932500", "144301.422500", "144302.912500", "144304.402500", "144305.892500", "144307.382500", "144308.872500", "144310.362500", "144311.852500", "144313.342500", "144314.832500", "144316.322500", "144317.812500", "144319.302500", "144320.792500", "144322.282500", "144323.772500", "144325.262500", "144326.752500", "144328.242500", "144329.732500", "144331.222500", "144332.712500", "144334.202500", "144335.692500", "144337.182500", "144338.672500", "144340.162500", "144341.652500", "144343.142500", "144344.632500", "144346.122500", "144347.612500", "144349.102500", "144350.592500", "144352.082500", "144353.572500", "144355.062500", "144356.552500", "144358.042500", "144359.532500", "144401.022500", "144402.512500", "144404.002500", "144405.492500", "144406.982500", "144408.472500", "144409.962500", "144411.452500", "144412.942500", "144414.432500", "144415.922500", "144417.412500", "144418.902500", "144420.392500", "144421.882500", "144423.372500", "144424.862500", "144426.352500", "144427.842500", "144429.332500", "144430.822500", "144432.312500", "144433.802500", "144435.292500", "144436.782500", "144438.272500", "144439.762500", "144441.252500", "144442.742500", "144444.232500", "144445.722500", "144447.212500", "144448.702500", "144450.192500", "144451.682500", "144453.172500", "144454.662500", "144456.152500", "144457.642500", "144459.132500", "144500.622500", "144502.112500", "144503.602500", "144505.092500", "144506.582500", "144508.072500", "144509.562500", "144511.052500", "144512.542500", "144514.032500", "144515.522500", "144517.012500", "144518.502500", "144519.992500", "144521.482500", "144522.972500", "144524.462500", "144525.952500", "144527.442500", "144528.932500", "144530.422500", "144531.912500", "144533.402500", "144534.892500", "144536.382500", "144537.872500", "144539.362500", "144540.852500", "144542.342500", "144543.832500", "144545.322500", "144546.812500", "144548.302500", "144549.792500", "144551.282500", "144552.772500", "144554.262500", "144555.752500", "144557.242500", "144558.732500", "144600.222500", "144601.712500", "144603.202500", "144604.692500", "144606.182500", "144607.672500", "144609.162500", "144610.652500", "144612.142500", "144613.632500", "144615.122500", "144616.612500", "144618.102500", "144619.592500", "144621.082500", "144622.572500", "144624.062500", "144625.552500", "144627.042500", "144628.532500", "144630.022500", "144631.512500", "144633.002500", "144634.492500", "144635.982500", "144637.472500", "144638.962500", "144640.452500", "144641.942500", "144643.432500", "144644.922500", "144646.412500", "144647.902500", "144649.392500", "144650.882500", "144652.372500", "144653.862500", "144655.352500", "144656.842500", "144658.332500", "144659.822500", "144701.312500", "144702.802500", "144704.292500", "144705.782500", "144707.272500", "144708.762500", "144710.252500", "144711.742500", "144713.232500", "144714.722500", "144716.212500", "144717.702500", "144719.192500", "144720.682500", "144722.172500", "144723.662500", "144725.152500", "144726.642500", "144728.132500", "144729.622500", "144731.112500", "144732.602500", "144734.092500", "144735.582500", "144737.072500", "144738.562500", "144740.052500", "144741.542500", "144743.032500", "144744.522500", "144746.012500", "144747.502500", "144748.992500", "144750.482500", "144751.972500", "144753.462500", "144754.952500", "144756.442500", "144757.932500", "144759.422500", "144800.912500", "144802.402500", "144803.892500", "144805.382500", "144806.872500", "144808.362500", "144809.852500", "144811.342500", "144812.832500", "144814.322500", "144815.812500", "144817.302500", "144818.792500", "144820.282500", "144821.772500", "144823.262500", "144824.752500", "144826.242500", "144827.732500", "144829.222500", "144830.712500", "144832.202500", "144833.692500", "144835.182500", "144836.672500", "144838.162500", "144839.652500", "144841.142500", "144842.632500", "144844.122500", "144845.612500", "144847.102500", "144848.592500", "144850.082500", "144851.572500", "144853.062500", "144854.552500", "144856.042500", "144857.532500", "144859.022500", "144900.512500", "144902.002500", "144903.492500", "144904.982500", "144906.472500", "144907.962500", "144909.452500", "144910.942500", "144912.432500", "144913.922500", "144915.412500", "144916.902500", "144918.392500", "144919.882500", "144921.372500", "144922.862500", "144924.352500", "144925.842500", "144927.332500", "144928.822500", "144930.312500", "144931.802500", "144933.292500", "144934.782500", "144936.272500", "144937.762500", "144939.252500", "144940.742500", "144942.232500", "144943.722500", "144945.212500", "144946.702500", "144948.192500", "144949.682500", "144951.172500", "144952.662500", "144954.152500", "144955.642500", "144957.132500", "144958.622500", "145000.112500", "145001.602500", "145003.092500", "145004.582500", "145006.072500", "145007.562500", "145009.052500", "145010.542500", "145012.032500", "145013.522500", "145015.012500", "145016.502500", "145017.992500", "145019.482500", "145020.972500", "145022.462500", "145023.952500", "145025.442500", "145026.932500", "145028.422500", "145029.912500", "145031.402500", "145032.892500", "145034.382500", "145035.872500", "145037.362500", "145038.852500", "145040.342500", "145041.832500", "145043.322500", "145044.812500", "145046.302500", "145047.792500", "145049.282500", "145050.772500", "145052.262500", "145053.752500", "145055.242500", "145056.732500", "145058.222500", "145059.712500", "145101.202500", "145102.692500", "145104.182500", "145105.672500", "145107.162500", "145108.652500", "145110.142500", "145111.632500", "145113.122500"],
      "ContentTime": ["144059.076000", "144059.080000", "144059.083000", "144059.086000", "144059.089000", "144059.093000", "144059.104000", "144059.107000", "144059.110000", "144059.114000", "144059.117000", "144059.120000", "144059.124000", "144059.127000", "144059.130000", "144059.133000", "144059.137000", "144059.140000", "144059.143000", "144059.147000", "144059.150000", "144059.153000", "144059.157000", "144059.160000", "144059.163000", "144059.167000", "144059.170000", "144119.046000", "144119.050000", "144119.054000", "144119.057000", "144119.060000", "144119.064000", "144119.067000", "144119.071000", "144119.074000", "144119.077000", "144119.080000", "144119.084000", "144119.087000", "144119.096000", "144119.099000", "144119.103000", "144119.106000", "144119.109000", "144119.112000", "144119.116000", "144139.046000", "144139.050000", "144139.053000", "144139.057000", "144139.060000", "144139.063000", "144139.067000", "144139.070000", "144139.073000", "144139.077000", "144139.080000", "144139.083000", "144139.086000", "144139.090000", "144139.093000", "144139.096000", "144139.099000", "144139.103000", "144139.106000", "144139.109000", "144159.046000", "144159.050000", "144159.053000", "144159.057000", "144159.060000", "144159.063000", "144159.066000", "144159.076000", "144159.079000", "144159.082000", "144159.086000", "144159.089000", "144159.092000", "144159.096000", "144159.099000", "144159.102000", "144159.105000", "144159.109000", "144159.112000", "144159.115000", "144219.045000", "144219.049000", "144219.052000", "144219.056000", "144219.059000", "144219.062000", "144219.066000", "144219.069000", "144219.072000", "144219.076000", "144219.080000", "144219.083000", "144219.086000", "144219.090000", "144219.093000", "144219.096000", "144219.099000", "144219.103000", "144219.106000", "144219.109000", "144259.046000", "144259.050000", "144259.062000", "144259.065000", "144259.068000", "144259.072000", "144259.075000", "144259.078000", "144259.082000", "144259.085000", "144259.088000", "144259.092000", "144259.095000", "144259.098000", "144259.102000", "144259.105000", "144259.108000", "144259.112000", "144259.115000", "144259.118000", "144259.121000", "144259.125000", "144259.128000", "144259.131000", "144259.135000", "144259.138000", "144259.141000", "144339.046000", "144339.050000", "144339.053000", "144339.057000", "144339.060000", "144339.063000", "144339.066000", "144339.070000", "144339.073000", "144339.077000", "144339.080000", "144339.083000", "144339.087000", "144339.090000", "144339.093000", "144339.096000", "144339.100000", "144339.103000", "144339.106000", "144339.110000", "144339.113000", "144339.116000", "144339.119000", "144339.123000", "144339.126000", "144339.129000", "144339.133000", "144419.046000", "144419.050000", "144419.053000", "144419.057000", "144419.060000", "144419.063000", "144419.067000", "144419.070000", "144419.073000", "144419.077000", "144419.080000", "144419.083000", "144419.087000", "144419.090000", "144419.093000", "144419.097000", "144419.100000", "144419.104000", "144419.107000", "144419.110000", "144419.113000", "144419.117000", "144419.120000", "144419.124000", "144419.127000", "144419.131000", "144419.134000", "144459.045000", "144459.049000", "144459.052000", "144459.056000", "144459.059000", "144459.062000", "144459.066000", "144459.069000", "144459.072000", "144459.076000", "144459.079000", "144459.082000", "144459.086000", "144459.089000", "144459.092000", "144459.096000", "144459.099000", "144459.102000", "144459.105000", "144459.109000", "144459.112000", "144459.135000", "144459.139000", "144459.142000", "144459.145000", "144459.149000", "144459.152000", "144539.046000", "144539.050000", "144539.053000", "144539.057000", "144539.060000", "144539.063000", "144539.066000", "144539.070000", "144539.073000", "144539.076000", "144539.080000", "144539.083000", "144539.086000", "144539.090000", "144539.093000", "144539.096000", "144539.100000", "144539.103000", "144539.106000", "144539.109000", "144539.113000", "144539.116000", "144539.119000", "144539.123000", "144539.126000", "144539.129000", "144539.133000", "144619.046000", "144619.050000", "144619.053000", "144619.057000", "144619.060000", "144619.063000", "144619.066000", "144619.070000", "144619.073000", "144619.078000", "144619.081000", "144619.085000", "144619.088000", "144619.091000", "144619.094000", "144619.098000", "144619.101000", "144619.104000", "144619.108000", "144619.111000", "144619.114000", "144619.118000", "144619.121000", "144619.124000", "144619.127000", "144619.131000", "144659.045000", "144659.049000", "144659.052000", "144659.056000", "144659.059000", "144659.062000", "144659.066000", "144659.069000", "144659.072000", "144659.076000", "144659.079000", "144659.082000", "144659.085000", "144659.089000", "144659.092000", "144659.095000", "144659.099000", "144659.102000", "144659.105000", "144659.109000", "144659.112000", "144659.115000", "144659.118000", "144659.122000", "144659.125000", "144659.128000", "144659.132000", "144739.046000", "144739.050000", "144739.054000", "144739.072000", "144739.075000", "144739.078000", "144739.082000", "144739.085000", "144739.088000", "144739.092000", "144739.095000", "144739.099000", "144739.103000", "144739.106000", "144739.109000", "144739.113000", "144739.116000", "144739.120000", "144739.123000", "144739.126000", "144739.129000", "144739.133000", "144739.136000", "144739.139000", "144739.143000", "144739.146000", "144739.149000", "144819.046000", "144819.050000", "144819.053000", "144819.057000", "144819.060000", "144819.063000", "144819.066000", "144819.070000", "144819.073000", "144819.076000", "144819.080000", "144819.083000", "144819.086000", "144819.090000", "144819.093000", "144819.097000", "144819.100000", "144819.103000", "144819.106000", "144819.110000", "144819.113000", "144819.116000", "144819.120000", "144819.123000", "144819.126000", "144819.130000", "144819.133000", "144859.046000", "144859.050000", "144859.053000", "144859.057000", "144859.060000", "144859.063000", "144859.067000", "144859.070000", "144859.073000", "144859.077000", "144859.080000", "144859.085000", "144859.088000", "144859.092000", "144859.095000", "144859.098000", "144859.102000", "144859.105000", "144859.108000", "144859.112000", "144859.115000", "144859.118000", "144859.122000", "144859.125000", "144859.128000", "144859.132000", "144859.135000", "144939.045000", "144939.049000", "144939.052000", "144939.056000", "144939.059000", "144939.062000", "144939.065000", "144939.069000", "144939.072000", "144939.075000", "144939.079000", "144939.082000", "144939.085000", "144939.089000", "144939.092000", "144939.096000", "144939.099000", "144939.102000", "144939.105000", "144939.109000", "144939.112000", "144939.115000", "144939.119000", "144939.132000", "144939.135000", "144939.139000", "144939.142000", "145019.046000", "145019.050000", "145019.054000", "145019.057000", "145019.060000", "145019.064000", "145019.067000", "145019.070000", "145019.073000", "145019.077000", "145019.080000", "145019.084000", "145019.087000", "145019.090000", "145019.094000", "145019.098000", "145019.103000", "145019.107000", "145019.110000", "145019.113000", "145019.116000", "145019.120000", "145019.123000", "145019.126000", "145019.130000", "145019.133000", "145059.046000", "145059.050000", "145059.053000", "145059.057000", "145059.060000", "145059.063000", "145059.067000", "145059.070000", "145059.073000", "145059.077000", "145059.080000", "145059.083000", "145059.086000", "145059.090000", "145059.093000", "145059.097000", "145059.100000", "145059.117000", "145059.120000", "145059.124000", "145059.127000", "145059.130000", "145059.134000", "145059.137000", "145059.140000", "145059.144000", "145059.147000", "145116.367000", "145116.370000", "145116.374000", "145116.377000", "145116.381000", "145116.384000", "145116.387000", "145116.391000", "145116.394000", "145116.397000", "145116.400000", "145116.404000"],
