{
  "AcquisitionMatrixPE": 104,
  "AcquisitionNumber": 1,
  "AcquisitionTime": "16:14:34.110000",
  "BandwidthPerPixelPhaseEncode": 17.17,
  "BaseResolution": 104,
  "BodyPartExamined": "BRAIN",
  "CoilCombinationMethod": "Sum of Squares",
  "ConsistencyInfo": "N4_VE11C_LATEST_20160120",
  "ConversionSoftware": "dcm2niix",
  "ConversionSoftwareVersion": "v1.0.20211006",
  "DerivedVendorReportedEchoSpacing": 0.000560011,
  "DeviceSerialNumber": "167006",
  "DwellTime": 2.1e-06,
  "EchoTime": 0.037,
  "EchoTime1": 0.037,
  "EchoTime2": 0.001,
  "EchoTrainLength": 104,
  "EffectiveEchoSpacing": 0.000560011,
  "FlipAngle": 52,
  "HeudiconvVersion": "0.10.0",
  "ImageComments": "Unaliased MB4/PE3/LB",
  "ImageOrientationPatientDICOM": [0.999328, -0.0352106, 0.0101907, 0.0366437, 0.952518, -0.302269],
  "ImageOrientationText": "Tra>Cor(-17.6)>Sag(-0.1)",
  "ImageType": [
    "ORIGINAL",
    "PRIMARY",
    "P",
    "MB",
    "ND",
    "MOSAIC",
    "PHASE"
],
  "ImagingFrequency": 123.259,
  "InPlanePhaseEncodingDirectionDICOM": "COL",
  "InstitutionAddress": "Chemin Queen-Mary 4565,Montreal,District,CA,H3W 1W5",
  "InstitutionName": "IUGM",
  "InstitutionalDepartmentName": "Department",
  "MRAcquisitionType": "2D",
  "MagneticFieldStrength": 3,
  "Manufacturer": "Siemens",
  "ManufacturersModelName": "Prisma_fit",
  "MatrixCoilMode": "SENSE",
  "Modality": "MR",
  "MultibandAccelerationFactor": 4,
  "PartialFourier": 1,
  "PatientPosition": "HFS",
  "PercentPhaseFOV": 100,
  "PercentSampling": 100,
  "PhaseEncodingDirection": "j",
  "PhaseEncodingSteps": 104,
  "PhaseResolution": 1,
  "PixelBandwidth": 2290,
  "ProcedureStepDescription": "games^mario",
  "ProtocolName": "func_task-mario_run-04",
  "PulseSequenceDetails": "%CustomerSeq%\\cmrr_mbep2d_bold",
  "ReceiveCoilActiveElements": "HC1-7;NC1,2",
  "ReceiveCoilName": "HeadNeck_64",
  "ReconMatrixPE": 104,
  "RepetitionTime": 1.49,
  "SAR": 0.0472972,
  "ScanOptions": "FS",
  "ScanningSequence": "EP",
  "SequenceName": "epfid2d1_104",
  "SequenceVariant": "SK\\SS",
  "SeriesDescription": "func_task-mario_run-04",
  "SeriesNumber": 20,
  "ShimSetting": [623, -7256, -8798, 607, -6, -188, -32, -18],
  "SliceThickness": 2,
  "SliceTiming": [0, 0.785, 0.0975, 0.8825, 0.1975, 0.98, 0.295, 1.0775, 0.3925, 1.175, 0.49, 1.275, 0.5875, 1.3725, 0.6875, 0, 0.785, 0.0975, 0.8825, 0.1975, 0.98, 0.295, 1.0775, 0.3925, 1.175, 0.49, 1.275, 0.5875, 1.3725, 0.6875, 0, 0.785, 0.0975, 0.8825, 0.1975, 0.98, 0.295, 1.0775, 0.3925, 1.175, 0.49, 1.275, 0.5875, 1.3725, 0.6875, 0, 0.785, 0.0975, 0.8825, 0.1975, 0.98, 0.295, 1.0775, 0.3925, 1.175, 0.49, 1.275, 0.5875, 1.3725, 0.6875],
  "SoftwareVersions": "syngo MR E11",
  "SpacingBetweenSlices": 2,
  "StationName": "MRC35049",
  "TaskName": "mario",
  "TotalReadoutTime": 0.0576811,
  "TxRefAmp": 246.487,
  "WipMemBlock": "b98d7128-3a0a-4fa9-941b-9a0deb2d6b1e||Sequence: R016 ve11c/master r/e634e98; Dec 19 2017 11:00:25 by eja",
  "dcmmeta_affine": [
    [-1.998655915260315, 0.07328733056783676, -0.001872396096587181, 103.4748764038086],
    [0.07042112946510315, 1.905036449432373, -0.6048775911331177, -70.48664855957031],
    [0.020381441339850426, 0.6045370101928711, 1.9063366651535034, -57.91292953491211],
    [0.0, 0.0, 0.0, 1.0]
],
  "dcmmeta_reorient_transform": [
    [0.0, -1.0, 0.0, 103.0],
    [1.0, 0.0, 0.0, 0.0],
    [0.0, 0.0, 1.0, 0.0],
    [0.0, 0.0, 0.0, 1.0]
],
  "dcmmeta_shape": [104, 104, 60, 432],
  "dcmmeta_slice_dim": 2,
  "dcmmeta_version": 0.6,
  "global": {
    "const": {
      "AcquisitionMatrix": [104, 0, 0, 104],
      "AngioFlag": "N",
      "BitsAllocated": 16,
      "BitsStored": 16,
      "BodyPartExamined": "BRAIN",
      "Columns": 832,
      "EchoNumbers": 1,
      "EchoTime": 37.0,
      "EchoTrainLength": 104,
      "FlipAngle": 52.0,
      "HighBit": 15,
      "ImageOrientationPatient": [0.9993279568461, -0.0352105649313, 0.01019072043704, 0.03664366519599, 0.95251823491122, -0.3022685130188],
      "ImagePositionPatient": [-865.21081208159, -793.53209278196, 216.98701780062],
      "ImageType": [
        "ORIGINAL",
        "PRIMARY",
        "P",
        "MB",
        "ND",
        "MOSAIC"
],
      "ImagedNucleus": "1H",
      "ImagingFrequency": 123.258813,
      "InPlanePhaseEncodingDirection": "COL",
      "LargestImagePixelValue": 4095,
      "MRAcquisitionType": "2D",
      "MagneticFieldStrength": 3.0,
      "Manufacturer": "SIEMENS",
      "ManufacturerModelName": "Prisma_fit",
      "Modality": "MR",
      "NumberOfAverages": 1.0,
      "NumberOfPhaseEncodingSteps": 104,
      "PercentPhaseFieldOfView": 100.0,
      "PercentSampling": 100.0,
      "PerformedProcedureStepStartTime": "143547.297000",
      "PhotometricInterpretation": "MONOCHROME2",
      "PixelBandwidth": 2290.0,
      "PixelRepresentation": 0,
      "PixelSpacing": [2.0, 2.0],
      "ProtocolName": "func_task-mario_run-04",
      "RepetitionTime": 1490.0,
      "RescaleIntercept": -4096.0,
      "RescaleSlope": 2.0,
      "RescaleType": "US",
      "Rows": 832,
      "SAR": 0.04729723189857,
      "SamplesPerPixel": 1,
      "ScanOptions": "FS",
      "ScanningSequence": "EP",
      "SequenceName": "epfid2d1_104",
      "SequenceVariant": [
        "SK",
        "SS"
],
      "SeriesDescription": "func_task-mario_run-04",
      "SeriesNumber": 20,
      "SeriesTime": "161539.188000",
      "SliceLocation": -33.979746490478,
      "SliceThickness": 2.0,
      "SmallestImagePixelValue": 0,
      "SoftwareVersions": "syngo MR E11",
      "SpacingBetweenSlices": 1.9999999424457,
      "SpecificCharacterSet": "ISO_IR 100",
      "StudyID": "1",
      "StudyTime": "143547.219000",
      "TransmitCoilName": "Body",
      "VariableFlipAngleFlag": "N",
      "WindowCenterWidthExplanation": "Algo1",
      "dBdt": 0.0},
    "slices": {}
  },
  "time": {
    "samples": {
      "AcquisitionNumber": [1, 2, 3, 4, 5, 6, 7, 8, 9, 10, 11, 12, 13, 14, 15, 16, 17, 18, 19, 20, 21, 22, 23, 24, 25, 26, 27, 28, 29, 30, 31, 32, 33, 34, 35, 36, 37, 38, 39, 40, 41, 42, 43, 44, 45, 46, 47, 48, 49, 50, 51, 52, 53, 54, 55, 56, 57, 58, 59, 60, 61, 62, 63, 64, 65, 66, 67, 68, 69, 70, 71, 72, 73, 74, 75, 76, 77, 78, 79, 80, 81, 82, 83, 84, 85, 86, 87, 88, 89, 90, 91, 92, 93, 94, 95, 96, 97, 98, 99, 100, 101, 102, 103, 104, 105, 106, 107, 108, 109, 110, 111, 112, 113, 114, 115, 116, 117, 118, 119, 120, 121, 122, 123, 124, 125, 126, 127, 128, 129, 130, 131, 132, 133, 134, 135, 136, 137, 138, 139, 140, 141, 142, 143, 144, 145, 146, 147, 148, 149, 150, 151, 152, 153, 154, 155, 156, 157, 158, 159, 160, 161, 162, 163, 164, 165, 166, 167, 168, 169, 170, 171, 172, 173, 174, 175, 176, 177, 178, 179, 180, 181, 182, 183, 184, 185, 186, 187, 188, 189, 190, 191, 192, 193, 194, 195, 196, 197, 198, 199, 200, 201, 202, 203, 204, 205, 206, 207, 208, 209, 210, 211, 212, 213, 214, 215, 216, 217, 218, 219, 220, 221, 222, 223, 224, 225, 226, 227, 228, 229, 230, 231, 232, 233, 234, 235, 236, 237, 238, 239, 240, 241, 242, 243, 244, 245, 246, 247, 248, 249, 250, 251, 252, 253, 254, 255, 256, 257, 258, 259, 260, 261, 262, 263, 264, 265, 266, 267, 268, 269, 270, 271, 272, 273, 274, 275, 276, 277, 278, 279, 280, 281, 282, 283, 284, 285, 286, 287, 288, 289, 290, 291, 292, 293, 294, 295, 296, 297, 298, 299, 300, 301, 302, 303, 304, 305, 306, 307, 308, 309, 310, 311, 312, 313, 314, 315, 316, 317, 318, 319, 320, 321, 322, 323, 324, 325, 326, 327, 328, 329, 330, 331, 332, 333, 334, 335, 336, 337, 338, 339, 340, 341, 342, 343, 344, 345, 346, 347, 348, 349, 350, 351, 352, 353, 354, 355, 356, 357, 358, 359, 360, 361, 362, 363, 364, 365, 366, 367, 368, 369, 370, 371, 372, 373, 374, 375, 376, 377, 378, 379, 380, 381, 382, 383, 384, 385, 386, 387, 388, 389, 390, 391, 392, 393, 394, 395, 396, 397, 398, 399, 400, 401, 402, 403, 404, 405, 406, 407, 408, 409, 410, 411, 412, 413, 414, 415, 416, 417, 418, 419, 420, 421, 422, 423, 424, 425, 426, 427, 428, 429, 430, 431, 432],
      "AcquisitionTime": ["161434.110000", "161435.600000", "161437.090000", "161438.580000", "161440.070000", "161441.560000", "161443.050000", "161444.540000", "161446.030000", "161447.520000", "161449.010000", "161450.500000", "161451.990000", "161453.480000", "161454.970000", "161456.460000", "161457.950000", "161459.440000", "161500.930000", "161502.420000", "161503.910000", "161505.400000", "161506.890000", "161508.380000", "161509.870000", "161511.360000", "161512.850000", "161514.340000", "161515.830000", "161517.320000", "161518.810000", "161520.300000", "161521.790000", "161523.280000", "161524.770000", "161526.260000", "161527.750000", "161529.240000", "161530.730000", "161532.220000", "161533.710000", "161535.200000", "161536.690000", "161538.180000", "161539.670000", "161541.160000", "161542.650000", "161544.140000", "161545.630000", "161547.120000", "161548.610000", "161550.100000", "161551.590000", "161553.080000", "161554.570000", "161556.060000", "161557.550000", "161559.040000", "161600.530000", "161602.020000", "161603.510000", "161605.000000", "161606.490000", "161607.980000", "161609.470000", "161610.960000", "161612.450000", "161613.940000", "161615.430000", "161616.920000", "161618.410000", "161619.900000", "161621.390000", "161622.880000", "161624.370000", "161625.860000", "161627.350000", "161628.840000", "161630.330000", "161631.820000", "161633.310000", "161634.800000", "161636.290000", "161637.780000", "161639.270000", "161640.760000", "161642.250000", "161643.740000", "161645.230000", "161646.720000", "161648.210000", "161649.700000", "161651.190000", "161652.680000", "161654.170000", "161655.660000", "161657.150000", "161658.640000", "161700.130000", "161701.620000", "161703.110000", "161704.600000", "161706.090000", "161707.580000", "161709.070000", "161710.560000", "161712.050000", "161713.540000", "161715.030000", "161716.520000", "161718.010000", "161719.500000", "161720.990000", "161722.480000", "161723.970000", "161725.460000", "161726.950000", "161728.440000", "161729.930000", "161731.420000", "161732.910000", "161734.400000", "161735.890000", "161737.380000", "161738.870000", "161740.360000", "161741.850000", "161743.340000", "161744.830000", "161746.320000", "161747.810000", "161749.300000", "161750.790000", "161752.280000", "161753.770000", "161755.260000", "161756.750000", "161758.240000", "161759.730000", "161801.220000", "161802.710000", "161804.200000", "161805.690000", "161807.180000", "161808.670000", "161810.160000", "161811.650000", "161813.140000", "161814.630000", "161816.120000", "161817.610000", "161819.100000", "161820.590000", "161822.080000", "161823.570000", "161825.060000", "161826.550000", "161828.040000", "161829.530000", "161831.020000", "161832.510000", "161834.000000", "161835.490000", "161836.980000", "161838.470000", "161839.960000", "161841.450000", "161842.940000", "161844.430000", "161845.920000", "161847.410000", "161848.900000", "161850.390000", "161851.880000", "161853.370000", "161854.860000", "161856.350000", "161857.840000", "161859.330000", "161900.820000", "161902.310000", "161903.800000", "161905.290000", "161906.780000", "161908.270000", "161909.760000", "161911.250000", "161912.740000", "161914.230000", "161915.720000", "161917.210000", "161918.700000", "161920.190000", "161921.680000", "161923.170000", "161924.660000", "161926.150000", "161927.640000", "161929.130000", "161930.620000", "161932.110000", "161933.600000", "161935.090000", "161936.580000", "161938.070000", "161939.560000", "161941.050000", "161942.540000", "161944.030000", "161945.520000", "161947.010000", "161948.500000", "161949.990000", "161951.480000", "161952.970000", "161954.460000", "161955.950000", "161957.440000", "161958.930000", "162000.420000", "162001.910000", "162003.400000", "162004.890000", "162006.380000", "162007.870000", "162009.360000", "162010.850000", "162012.340000", "162013.830000", "162015.320000", "162016.810000", "162018.300000", "162019.790000", "162021.280000", "162022.770000", "162024.260000", "162025.750000", "162027.240000", "162028.730000", "162030.220000", "162031.710000", "162033.200000", "162034.690000", "162036.180000", "162037.670000", "162039.160000", "162040.650000", "162042.140000", "162043.630000", "162045.120000", "162046.610000", "162048.100000", "162049.590000", "162051.080000", "162052.570000", "162054.060000", "162055.550000", "162057.040000", "162058.530000", "162100.020000", "162101.510000", "162103.000000", "162104.490000", "162105.980000", "162107.470000", "162108.960000", "162110.450000", "162111.940000", "162113.430000", "162114.920000", "162116.410000", "162117.900000", "162119.390000", "162120.880000", "162122.370000", "162123.860000", "162125.350000", "162126.840000", "162128.330000", "162129.820000", "162131.310000", "162132.800000", "162134.290000", "162135.780000", "162137.270000", "162138.760000", "162140.250000", "162141.740000", "162143.230000", "162144.720000", "162146.210000", "162147.700000", "162149.190000", "162150.680000", "162152.170000", "162153.660000", "162155.150000", "162156.640000", "162158.130000", "162159.620000", "162201.110000", "162202.600000", "162204.090000", "162205.580000", "162207.070000", "162208.560000", "162210.050000", "162211.540000", "162213.030000", "162214.520000", "162216.010000", "162217.500000", "162218.990000", "162220.480000", "162221.970000", "162223.460000", "162224.950000", "162226.440000", "162227.930000", "162229.420000", "162230.910000", "162232.400000", "162233.890000", "162235.380000", "162236.870000", "162238.360000", "162239.850000", "162241.340000", "162242.830000", "162244.320000", "162245.810000", "162247.300000", "162248.790000", "162250.280000", "162251.770000", "162253.260000", "162254.750000", "162256.240000", "162257.730000", "162259.220000", "162300.710000", "162302.200000", "162303.690000", "162305.180000", "162306.670000", "162308.160000", "162309.650000", "162311.140000", "162312.630000", "162314.120000", "162315.610000", "162317.100000", "162318.590000", "162320.080000", "162321.570000", "162323.060000", "162324.550000", "162326.040000", "162327.530000", "162329.020000", "162330.510000", "162332.000000", "162333.490000", "162334.980000", "162336.470000", "162337.960000", "162339.450000", "162340.940000", "162342.430000", "162343.920000", "162345.410000", "162346.900000", "162348.390000", "162349.880000", "162351.370000", "162352.860000", "162354.350000", "162355.840000", "162357.330000", "162358.820000", "162400.310000", "162401.800000", "162403.290000", "162404.780000", "162406.270000", "162407.760000", "162409.250000", "162410.740000", "162412.230000", "162413.720000", "162415.210000", "162416.700000", "162418.190000", "162419.680000", "162421.170000", "162422.660000", "162424.150000", "162425.640000", "162427.130000", "162428.620000", "162430.110000", "162431.600000", "162433.090000", "162434.580000", "162436.070000", "162437.560000", "162439.050000", "162440.540000", "162442.030000", "162443.520000", "162445.010000", "162446.500000", "162447.990000", "162449.480000", "162450.970000", "162452.460000", "162453.950000", "162455.440000", "162456.930000", "162458.420000", "162459.910000", "162501.400000", "162502.890000", "162504.380000", "162505.870000", "162507.360000", "162508.850000", "162510.340000", "162511.830000", "162513.320000", "162514.810000", "162516.300000"],
      "ContentTime": ["161539.191000", "161539.193000", "161539.196000", "161539.199000", "161539.201000", "161539.204000", "161539.206000", "161539.209000", "161539.211000", "161559.182000", "161559.185000", "161559.188000", "161559.190000", "161559.198000", "161559.200000", "161559.203000", "161559.205000", "161559.208000", "161559.211000", "161559.213000", "161559.216000", "161559.218000", "161559.221000", "161559.223000", "161559.226000", "161559.229000", "161559.231000", "161559.234000", "161559.236000", "161559.245000", "161619.181000", "161619.184000", "161619.186000", "161619.189000", "161619.192000", "161619.194000", "161619.196000", "161619.199000", "161619.202000", "161619.204000", "161619.207000", "161619.209000", "161619.212000", "161619.214000", "161619.217000", "161619.219000", "161619.222000", "161619.224000", "161619.227000", "161619.229000", "161639.192000", "161639.194000", "161639.197000", "161639.200000", "161639.202000", "161639.205000", "161639.207000", "161639.210000", "161639.213000", "161639.215000", "161639.218000", "161639.220000", "161639.223000", "161639.225000", "161639.228000", "161639.231000", "161639.234000", "161639.236000", "161639.239000", "161639.241000", "161659.179000", "161659.182000", "161659.184000", "161659.187000", "161659.190000", "161659.192000", "161659.195000", "161659.197000", "161659.200000", "161659.202000", "161659.205000", "161659.207000", "161659.210000", "161659.212000", "161659.215000", "161659.217000", "161659.220000", "161659.223000", "161659.225000", "161659.228000", "161719.190000", "161719.192000", "161719.195000", "161719.197000", "161719.200000", "161719.203000", "161719.205000", "161719.207000", "161719.210000", "161719.213000", "161719.215000", "161719.218000", "161719.220000", "161719.223000", "161719.225000", "161719.228000", "161719.230000", "161719.233000", "161719.235000", "161719.238000", "161759.609000", "161759.611000", "161759.614000", "161759.617000", "161759.619000", "161759.622000", "161759.624000", "161759.627000", "161759.629000", "161759.632000", "161759.635000", "161759.637000", "161759.640000", "161759.642000", "161759.645000", "161759.647000", "161759.650000", "161759.652000", "161759.655000", "161759.657000", "161759.660000", "161759.662000", "161759.665000", "161759.667000", "161759.670000", "161759.672000", "161759.675000", "161839.228000", "161839.231000", "161839.234000", "161839.236000", "161839.239000", "161839.241000", "161839.244000", "161839.246000", "161839.249000", "161839.252000", "161839.254000", "161839.257000", "161839.259000", "161839.262000", "161839.264000", "161839.267000", "161839.269000", "161839.272000", "161839.274000", "161839.277000", "161839.279000", "161839.282000", "161839.284000", "161839.287000", "161839.290000", "161839.292000", "161839.295000", "161919.213000", "161919.216000", "161919.219000", "161919.221000", "161919.224000", "161919.226000", "161919.229000", "161919.232000", "161919.235000", "161919.238000", "161919.240000", "161919.243000", "161919.246000", "161919.249000", "161919.252000", "161919.254000", "161919.257000", "161919.260000", "161919.262000", "161919.265000", "161919.267000", "161919.270000", "161919.272000", "161919.275000", "161919.277000", "161919.280000", "161959.232000", "161959.235000", "161959.237000", "161959.240000", "161959.243000", "161959.245000", "161959.248000", "161959.256000", "161959.258000", "161959.261000", "161959.263000", "161959.266000", "161959.269000", "161959.271000", "161959.274000", "161959.276000", "161959.279000", "161959.282000", "161959.284000", "161959.287000", "161959.289000", "161959.292000", "161959.294000", "161959.297000", "161959.300000", "161959.302000", "161959.305000", "162039.218000", "162039.220000", "162039.223000", "162039.226000", "162039.228000", "162039.231000", "162039.233000", "162039.236000", "162039.238000", "162039.241000", "162039.243000", "162039.246000", "162039.249000", "162039.251000", "162039.254000", "162039.256000", "162039.259000", "162039.261000", "162039.264000", "162039.266000", "162039.269000", "162039.272000", "162039.274000", "162039.277000", "162039.279000", "162039.282000", "162039.284000", "162119.225000", "162119.228000", "162119.231000", "162119.237000", "162119.240000", "162119.243000", "162119.245000", "162119.248000", "162119.250000", "162119.253000", "162119.255000", "162119.258000", "162119.261000", "162119.263000", "162119.266000", "162119.268000", "162119.271000", "162119.274000", "162119.276000", "162119.279000", "162119.281000", "162119.284000", "162119.286000", "162119.289000", "162119.291000", "162119.294000", "162119.296000", "162159.216000", "162159.219000", "162159.221000", "162159.225000", "162159.228000", "162159.230000", "162159.233000", "162159.235000", "162159.238000", "162159.250000", "162159.253000", "162159.255000", "162159.258000", "162159.261000", "162159.263000", "162159.266000", "162159.268000", "162159.271000", "162159.273000", "162159.276000", "162159.278000", "162159.281000", "162159.284000", "162159.286000", "162159.289000", "162159.292000", "162159.294000", "162239.229000", "162239.232000", "162239.234000", "162239.237000", "162239.239000", "162239.242000", "162239.244000", "162239.247000", "162239.249000", "162239.252000", "162239.255000", "162239.257000", "162239.260000", "162239.262000", "162239.265000", "162239.267000", "162239.270000", "162239.272000", "162239.275000", "162239.278000", "162239.280000", "162239.283000", "162239.285000", "162239.288000", "162239.291000", "162239.293000", "162239.296000", "162319.232000", "162319.234000", "162319.237000", "162319.240000", "162319.242000", "162319.245000", "162319.248000", "162319.250000", "162319.253000", "162319.255000", "162319.258000", "162319.260000", "162319.263000", "162319.265000", "162319.268000", "162319.271000", "162319.273000", "162319.276000", "162319.278000", "162319.281000", "162319.284000", "162319.286000", "162319.289000", "162319.291000", "162319.294000", "162319.296000", "162339.155000", "162339.158000", "162339.163000", "162339.165000", "162339.168000", "162339.171000", "162339.174000", "162339.176000", "162339.179000", "162339.181000", "162339.184000", "162339.186000", "162339.189000", "162339.191000", "162419.215000", "162419.218000", "162419.221000", "162419.223000", "162419.226000", "162419.229000", "162419.231000", "162419.234000", "162419.236000", "162419.239000", "162419.242000", "162419.244000", "162419.247000", "162419.250000", "162419.252000", "162419.255000", "162419.257000", "162419.260000", "162419.262000", "162419.265000", "162419.268000", "162419.270000", "162419.273000", "162419.275000", "162419.278000", "162419.281000", "162419.283000", "162459.225000", "162459.228000", "162459.230000", "162459.233000", "162459.235000", "162459.238000", "162459.241000", "162459.243000", "162459.246000", "162459.249000", "162459.251000", "162459.254000", "162459.256000", "162459.259000", "162459.261000", "162459.264000", "162459.267000", "162459.269000", "162459.272000", "162459.274000", "162459.277000", "162459.280000", "162459.282000", "162459.285000", "162459.287000", "162459.290000", "162459.292000", "162519.315000", "162519.318000", "162519.320000", "162519.323000", "162519.325000", "162519.328000", "162519.331000", "162519.333000", "162519.336000", "162519.338000", "162519.341000", "162519.344000", "162519.346000"],
