{
  "AcquisitionMatrixPE": 104,
  "AcquisitionNumber": 1,
  "AcquisitionTime": "15:48:2.060000",
  "BandwidthPerPixelPhaseEncode": 17.17,
  "BaseResolution": 104,
  "BodyPartExamined": "BRAIN",
  "CoilCombinationMethod": "Sum of Squares",
  "ConsistencyInfo": "N4_VE11C_LATEST_20160120",
  "ConversionSoftware": "dcm2niix",
  "ConversionSoftwareVersion": "v1.0.20211006",
  "DerivedVendorReportedEchoSpacing": 0.000560011,
  "DeviceSerialNumber": "167006",
  "DwellTime": 2.1e-06,
  "EchoTime": 0.037,
  "EchoTime1": 0.037,
  "EchoTime2": 0.001,
  "EchoTrainLength": 104,
  "EffectiveEchoSpacing": 0.000560011,
  "FlipAngle": 52,
  "HeudiconvVersion": "0.10.0",
  "ImageComments": "Unaliased MB4/PE3/LB",
  "ImageOrientationPatientDICOM": [0.999328, -0.0352106, 0.0101907, 0.0366437, 0.952518, -0.302269],
  "ImageOrientationText": "Tra>Cor(-17.6)>Sag(-0.1)",
  "ImageType": [
    "ORIGINAL",
    "PRIMARY",
    "P",
    "MB",
    "ND",
    "MOSAIC",
    "PHASE"
],
  "ImagingFrequency": 123.259,
  "InPlanePhaseEncodingDirectionDICOM": "COL",
  "InstitutionAddress": "Chemin Queen-Mary 4565,Montreal,District,CA,H3W 1W5",
  "InstitutionName": "IUGM",
  "InstitutionalDepartmentName": "Department",
  "MRAcquisitionType": "2D",
  "MagneticFieldStrength": 3,
  "Manufacturer": "Siemens",
  "ManufacturersModelName": "Prisma_fit",
  "MatrixCoilMode": "SENSE",
  "Modality": "MR",
  "MultibandAccelerationFactor": 4,
  "PartialFourier": 1,
  "PatientPosition": "HFS",
  "PercentPhaseFOV": 100,
  "PercentSampling": 100,
  "PhaseEncodingDirection": "j",
  "PhaseEncodingSteps": 104,
  "PhaseResolution": 1,
  "PixelBandwidth": 2290,
  "ProcedureStepDescription": "games^mario",
  "ProtocolName": "func_task-mario_run-02",
  "PulseSequenceDetails": "%CustomerSeq%\\cmrr_mbep2d_bold",
  "ReceiveCoilActiveElements": "HC1-7;NC1,2",
  "ReceiveCoilName": "HeadNeck_64",
  "ReconMatrixPE": 104,
  "RepetitionTime": 1.49,
  "SAR": 0.0472972,
  "ScanOptions": "FS",
  "ScanningSequence": "EP",
  "SequenceName": "epfid2d1_104",
  "SequenceVariant": "SK\\SS",
  "SeriesDescription": "func_task-mario_run-02",
  "SeriesNumber": 14,
  "ShimSetting": [623, -7256, -8798, 607, -6, -188, -32, -18],
  "SliceThickness": 2,
  "SliceTiming": [0, 0.785, 0.1, 0.8825, 0.1975, 0.98, 0.295, 1.08, 0.3925, 1.1775, 0.49, 1.275, 0.59, 1.3725, 0.6875, 0, 0.785, 0.1, 0.8825, 0.1975, 0.98, 0.295, 1.08, 0.3925, 1.1775, 0.49, 1.275, 0.59, 1.3725, 0.6875, 0, 0.785, 0.1, 0.8825, 0.1975, 0.98, 0.295, 1.08, 0.3925, 1.1775, 0.49, 1.275, 0.59, 1.3725, 0.6875, 0, 0.785, 0.1, 0.8825, 0.1975, 0.98, 0.295, 1.08, 0.3925, 1.1775, 0.49, 1.275, 0.59, 1.3725, 0.6875],
  "SoftwareVersions": "syngo MR E11",
  "SpacingBetweenSlices": 2,
  "StationName": "MRC35049",
  "TaskName": "mario",
  "TotalReadoutTime": 0.0576811,
  "TxRefAmp": 246.487,
  "WipMemBlock": "3769b973-2e0c-4205-975e-e880be8e6e45||Sequence: R016 ve11c/master r/e634e98; Dec 19 2017 11:00:25 by eja",
  "dcmmeta_affine": [
    [-1.998655915260315, 0.07328733056783676, -0.001872396096587181, 103.4748764038086],
    [0.07042112946510315, 1.905036449432373, -0.6048775911331177, -70.48664855957031],
    [0.020381441339850426, 0.6045370101928711, 1.9063366651535034, -57.91292953491211],
    [0.0, 0.0, 0.0, 1.0]
],
  "dcmmeta_reorient_transform": [
    [0.0, -1.0, 0.0, 103.0],
    [1.0, 0.0, 0.0, 0.0],
    [0.0, 0.0, 1.0, 0.0],
    [0.0, 0.0, 0.0, 1.0]
],
  "dcmmeta_shape": [104, 104, 60, 448],
  "dcmmeta_slice_dim": 2,
  "dcmmeta_version": 0.6,
  "global": {
    "const": {
      "AcquisitionMatrix": [104, 0, 0, 104],
      "AngioFlag": "N",
      "BitsAllocated": 16,
      "BitsStored": 16,
      "BodyPartExamined": "BRAIN",
      "Columns": 832,
      "EchoNumbers": 1,
      "EchoTime": 37.0,
      "EchoTrainLength": 104,
      "FlipAngle": 52.0,
      "HighBit": 15,
      "ImageOrientationPatient": [0.9993279568461, -0.0352105649313, 0.01019072043704, 0.03664366519599, 0.95251823491122, -0.3022685130188],
      "ImagePositionPatient": [-865.21081208159, -793.53209278196, 216.98701780062],
      "ImageType": [
        "ORIGINAL",
        "PRIMARY",
        "P",
        "MB",
        "ND",
        "MOSAIC"
],
      "ImagedNucleus": "1H",
      "ImagingFrequency": 123.258805,
      "InPlanePhaseEncodingDirection": "COL",
      "LargestImagePixelValue": 4095,
      "MRAcquisitionType": "2D",
      "MagneticFieldStrength": 3.0,
      "Manufacturer": "SIEMENS",
      "ManufacturerModelName": "Prisma_fit",
      "Modality": "MR",
      "NumberOfAverages": 1.0,
      "NumberOfPhaseEncodingSteps": 104,
      "PercentPhaseFieldOfView": 100.0,
      "PercentSampling": 100.0,
      "PerformedProcedureStepStartTime": "143547.297000",
      "PhotometricInterpretation": "MONOCHROME2",
      "PixelBandwidth": 2290.0,
      "PixelRepresentation": 0,
      "PixelSpacing": [2.0, 2.0],
      "ProtocolName": "func_task-mario_run-02",
      "RepetitionTime": 1490.0,
      "RescaleIntercept": -4096.0,
      "RescaleSlope": 2.0,
      "RescaleType": "US",
      "Rows": 832,
      "SAR": 0.04729723189857,
      "SamplesPerPixel": 1,
      "ScanOptions": "FS",
      "ScanningSequence": "EP",
      "SequenceName": "epfid2d1_104",
      "SequenceVariant": [
        "SK",
        "SS"
],
      "SeriesDescription": "func_task-mario_run-02",
      "SeriesNumber": 14,
      "SeriesTime": "154928.166000",
      "SliceLocation": -33.979746490478,
      "SliceThickness": 2.0,
      "SmallestImagePixelValue": 0,
      "SoftwareVersions": "syngo MR E11",
      "SpacingBetweenSlices": 1.9999999424457,
      "SpecificCharacterSet": "ISO_IR 100",
      "StudyID": "1",
      "StudyTime": "143547.219000",
      "TransmitCoilName": "Body",
      "VariableFlipAngleFlag": "N",
      "WindowCenterWidthExplanation": "Algo1",
      "dBdt": 0.0},
    "slices": {}
  },
  "time": {
    "samples": {
      "AcquisitionNumber": [1, 2, 3, 4, 5, 6, 7, 8, 9, 10, 11, 12, 13, 14, 15, 16, 17, 18, 19, 20, 21, 22, 23, 24, 25, 26, 27, 28, 29, 30, 31, 32, 33, 34, 35, 36, 37, 38, 39, 40, 41, 42, 43, 44, 45, 46, 47, 48, 49, 50, 51, 52, 53, 54, 55, 56, 57, 58, 59, 60, 61, 62, 63, 64, 65, 66, 67, 68, 69, 70, 71, 72, 73, 74, 75, 76, 77, 78, 79, 80, 81, 82, 83, 84, 85, 86, 87, 88, 89, 90, 91, 92, 93, 94, 95, 96, 97, 98, 99, 100, 101, 102, 103, 104, 105, 106, 107, 108, 109, 110, 111, 112, 113, 114, 115, 116, 117, 118, 119, 120, 121, 122, 123, 124, 125, 126, 127, 128, 129, 130, 131, 132, 133, 134, 135, 136, 137, 138, 139, 140, 141, 142, 143, 144, 145, 146, 147, 148, 149, 150, 151, 152, 153, 154, 155, 156, 157, 158, 159, 160, 161, 162, 163, 164, 165, 166, 167, 168, 169, 170, 171, 172, 173, 174, 175, 176, 177, 178, 179, 180, 181, 182, 183, 184, 185, 186, 187, 188, 189, 190, 191, 192, 193, 194, 195, 196, 197, 198, 199, 200, 201, 202, 203, 204, 205, 206, 207, 208, 209, 210, 211, 212, 213, 214, 215, 216, 217, 218, 219, 220, 221, 222, 223, 224, 225, 226, 227, 228, 229, 230, 231, 232, 233, 234, 235, 236, 237, 238, 239, 240, 241, 242, 243, 244, 245, 246, 247, 248, 249, 250, 251, 252, 253, 254, 255, 256, 257, 258, 259, 260, 261, 262, 263, 264, 265, 266, 267, 268, 269, 270, 271, 272, 273, 274, 275, 276, 277, 278, 279, 280, 281, 282, 283, 284, 285, 286, 287, 288, 289, 290, 291, 292, 293, 294, 295, 296, 297, 298, 299, 300, 301, 302, 303, 304, 305, 306, 307, 308, 309, 310, 311, 312, 313, 314, 315, 316, 317, 318, 319, 320, 321, 322, 323, 324, 325, 326, 327, 328, 329, 330, 331, 332, 333, 334, 335, 336, 337, 338, 339, 340, 341, 342, 343, 344, 345, 346, 347, 348, 349, 350, 351, 352, 353, 354, 355, 356, 357, 358, 359, 360, 361, 362, 363, 364, 365, 366, 367, 368, 369, 370, 371, 372, 373, 374, 375, 376, 377, 378, 379, 380, 381, 382, 383, 384, 385, 386, 387, 388, 389, 390, 391, 392, 393, 394, 395, 396, 397, 398, 399, 400, 401, 402, 403, 404, 405, 406, 407, 408, 409, 410, 411, 412, 413, 414, 415, 416, 417, 418, 419, 420, 421, 422, 423, 424, 425, 426, 427, 428, 429, 430, 431, 432, 433, 434, 435, 436, 437, 438, 439, 440, 441, 442, 443, 444, 445, 446, 447, 448],
      "AcquisitionTime": ["154802.060000", "154803.550000", "154805.040000", "154806.530000", "154808.020000", "154809.510000", "154811.000000", "154812.490000", "154813.980000", "154815.470000", "154816.960000", "154818.450000", "154819.940000", "154821.430000", "154822.920000", "154824.410000", "154825.900000", "154827.390000", "154828.880000", "154830.370000", "154831.860000", "154833.350000", "154834.840000", "154836.330000", "154837.820000", "154839.310000", "154840.800000", "154842.290000", "154843.780000", "154845.270000", "154846.760000", "154848.250000", "154849.740000", "154851.230000", "154852.720000", "154854.210000", "154855.700000", "154857.190000", "154858.680000", "154900.170000", "154901.660000", "154903.150000", "154904.640000", "154906.130000", "154907.620000", "154909.110000", "154910.600000", "154912.090000", "154913.580000", "154915.070000", "154916.560000", "154918.050000", "154919.540000", "154921.030000", "154922.520000", "154924.010000", "154925.500000", "154926.990000", "154928.480000", "154929.970000", "154931.460000", "154932.950000", "154934.440000", "154935.930000", "154937.420000", "154938.910000", "154940.400000", "154941.890000", "154943.380000", "154944.870000", "154946.360000", "154947.850000", "154949.340000", "154950.830000", "154952.320000", "154953.810000", "154955.300000", "154956.790000", "154958.280000", "154959.770000", "155001.260000", "155002.750000", "155004.240000", "155005.730000", "155007.220000", "155008.710000", "155010.200000", "155011.690000", "155013.180000", "155014.670000", "155016.160000", "155017.650000", "155019.140000", "155020.630000", "155022.120000", "155023.610000", "155025.100000", "155026.590000", "155028.080000", "155029.570000", "155031.060000", "155032.550000", "155034.040000", "155035.530000", "155037.020000", "155038.510000", "155040.000000", "155041.490000", "155042.980000", "155044.470000", "155045.960000", "155047.450000", "155048.940000", "155050.430000", "155051.920000", "155053.410000", "155054.900000", "155056.390000", "155057.880000", "155059.370000", "155100.860000", "155102.350000", "155103.840000", "155105.330000", "155106.820000", "155108.310000", "155109.800000", "155111.290000", "155112.780000", "155114.270000", "155115.760000", "155117.250000", "155118.740000", "155120.230000", "155121.720000", "155123.210000", "155124.700000", "155126.190000", "155127.680000", "155129.170000", "155130.660000", "155132.150000", "155133.640000", "155135.130000", "155136.620000", "155138.110000", "155139.600000", "155141.090000", "155142.580000", "155144.070000", "155145.560000", "155147.050000", "155148.540000", "155150.030000", "155151.520000", "155153.010000", "155154.500000", "155155.990000", "155157.480000", "155158.970000", "155200.460000", "155201.950000", "155203.440000", "155204.930000", "155206.420000", "155207.910000", "155209.400000", "155210.890000", "155212.380000", "155213.870000", "155215.360000", "155216.850000", "155218.340000", "155219.830000", "155221.320000", "155222.810000", "155224.300000", "155225.790000", "155227.280000", "155228.770000", "155230.260000", "155231.750000", "155233.240000", "155234.730000", "155236.220000", "155237.710000", "155239.200000", "155240.690000", "155242.180000", "155243.670000", "155245.160000", "155246.650000", "155248.140000", "155249.630000", "155251.120000", "155252.610000", "155254.100000", "155255.590000", "155257.080000", "155258.570000", "155300.060000", "155301.550000", "155303.040000", "155304.530000", "155306.020000", "155307.510000", "155309.000000", "155310.490000", "155311.980000", "155313.470000", "155314.960000", "155316.450000", "155317.940000", "155319.430000", "155320.920000", "155322.410000", "155323.900000", "155325.390000", "155326.880000", "155328.370000", "155329.860000", "155331.350000", "155332.840000", "155334.330000", "155335.820000", "155337.310000", "155338.800000", "155340.290000", "155341.780000", "155343.270000", "155344.760000", "155346.250000", "155347.740000", "155349.230000", "155350.720000", "155352.210000", "155353.700000", "155355.190000", "155356.680000", "155358.170000", "155359.660000", "155401.150000", "155402.640000", "155404.130000", "155405.620000", "155407.110000", "155408.600000", "155410.090000", "155411.580000", "155413.070000", "155414.560000", "155416.050000", "155417.540000", "155419.030000", "155420.520000", "155422.010000", "155423.500000", "155424.990000", "155426.480000", "155427.970000", "155429.460000", "155430.950000", "155432.440000", "155433.930000", "155435.420000", "155436.910000", "155438.400000", "155439.890000", "155441.380000", "155442.870000", "155444.360000", "155445.850000", "155447.340000", "155448.830000", "155450.320000", "155451.810000", "155453.300000", "155454.790000", "155456.280000", "155457.770000", "155459.260000", "155500.750000", "155502.240000", "155503.730000", "155505.220000", "155506.710000", "155508.200000", "155509.690000", "155511.180000", "155512.670000", "155514.160000", "155515.650000", "155517.140000", "155518.630000", "155520.120000", "155521.610000", "155523.100000", "155524.590000", "155526.080000", "155527.570000", "155529.060000", "155530.550000", "155532.040000", "155533.530000", "155535.020000", "155536.510000", "155538.000000", "155539.490000", "155540.980000", "155542.470000", "155543.960000", "155545.450000", "155546.940000", "155548.430000", "155549.920000", "155551.410000", "155552.900000", "155554.390000", "155555.880000", "155557.370000", "155558.860000", "155600.350000", "155601.840000", "155603.330000", "155604.820000", "155606.310000", "155607.800000", "155609.290000", "155610.780000", "155612.270000", "155613.760000", "155615.250000", "155616.740000", "155618.230000", "155619.720000", "155621.210000", "155622.700000", "155624.190000", "155625.680000", "155627.170000", "155628.660000", "155630.150000", "155631.640000", "155633.130000", "155634.620000", "155636.110000", "155637.600000", "155639.090000", "155640.580000", "155642.070000", "155643.560000", "155645.050000", "155646.540000", "155648.030000", "155649.520000", "155651.010000", "155652.500000", "155653.990000", "155655.480000", "155656.970000", "155658.460000", "155659.950000", "155701.440000", "155702.930000", "155704.420000", "155705.910000", "155707.400000", "155708.890000", "155710.380000", "155711.870000", "155713.360000", "155714.850000", "155716.340000", "155717.830000", "155719.320000", "155720.810000", "155722.300000", "155723.790000", "155725.280000", "155726.770000", "155728.260000", "155729.750000", "155731.240000", "155732.730000", "155734.220000", "155735.710000", "155737.200000", "155738.690000", "155740.180000", "155741.670000", "155743.160000", "155744.650000", "155746.140000", "155747.630000", "155749.120000", "155750.610000", "155752.100000", "155753.590000", "155755.080000", "155756.570000", "155758.060000", "155759.550000", "155801.040000", "155802.530000", "155804.020000", "155805.510000", "155807.000000", "155808.490000", "155809.980000", "155811.470000", "155812.960000", "155814.450000", "155815.940000", "155817.430000", "155818.920000", "155820.410000", "155821.900000", "155823.390000", "155824.880000", "155826.370000", "155827.860000", "155829.350000", "155830.840000", "155832.330000", "155833.820000", "155835.310000", "155836.800000", "155838.290000", "155839.780000", "155841.270000", "155842.760000", "155844.250000", "155845.740000", "155847.230000", "155848.720000", "155850.210000", "155851.700000", "155853.190000", "155854.680000", "155856.170000", "155857.660000", "155859.150000", "155900.640000", "155902.130000", "155903.620000", "155905.110000", "155906.600000", "155908.090000"],
      "ContentTime": ["154928.168000", "154928.171000", "154928.173000", "154928.176000", "154928.179000", "154928.185000", "154928.188000", "154928.190000", "154928.193000", "154928.195000", "154928.198000", "154928.200000", "154928.203000", "154928.216000", "154928.219000", "154928.221000", "154928.224000", "154928.226000", "154928.228000", "154928.231000", "154928.233000", "154928.236000", "154928.238000", "154928.241000", "154928.243000", "154928.246000", "154928.248000", "154928.251000", "154928.253000", "154928.256000", "154928.258000", "154928.261000", "154948.080000", "154948.083000", "154948.085000", "154948.088000", "154948.090000", "154948.093000", "154948.096000", "154948.098000", "154948.100000", "154948.103000", "154948.105000", "154948.108000", "154948.111000", "154948.113000", "154948.116000", "154948.118000", "154948.121000", "154948.123000", "154948.126000", "154948.128000", "155008.084000", "155008.087000", "155008.089000", "155008.092000", "155008.095000", "155008.097000", "155008.100000", "155008.102000", "155008.105000", "155008.107000", "155008.110000", "155008.112000", "155008.115000", "155008.118000", "155008.120000", "155008.123000", "155008.125000", "155008.128000", "155008.130000", "155008.133000", "155028.071000", "155028.076000", "155028.079000", "155028.081000", "155028.084000", "155028.087000", "155028.090000", "155028.092000", "155028.095000", "155028.097000", "155028.100000", "155028.105000", "155028.108000", "155028.110000", "155028.113000", "155028.115000", "155028.118000", "155028.120000", "155028.123000", "155028.126000", "155108.120000", "155108.123000", "155108.125000", "155108.128000", "155108.130000", "155108.133000", "155108.135000", "155108.138000", "155108.140000", "155108.143000", "155108.145000", "155108.148000", "155108.150000", "155108.153000", "155108.155000", "155108.158000", "155108.160000", "155108.163000", "155108.166000", "155108.168000", "155108.171000", "155108.173000", "155108.176000", "155108.178000", "155108.181000", "155108.183000", "155108.186000", "155108.188000", "155108.191000", "155108.193000", "155108.196000", "155108.198000", "155148.111000", "155148.114000", "155148.117000", "155148.119000", "155148.122000", "155148.125000", "155148.127000", "155148.130000", "155148.132000", "155148.135000", "155148.137000", "155148.140000", "155148.142000", "155148.145000", "155148.147000", "155148.150000", "155148.152000", "155148.155000", "155148.157000", "155148.160000", "155148.162000", "155148.165000", "155148.167000", "155148.170000", "155148.172000", "155148.175000", "155148.177000", "155228.112000", "155228.115000", "155228.118000", "155228.121000", "155228.123000", "155228.126000", "155228.128000", "155228.131000", "155228.133000", "155228.136000", "155228.138000", "155228.141000", "155228.143000", "155228.146000", "155228.148000", "155228.151000", "155228.153000", "155228.156000", "155228.158000", "155228.161000", "155228.163000", "155228.166000", "155228.168000", "155228.171000", "155228.174000", "155228.176000", "155228.179000", "155308.103000", "155308.106000", "155308.108000", "155308.111000", "155308.113000", "155308.116000", "155308.119000", "155308.121000", "155308.124000", "155308.126000", "155308.129000", "155308.131000", "155308.134000", "155308.136000", "155308.139000", "155308.141000", "155308.144000", "155308.146000", "155308.149000", "155308.152000", "155308.154000", "155308.157000", "155308.159000", "155308.162000", "155308.164000", "155308.167000", "155308.169000", "155348.471000", "155348.474000", "155348.476000", "155348.479000", "155348.481000", "155348.484000", "155348.486000", "155348.489000", "155348.492000", "155348.494000", "155348.497000", "155348.499000", "155348.502000", "155348.504000", "155348.507000", "155348.509000", "155348.512000", "155348.514000", "155348.517000", "155348.519000", "155348.522000", "155348.525000", "155348.527000", "155348.530000", "155348.532000", "155348.535000", "155348.537000", "155428.098000", "155428.102000", "155428.104000", "155428.107000", "155428.110000", "155428.114000", "155428.118000", "155428.121000", "155428.124000", "155428.127000", "155428.129000", "155428.132000", "155428.135000", "155428.137000", "155428.140000", "155428.143000", "155428.145000", "155428.148000", "155428.150000", "155428.153000", "155428.155000", "155428.158000", "155428.160000", "155428.163000", "155428.165000", "155428.168000", "155508.110000", "155508.112000", "155508.115000", "155508.117000", "155508.120000", "155508.122000", "155508.125000", "155508.128000", "155508.130000", "155508.133000", "155508.135000", "155508.138000", "155508.140000", "155508.143000", "155508.145000", "155508.148000", "155508.150000", "155508.153000", "155508.155000", "155508.158000", "155508.160000", "155508.163000", "155508.165000", "155508.168000", "155508.171000", "155508.173000", "155508.176000", "155548.112000", "155548.114000", "155548.117000", "155548.120000", "155548.122000", "155548.125000", "155548.127000", "155548.130000", "155548.132000", "155548.135000", "155548.137000", "155548.140000", "155548.142000", "155548.145000", "155548.147000", "155548.150000", "155548.152000", "155548.155000", "155548.157000", "155548.160000", "155548.162000", "155548.165000", "155548.168000", "155548.170000", "155548.173000", "155548.175000", "155548.178000", "155628.121000", "155628.124000", "155628.126000", "155628.129000", "155628.131000", "155628.134000", "155628.136000", "155628.139000", "155628.142000", "155628.144000", "155628.147000", "155628.149000", "155628.152000", "155628.154000", "155628.157000", "155628.159000", "155628.162000", "155628.165000", "155628.167000", "155628.170000", "155628.172000", "155628.175000", "155628.177000", "155628.180000", "155628.182000", "155628.185000", "155628.188000", "155708.169000", "155708.171000", "155708.174000", "155708.177000", "155708.179000", "155708.182000", "155708.184000", "155708.187000", "155708.189000", "155708.192000", "155708.194000", "155708.197000", "155708.199000", "155708.202000", "155708.204000", "155708.207000", "155708.210000", "155708.212000", "155708.215000", "155708.217000", "155708.220000", "155708.222000", "155708.225000", "155708.227000", "155708.230000", "155708.232000", "155708.235000", "155748.101000", "155748.104000", "155748.106000", "155748.109000", "155748.111000", "155748.114000", "155748.116000", "155748.119000", "155748.121000", "155748.124000", "155748.126000", "155748.129000", "155748.131000", "155748.134000", "155748.137000", "155748.139000", "155748.142000", "155748.144000", "155748.147000", "155748.149000", "155748.152000", "155748.154000", "155748.157000", "155748.159000", "155748.162000", "155748.164000", "155748.167000", "155828.133000", "155828.136000", "155828.139000", "155828.141000", "155828.144000", "155828.146000", "155828.149000", "155828.151000", "155828.154000", "155828.156000", "155828.159000", "155828.161000", "155828.164000", "155828.166000", "155828.169000", "155828.171000", "155828.174000", "155828.176000", "155828.179000", "155828.181000", "155828.184000", "155828.187000", "155828.189000", "155828.192000", "155828.194000", "155828.197000", "155908.096000", "155908.099000", "155908.102000", "155908.104000", "155908.107000", "155908.109000", "155908.112000", "155908.114000", "155908.117000", "155908.119000", "155908.122000", "155908.125000", "155908.127000", "155908.130000", "155908.132000", "155908.135000", "155908.137000", "155908.140000", "155908.142000", "155908.145000", "155908.148000", "155908.150000", "155908.153000", "155908.155000", "155908.158000", "155908.160000", "155908.163000", "155910.548000", "155910.550000"],
