{
  "AcquisitionMatrixPE": 104,
  "AcquisitionNumber": 1,
  "AcquisitionTime": "15:48:2.060000",
  "BandwidthPerPixelPhaseEncode": 17.17,
  "BaseResolution": 104,
  "BodyPartExamined": "BRAIN",
  "CoilCombinationMethod": "Sum of Squares",
  "ConsistencyInfo": "N4_VE11C_LATEST_20160120",
  "ConversionSoftware": "dcm2niix",
  "ConversionSoftwareVersion": "v1.0.20211006",
  "DerivedVendorReportedEchoSpacing": 0.000560011,
  "DeviceSerialNumber": "167006",
  "DwellTime": 2.1e-06,
  "EchoTime": 0.037,
  "EchoTrainLength": 104,
  "EffectiveEchoSpacing": 0.000560011,
  "FlipAngle": 52,
  "HeudiconvVersion": "0.10.0",
  "ImageComments": "Unaliased MB4/PE3/LB",
  "ImageOrientationPatientDICOM": [0.999328, -0.0352106, 0.0101907, 0.0366437, 0.952518, -0.302269],
  "ImageOrientationText": "Tra>Cor(-17.6)>Sag(-0.1)",
  "ImageType": [
    "ORIGINAL",
    "PRIMARY",
    "M",
    "MB",
    "ND",
    "MOSAIC"
],
  "ImagingFrequency": 123.259,
  "InPlanePhaseEncodingDirectionDICOM": "COL",
  "InstitutionAddress": "Chemin Queen-Mary 4565,Montreal,District,CA,H3W 1W5",
  "InstitutionName": "IUGM",
  "InstitutionalDepartmentName": "Department",
  "MRAcquisitionType": "2D",
  "MagneticFieldStrength": 3,
  "Manufacturer": "Siemens",
  "ManufacturersModelName": "Prisma_fit",
  "MatrixCoilMode": "SENSE",
  "Modality": "MR",
  "MultibandAccelerationFactor": 4,
  "PartialFourier": 1,
  "PatientPosition": "HFS",
  "PercentPhaseFOV": 100,
  "PercentSampling": 100,
  "PhaseEncodingDirection": "j",
  "PhaseEncodingSteps": 104,
  "PhaseResolution": 1,
  "PixelBandwidth": 2290,
  "ProcedureStepDescription": "games^mario",
  "ProtocolName": "func_task-mario_run-02",
  "PulseSequenceDetails": "%CustomerSeq%\\cmrr_mbep2d_bold",
  "ReceiveCoilActiveElements": "HC1-7;NC1,2",
  "ReceiveCoilName": "HeadNeck_64",
  "ReconMatrixPE": 104,
  "RepetitionTime": 1.49,
  "SAR": 0.0472972,
  "ScanOptions": "FS",
  "ScanningSequence": "EP",
  "SequenceName": "epfid2d1_104",
  "SequenceVariant": "SK\\SS",
  "SeriesDescription": "func_task-mario_run-02",
  "SeriesNumber": 13,
  "ShimSetting": [623, -7256, -8798, 607, -6, -188, -32, -18],
  "SliceThickness": 2,
  "SliceTiming": [0, 0.785, 0.1, 0.8825, 0.1975, 0.98, 0.295, 1.08, 0.3925, 1.1775, 0.49, 1.275, 0.59, 1.3725, 0.6875, 0, 0.785, 0.1, 0.8825, 0.1975, 0.98, 0.295, 1.08, 0.3925, 1.1775, 0.49, 1.275, 0.59, 1.3725, 0.6875, 0, 0.785, 0.1, 0.8825, 0.1975, 0.98, 0.295, 1.08, 0.3925, 1.1775, 0.49, 1.275, 0.59, 1.3725, 0.6875, 0, 0.785, 0.1, 0.8825, 0.1975, 0.98, 0.295, 1.08, 0.3925, 1.1775, 0.49, 1.275, 0.59, 1.3725, 0.6875],
  "SoftwareVersions": "syngo MR E11",
  "SpacingBetweenSlices": 2,
  "StationName": "MRC35049",
  "TaskName": "mario",
  "TotalReadoutTime": 0.0576811,
  "TxRefAmp": 246.487,
  "WipMemBlock": "3769b973-2e0c-4205-975e-e880be8e6e45||Sequence: R016 ve11c/master r/e634e98; Dec 19 2017 11:00:25 by eja",
  "dcmmeta_affine": [
    [-1.998655915260315, 0.07328733056783676, -0.001872396096587181, 103.4748764038086],
    [0.07042112946510315, 1.905036449432373, -0.6048775911331177, -70.48664855957031],
    [0.020381441339850426, 0.6045370101928711, 1.9063366651535034, -57.91292953491211],
    [0.0, 0.0, 0.0, 1.0]
],
  "dcmmeta_reorient_transform": [
    [0.0, -1.0, 0.0, 103.0],
    [1.0, 0.0, 0.0, 0.0],
    [0.0, 0.0, 1.0, 0.0],
    [0.0, 0.0, 0.0, 1.0]
],
  "dcmmeta_shape": [104, 104, 60, 448],
  "dcmmeta_slice_dim": 2,
  "dcmmeta_version": 0.6,
  "global": {
    "const": {
      "AcquisitionMatrix": [104, 0, 0, 104],
      "AngioFlag": "N",
      "BitsAllocated": 16,
      "BitsStored": 16,
      "BodyPartExamined": "BRAIN",
      "Columns": 832,
      "EchoNumbers": 1,
      "EchoTime": 37.0,
      "EchoTrainLength": 104,
      "FlipAngle": 52.0,
      "HighBit": 15,
      "ImageOrientationPatient": [0.9993279568461, -0.0352105649313, 0.01019072043704, 0.03664366519599, 0.95251823491122, -0.3022685130188],
      "ImagePositionPatient": [-865.21081208159, -793.53209278196, 216.98701780062],
      "ImageType": [
        "ORIGINAL",
        "PRIMARY",
        "M",
        "MB",
        "ND",
        "MOSAIC"
],
      "ImagedNucleus": "1H",
      "ImagingFrequency": 123.258805,
      "InPlanePhaseEncodingDirection": "COL",
      "MRAcquisitionType": "2D",
      "MagneticFieldStrength": 3.0,
      "Manufacturer": "SIEMENS",
      "ManufacturerModelName": "Prisma_fit",
      "Modality": "MR",
      "NumberOfAverages": 1.0,
      "NumberOfPhaseEncodingSteps": 104,
      "PercentPhaseFieldOfView": 100.0,
      "PercentSampling": 100.0,
      "PerformedProcedureStepStartTime": "143547.297000",
      "PhotometricInterpretation": "MONOCHROME2",
      "PixelBandwidth": 2290.0,
      "PixelRepresentation": 0,
      "PixelSpacing": [2.0, 2.0],
      "ProtocolName": "func_task-mario_run-02",
      "RepetitionTime": 1490.0,
      "Rows": 832,
      "SAR": 0.04729723189857,
      "SamplesPerPixel": 1,
      "ScanOptions": "FS",
      "ScanningSequence": "EP",
      "SequenceName": "epfid2d1_104",
      "SequenceVariant": [
        "SK",
        "SS"
],
      "SeriesDescription": "func_task-mario_run-02",
      "SeriesNumber": 13,
      "SeriesTime": "154927.990000",
      "SliceLocation": -33.979746490478,
      "SliceThickness": 2.0,
      "SmallestImagePixelValue": 0,
      "SoftwareVersions": "syngo MR E11",
      "SpacingBetweenSlices": 1.9999999424457,
      "SpecificCharacterSet": "ISO_IR 100",
      "StudyID": "1",
      "StudyTime": "143547.219000",
      "TransmitCoilName": "Body",
      "VariableFlipAngleFlag": "N",
      "WindowCenterWidthExplanation": "Algo1",
      "dBdt": 0.0},
    "slices": {}
  },
  "time": {
    "samples": {
      "AcquisitionNumber": [1, 2, 3, 4, 5, 6, 7, 8, 9, 10, 11, 12, 13, 14, 15, 16, 17, 18, 19, 20, 21, 22, 23, 24, 25, 26, 27, 28, 29, 30, 31, 32, 33, 34, 35, 36, 37, 38, 39, 40, 41, 42, 43, 44, 45, 46, 47, 48, 49, 50, 51, 52, 53, 54, 55, 56, 57, 58, 59, 60, 61, 62, 63, 64, 65, 66, 67, 68, 69, 70, 71, 72, 73, 74, 75, 76, 77, 78, 79, 80, 81, 82, 83, 84, 85, 86, 87, 88, 89, 90, 91, 92, 93, 94, 95, 96, 97, 98, 99, 100, 101, 102, 103, 104, 105, 106, 107, 108, 109, 110, 111, 112, 113, 114, 115, 116, 117, 118, 119, 120, 121, 122, 123, 124, 125, 126, 127, 128, 129, 130, 131, 132, 133, 134, 135, 136, 137, 138, 139, 140, 141, 142, 143, 144, 145, 146, 147, 148, 149, 150, 151, 152, 153, 154, 155, 156, 157, 158, 159, 160, 161, 162, 163, 164, 165, 166, 167, 168, 169, 170, 171, 172, 173, 174, 175, 176, 177, 178, 179, 180, 181, 182, 183, 184, 185, 186, 187, 188, 189, 190, 191, 192, 193, 194, 195, 196, 197, 198, 199, 200, 201, 202, 203, 204, 205, 206, 207, 208, 209, 210, 211, 212, 213, 214, 215, 216, 217, 218, 219, 220, 221, 222, 223, 224, 225, 226, 227, 228, 229, 230, 231, 232, 233, 234, 235, 236, 237, 238, 239, 240, 241, 242, 243, 244, 245, 246, 247, 248, 249, 250, 251, 252, 253, 254, 255, 256, 257, 258, 259, 260, 261, 262, 263, 264, 265, 266, 267, 268, 269, 270, 271, 272, 273, 274, 275, 276, 277, 278, 279, 280, 281, 282, 283, 284, 285, 286, 287, 288, 289, 290, 291, 292, 293, 294, 295, 296, 297, 298, 299, 300, 301, 302, 303, 304, 305, 306, 307, 308, 309, 310, 311, 312, 313, 314, 315, 316, 317, 318, 319, 320, 321, 322, 323, 324, 325, 326, 327, 328, 329, 330, 331, 332, 333, 334, 335, 336, 337, 338, 339, 340, 341, 342, 343, 344, 345, 346, 347, 348, 349, 350, 351, 352, 353, 354, 355, 356, 357, 358, 359, 360, 361, 362, 363, 364, 365, 366, 367, 368, 369, 370, 371, 372, 373, 374, 375, 376, 377, 378, 379, 380, 381, 382, 383, 384, 385, 386, 387, 388, 389, 390, 391, 392, 393, 394, 395, 396, 397, 398, 399, 400, 401, 402, 403, 404, 405, 406, 407, 408, 409, 410, 411, 412, 413, 414, 415, 416, 417, 418, 419, 420, 421, 422, 423, 424, 425, 426, 427, 428, 429, 430, 431, 432, 433, 434, 435, 436, 437, 438, 439, 440, 441, 442, 443, 444, 445, 446, 447, 448],
      "AcquisitionTime": ["154802.060000", "154803.550000", "154805.040000", "154806.530000", "154808.020000", "154809.510000", "154811.000000", "154812.490000", "154813.980000", "154815.470000", "154816.960000", "154818.450000", "154819.940000", "154821.430000", "154822.920000", "154824.410000", "154825.900000", "154827.390000", "154828.880000", "154830.370000", "154831.860000", "154833.350000", "154834.840000", "154836.330000", "154837.820000", "154839.310000", "154840.800000", "154842.290000", "154843.780000", "154845.270000", "154846.760000", "154848.250000", "154849.740000", "154851.230000", "154852.720000", "154854.210000", "154855.700000", "154857.190000", "154858.680000", "154900.170000", "154901.660000", "154903.150000", "154904.640000", "154906.130000", "154907.620000", "154909.110000", "154910.600000", "154912.090000", "154913.580000", "154915.070000", "154916.560000", "154918.050000", "154919.540000", "154921.030000", "154922.520000", "154924.010000", "154925.500000", "154926.990000", "154928.480000", "154929.970000", "154931.460000", "154932.950000", "154934.440000", "154935.930000", "154937.420000", "154938.910000", "154940.400000", "154941.890000", "154943.380000", "154944.870000", "154946.360000", "154947.850000", "154949.340000", "154950.830000", "154952.320000", "154953.810000", "154955.300000", "154956.790000", "154958.280000", "154959.770000", "155001.260000", "155002.750000", "155004.240000", "155005.730000", "155007.220000", "155008.710000", "155010.200000", "155011.690000", "155013.180000", "155014.670000", "155016.160000", "155017.650000", "155019.140000", "155020.630000", "155022.120000", "155023.610000", "155025.100000", "155026.590000", "155028.080000", "155029.570000", "155031.060000", "155032.550000", "155034.040000", "155035.530000", "155037.020000", "155038.510000", "155040.000000", "155041.490000", "155042.980000", "155044.470000", "155045.960000", "155047.450000", "155048.940000", "155050.430000", "155051.920000", "155053.410000", "155054.900000", "155056.390000", "155057.880000", "155059.370000", "155100.860000", "155102.350000", "155103.840000", "155105.330000", "155106.820000", "155108.310000", "155109.800000", "155111.290000", "155112.780000", "155114.270000", "155115.760000", "155117.250000", "155118.740000", "155120.230000", "155121.720000", "155123.210000", "155124.700000", "155126.190000", "155127.680000", "155129.170000", "155130.660000", "155132.150000", "155133.640000", "155135.130000", "155136.620000", "155138.110000", "155139.600000", "155141.090000", "155142.580000", "155144.070000", "155145.560000", "155147.050000", "155148.540000", "155150.030000", "155151.520000", "155153.010000", "155154.500000", "155155.990000", "155157.480000", "155158.970000", "155200.460000", "155201.950000", "155203.440000", "155204.930000", "155206.420000", "155207.910000", "155209.400000", "155210.890000", "155212.380000", "155213.870000", "155215.360000", "155216.850000", "155218.340000", "155219.830000", "155221.320000", "155222.810000", "155224.300000", "155225.790000", "155227.280000", "155228.770000", "155230.260000", "155231.750000", "155233.240000", "155234.730000", "155236.220000", "155237.710000", "155239.200000", "155240.690000", "155242.180000", "155243.670000", "155245.160000", "155246.650000", "155248.140000", "155249.630000", "155251.120000", "155252.610000", "155254.100000", "155255.590000", "155257.080000", "155258.570000", "155300.060000", "155301.550000", "155303.040000", "155304.530000", "155306.020000", "155307.510000", "155309.000000", "155310.490000", "155311.980000", "155313.470000", "155314.960000", "155316.450000", "155317.940000", "155319.430000", "155320.920000", "155322.410000", "155323.900000", "155325.390000", "155326.880000", "155328.370000", "155329.860000", "155331.350000", "155332.840000", "155334.330000", "155335.820000", "155337.310000", "155338.800000", "155340.290000", "155341.780000", "155343.270000", "155344.760000", "155346.250000", "155347.740000", "155349.230000", "155350.720000", "155352.210000", "155353.700000", "155355.190000", "155356.680000", "155358.170000", "155359.660000", "155401.150000", "155402.640000", "155404.130000", "155405.620000", "155407.110000", "155408.600000", "155410.090000", "155411.580000", "155413.070000", "155414.560000", "155416.050000", "155417.540000", "155419.030000", "155420.520000", "155422.010000", "155423.500000", "155424.990000", "155426.480000", "155427.970000", "155429.460000", "155430.950000", "155432.440000", "155433.930000", "155435.420000", "155436.910000", "155438.400000", "155439.890000", "155441.380000", "155442.870000", "155444.360000", "155445.850000", "155447.340000", "155448.830000", "155450.320000", "155451.810000", "155453.300000", "155454.790000", "155456.280000", "155457.770000", "155459.260000", "155500.750000", "155502.240000", "155503.730000", "155505.220000", "155506.710000", "155508.200000", "155509.690000", "155511.180000", "155512.670000", "155514.160000", "155515.650000", "155517.140000", "155518.630000", "155520.120000", "155521.610000", "155523.100000", "155524.590000", "155526.080000", "155527.570000", "155529.060000", "155530.550000", "155532.040000", "155533.530000", "155535.020000", "155536.510000", "155538.000000", "155539.490000", "155540.980000", "155542.470000", "155543.960000", "155545.450000", "155546.940000", "155548.430000", "155549.920000", "155551.410000", "155552.900000", "155554.390000", "155555.880000", "155557.370000", "155558.860000", "155600.350000", "155601.840000", "155603.330000", "155604.820000", "155606.310000", "155607.800000", "155609.290000", "155610.780000", "155612.270000", "155613.760000", "155615.250000", "155616.740000", "155618.230000", "155619.720000", "155621.210000", "155622.700000", "155624.190000", "155625.680000", "155627.170000", "155628.660000", "155630.150000", "155631.640000", "155633.130000", "155634.620000", "155636.110000", "155637.600000", "155639.090000", "155640.580000", "155642.070000", "155643.560000", "155645.050000", "155646.540000", "155648.030000", "155649.520000", "155651.010000", "155652.500000", "155653.990000", "155655.480000", "155656.970000", "155658.460000", "155659.950000", "155701.440000", "155702.930000", "155704.420000", "155705.910000", "155707.400000", "155708.890000", "155710.380000", "155711.870000", "155713.360000", "155714.850000", "155716.340000", "155717.830000", "155719.320000", "155720.810000", "155722.300000", "155723.790000", "155725.280000", "155726.770000", "155728.260000", "155729.750000", "155731.240000", "155732.730000", "155734.220000", "155735.710000", "155737.200000", "155738.690000", "155740.180000", "155741.670000", "155743.160000", "155744.650000", "155746.140000", "155747.630000", "155749.120000", "155750.610000", "155752.100000", "155753.590000", "155755.080000", "155756.570000", "155758.060000", "155759.550000", "155801.040000", "155802.530000", "155804.020000", "155805.510000", "155807.000000", "155808.490000", "155809.980000", "155811.470000", "155812.960000", "155814.450000", "155815.940000", "155817.430000", "155818.920000", "155820.410000", "155821.900000", "155823.390000", "155824.880000", "155826.370000", "155827.860000", "155829.350000", "155830.840000", "155832.330000", "155833.820000", "155835.310000", "155836.800000", "155838.290000", "155839.780000", "155841.270000", "155842.760000", "155844.250000", "155845.740000", "155847.230000", "155848.720000", "155850.210000", "155851.700000", "155853.190000", "155854.680000", "155856.170000", "155857.660000", "155859.150000", "155900.640000", "155902.130000", "155903.620000", "155905.110000", "155906.600000", "155908.090000"],
      "ContentTime": ["154927.993000", "154927.996000", "154928.001000", "154928.015000", "154928.018000", "154928.022000", "154928.025000", "154928.028000", "154928.032000", "154928.035000", "154928.038000", "154928.042000", "154928.045000", "154928.049000", "154928.052000", "154928.056000", "154928.059000", "154928.062000", "154928.066000", "154928.069000", "154928.072000", "154928.076000", "154928.079000", "154928.082000", "154928.086000", "154928.089000", "154928.092000", "154928.096000", "154928.099000", "154928.114000", "154928.117000", "154928.121000", "154947.962000", "154947.966000", "154947.969000", "154947.973000", "154947.976000", "154947.979000", "154947.983000", "154947.986000", "154947.989000", "154947.993000", "154947.996000", "154948.000000", "154948.004000", "154948.007000", "154948.011000", "154948.014000", "154948.017000", "154948.021000", "154948.024000", "154948.027000", "155007.962000", "155007.966000", "155007.969000", "155007.973000", "155007.976000", "155007.979000", "155007.983000", "155007.986000", "155007.989000", "155007.993000", "155007.996000", "155007.999000", "155008.003000", "155008.006000", "155008.009000", "155008.013000", "155008.016000", "155008.020000", "155008.023000", "155008.026000", "155027.962000", "155027.966000", "155027.969000", "155027.973000", "155027.976000", "155027.979000", "155027.983000", "155027.986000", "155027.989000", "155027.993000", "155027.996000", "155028.000000", "155028.007000", "155028.011000", "155028.014000", "155028.017000", "155028.021000", "155028.024000", "155028.028000", "155028.031000", "155107.962000", "155107.966000", "155107.969000", "155107.973000", "155107.976000", "155107.979000", "155107.983000", "155107.986000", "155107.990000", "155107.993000", "155107.996000", "155108.001000", "155108.004000", "155108.007000", "155108.011000", "155108.014000", "155108.017000", "155108.021000", "155108.024000", "155108.027000", "155108.031000", "155108.034000", "155108.038000", "155108.041000", "155108.044000", "155108.048000", "155108.051000", "155108.054000", "155108.058000", "155108.061000", "155108.064000", "155108.068000", "155147.962000", "155147.966000", "155147.969000", "155147.973000", "155147.976000", "155147.979000", "155147.983000", "155147.986000", "155147.989000", "155147.993000", "155147.996000", "155148.000000", "155148.004000", "155148.007000", "155148.010000", "155148.014000", "155148.017000", "155148.021000", "155148.024000", "155148.027000", "155148.031000", "155148.034000", "155148.037000", "155148.041000", "155148.044000", "155148.047000", "155148.051000", "155227.962000", "155227.966000", "155227.969000", "155227.973000", "155227.976000", "155227.979000", "155227.983000", "155227.986000", "155227.990000", "155227.993000", "155227.996000", "155228.001000", "155228.004000", "155228.008000", "155228.011000", "155228.014000", "155228.018000", "155228.021000", "155228.024000", "155228.028000", "155228.031000", "155228.034000", "155228.038000", "155228.041000", "155228.045000", "155228.048000", "155228.057000", "155307.962000", "155307.966000", "155307.969000", "155307.973000", "155307.976000", "155307.980000", "155307.983000", "155307.986000", "155307.990000", "155307.993000", "155307.997000", "155308.001000", "155308.004000", "155308.008000", "155308.011000", "155308.014000", "155308.018000", "155308.021000", "155308.025000", "155308.028000", "155308.031000", "155308.035000", "155308.038000", "155308.042000", "155308.045000", "155308.048000", "155308.052000", "155347.963000", "155347.967000", "155347.970000", "155347.974000", "155347.977000", "155347.981000", "155347.984000", "155347.987000", "155347.991000", "155347.994000", "155347.997000", "155348.002000", "155348.005000", "155348.009000", "155348.012000", "155348.015000", "155348.019000", "155348.022000", "155348.026000", "155348.029000", "155348.032000", "155348.036000", "155348.039000", "155348.058000", "155348.062000", "155348.065000", "155348.068000", "155427.962000", "155427.966000", "155427.970000", "155427.974000", "155427.977000", "155427.981000", "155427.984000", "155427.987000", "155427.991000", "155427.994000", "155427.998000", "155428.001000", "155428.004000", "155428.008000", "155428.011000", "155428.014000", "155428.018000", "155428.021000", "155428.025000", "155428.028000", "155428.031000", "155428.035000", "155428.038000", "155428.041000", "155428.045000", "155428.048000", "155507.962000", "155507.966000", "155507.969000", "155507.973000", "155507.976000", "155507.979000", "155507.983000", "155507.986000", "155507.989000", "155507.993000", "155507.996000", "155508.001000", "155508.004000", "155508.007000", "155508.011000", "155508.014000", "155508.017000", "155508.021000", "155508.024000", "155508.027000", "155508.031000", "155508.034000", "155508.037000", "155508.041000", "155508.044000", "155508.047000", "155508.051000", "155547.962000", "155547.966000", "155547.969000", "155547.973000", "155547.976000", "155547.980000", "155547.983000", "155547.986000", "155547.990000", "155547.993000", "155547.997000", "155548.000000", "155548.004000", "155548.007000", "155548.011000", "155548.014000", "155548.017000", "155548.021000", "155548.024000", "155548.027000", "155548.031000", "155548.034000", "155548.037000", "155548.041000", "155548.044000", "155548.048000", "155548.051000", "155627.976000", "155627.980000", "155627.983000", "155627.986000", "155627.990000", "155628.003000", "155628.006000", "155628.009000", "155628.013000", "155628.016000", "155628.019000", "155628.023000", "155628.026000", "155628.030000", "155628.033000", "155628.036000", "155628.040000", "155628.043000", "155628.047000", "155628.050000", "155628.054000", "155628.057000", "155628.060000", "155628.064000", "155628.067000", "155628.071000", "155628.074000", "155707.962000", "155708.029000", "155708.032000", "155708.035000", "155708.039000", "155708.042000", "155708.046000", "155708.049000", "155708.052000", "155708.056000", "155708.059000", "155708.062000", "155708.066000", "155708.069000", "155708.073000", "155708.076000", "155708.079000", "155708.083000", "155708.086000", "155708.089000", "155708.093000", "155708.096000", "155708.099000", "155708.103000", "155708.106000", "155708.110000", "155708.113000", "155747.962000", "155747.966000", "155747.969000", "155747.973000", "155747.976000", "155747.979000", "155747.983000", "155747.986000", "155747.990000", "155747.993000", "155747.997000", "155748.001000", "155748.006000", "155748.009000", "155748.013000", "155748.016000", "155748.019000", "155748.023000", "155748.026000", "155748.029000", "155748.033000", "155748.036000", "155748.039000", "155748.043000", "155748.046000", "155748.049000", "155748.053000", "155827.963000", "155827.967000", "155827.970000", "155827.974000", "155827.977000", "155827.981000", "155827.984000", "155827.988000", "155827.992000", "155827.998000", "155828.001000", "155828.005000", "155828.009000", "155828.012000", "155828.016000", "155828.020000", "155828.023000", "155828.026000", "155828.030000", "155828.033000", "155828.037000", "155828.040000", "155828.057000", "155828.060000", "155828.064000", "155828.067000", "155907.963000", "155907.966000", "155907.970000", "155907.973000", "155907.976000", "155907.979000", "155907.983000", "155907.986000", "155907.990000", "155907.993000", "155907.996000", "155908.000000", "155908.003000", "155908.007000", "155908.010000", "155908.013000", "155908.017000", "155908.020000", "155908.024000", "155908.027000", "155908.030000", "155908.034000", "155908.037000", "155908.040000", "155908.044000", "155908.047000", "155908.050000", "155910.520000", "155910.523000"],
