{
  "AcquisitionMatrixPE": 104,
  "AcquisitionNumber": 1,
  "AcquisitionTime": "16:00:9.725000",
  "BandwidthPerPixelPhaseEncode": 17.17,
  "BaseResolution": 104,
  "BodyPartExamined": "BRAIN",
  "CoilCombinationMethod": "Sum of Squares",
  "ConsistencyInfo": "N4_VE11C_LATEST_20160120",
  "ConversionSoftware": "dcm2niix",
  "ConversionSoftwareVersion": "v1.0.20211006",
  "DerivedVendorReportedEchoSpacing": 0.000560011,
  "DeviceSerialNumber": "167006",
  "DwellTime": 2.1e-06,
  "EchoTime": 0.037,
  "EchoTime1": 0.037,
  "EchoTime2": 0.001,
  "EchoTrainLength": 104,
  "EffectiveEchoSpacing": 0.000560011,
  "FlipAngle": 52,
  "HeudiconvVersion": "0.10.0",
  "ImageComments": "Unaliased MB4/PE3/LB",
  "ImageOrientationPatientDICOM": [0.999328, -0.0352106, 0.0101907, 0.0366437, 0.952518, -0.302269],
  "ImageOrientationText": "Tra>Cor(-17.6)>Sag(-0.1)",
  "ImageType": [
    "ORIGINAL",
    "PRIMARY",
    "P",
    "MB",
    "ND",
    "MOSAIC",
    "PHASE"
],
  "ImagingFrequency": 123.259,
  "InPlanePhaseEncodingDirectionDICOM": "COL",
  "InstitutionAddress": "Chemin Queen-Mary 4565,Montreal,District,CA,H3W 1W5",
  "InstitutionName": "IUGM",
  "InstitutionalDepartmentName": "Department",
  "MRAcquisitionType": "2D",
  "MagneticFieldStrength": 3,
  "Manufacturer": "Siemens",
  "ManufacturersModelName": "Prisma_fit",
  "MatrixCoilMode": "SENSE",
  "Modality": "MR",
  "MultibandAccelerationFactor": 4,
  "PartialFourier": 1,
  "PatientPosition": "HFS",
  "PercentPhaseFOV": 100,
  "PercentSampling": 100,
  "PhaseEncodingDirection": "j",
  "PhaseEncodingSteps": 104,
  "PhaseResolution": 1,
  "PixelBandwidth": 2290,
  "ProcedureStepDescription": "games^mario",
  "ProtocolName": "func_task-mario_run-03",
  "PulseSequenceDetails": "%CustomerSeq%\\cmrr_mbep2d_bold",
  "ReceiveCoilActiveElements": "HC1-7;NC1,2",
  "ReceiveCoilName": "HeadNeck_64",
  "ReconMatrixPE": 104,
  "RepetitionTime": 1.49,
  "SAR": 0.0472972,
  "ScanOptions": "FS",
  "ScanningSequence": "EP",
  "SequenceName": "epfid2d1_104",
  "SequenceVariant": "SK\\SS",
  "SeriesDescription": "func_task-mario_run-03",
  "SeriesNumber": 17,
  "ShimSetting": [623, -7256, -8798, 607, -6, -188, -32, -18],
  "SliceThickness": 2,
  "SliceTiming": [0, 0.785, 0.1, 0.8825, 0.1975, 0.98, 0.295, 1.08, 0.3925, 1.1775, 0.49, 1.275, 0.59, 1.3725, 0.6875, 0, 0.785, 0.1, 0.8825, 0.1975, 0.98, 0.295, 1.08, 0.3925, 1.1775, 0.49, 1.275, 0.59, 1.3725, 0.6875, 0, 0.785, 0.1, 0.8825, 0.1975, 0.98, 0.295, 1.08, 0.3925, 1.1775, 0.49, 1.275, 0.59, 1.3725, 0.6875, 0, 0.785, 0.1, 0.8825, 0.1975, 0.98, 0.295, 1.08, 0.3925, 1.1775, 0.49, 1.275, 0.59, 1.3725, 0.6875],
  "SoftwareVersions": "syngo MR E11",
  "SpacingBetweenSlices": 2,
  "StationName": "MRC35049",
  "TaskName": "mario",
  "TotalReadoutTime": 0.0576811,
  "TxRefAmp": 246.487,
  "WipMemBlock": "bfe606ac-e973-41b1-9c79-176af177b891||Sequence: R016 ve11c/master r/e634e98; Dec 19 2017 11:00:25 by eja",
  "dcmmeta_affine": [
    [-1.998655915260315, 0.07328733056783676, -0.001872396096587181, 103.4748764038086],
    [0.07042112946510315, 1.905036449432373, -0.6048775911331177, -70.48664855957031],
    [0.020381441339850426, 0.6045370101928711, 1.9063366651535034, -57.91292953491211],
    [0.0, 0.0, 0.0, 1.0]
],
  "dcmmeta_reorient_transform": [
    [0.0, -1.0, 0.0, 103.0],
    [1.0, 0.0, 0.0, 0.0],
    [0.0, 0.0, 1.0, 0.0],
    [0.0, 0.0, 0.0, 1.0]
],
  "dcmmeta_shape": [104, 104, 60, 502],
  "dcmmeta_slice_dim": 2,
  "dcmmeta_version": 0.6,
  "global": {
    "const": {
      "AcquisitionMatrix": [104, 0, 0, 104],
      "AngioFlag": "N",
      "BitsAllocated": 16,
      "BitsStored": 16,
      "BodyPartExamined": "BRAIN",
      "Columns": 832,
      "EchoNumbers": 1,
      "EchoTime": 37.0,
      "EchoTrainLength": 104,
      "FlipAngle": 52.0,
      "HighBit": 15,
      "ImageOrientationPatient": [0.9993279568461, -0.0352105649313, 0.01019072043704, 0.03664366519599, 0.95251823491122, -0.3022685130188],
      "ImagePositionPatient": [-865.21081208159, -793.53209278196, 216.98701780062],
      "ImageType": [
        "ORIGINAL",
        "PRIMARY",
        "P",
        "MB",
        "ND",
        "MOSAIC"
],
      "ImagedNucleus": "1H",
      "ImagingFrequency": 123.258808,
      "InPlanePhaseEncodingDirection": "COL",
      "LargestImagePixelValue": 4095,
      "MRAcquisitionType": "2D",
      "MagneticFieldStrength": 3.0,
      "Manufacturer": "SIEMENS",
      "ManufacturerModelName": "Prisma_fit",
      "Modality": "MR",
      "NumberOfAverages": 1.0,
      "NumberOfPhaseEncodingSteps": 104,
      "PercentPhaseFieldOfView": 100.0,
      "PercentSampling": 100.0,
      "PerformedProcedureStepStartTime": "143547.297000",
      "PhotometricInterpretation": "MONOCHROME2",
      "PixelBandwidth": 2290.0,
      "PixelRepresentation": 0,
      "PixelSpacing": [2.0, 2.0],
      "ProtocolName": "func_task-mario_run-03",
      "RepetitionTime": 1490.0,
      "RescaleIntercept": -4096.0,
      "RescaleSlope": 2.0,
      "RescaleType": "US",
      "Rows": 832,
      "SAR": 0.04729723189857,
      "SamplesPerPixel": 1,
      "ScanOptions": "FS",
      "ScanningSequence": "EP",
      "SequenceName": "epfid2d1_104",
      "SequenceVariant": [
        "SK",
        "SS"
],
      "SeriesDescription": "func_task-mario_run-03",
      "SeriesNumber": 17,
      "SeriesTime": "160141.062000",
      "SliceLocation": -33.979746490478,
      "SliceThickness": 2.0,
      "SmallestImagePixelValue": 0,
      "SoftwareVersions": "syngo MR E11",
      "SpacingBetweenSlices": 1.9999999424457,
      "SpecificCharacterSet": "ISO_IR 100",
      "StudyID": "1",
      "StudyTime": "143547.219000",
      "TransmitCoilName": "Body",
      "VariableFlipAngleFlag": "N",
      "WindowCenterWidthExplanation": "Algo1",
      "dBdt": 0.0},
    "slices": {}
  },
  "time": {
    "samples": {
      "AcquisitionNumber": [1, 2, 3, 4, 5, 6, 7, 8, 9, 10, 11, 12, 13, 14, 15, 16, 17, 18, 19, 20, 21, 22, 23, 24, 25, 26, 27, 28, 29, 30, 31, 32, 33, 34, 35, 36, 37, 38, 39, 40, 41, 42, 43, 44, 45, 46, 47, 48, 49, 50, 51, 52, 53, 54, 55, 56, 57, 58, 59, 60, 61, 62, 63, 64, 65, 66, 67, 68, 69, 70, 71, 72, 73, 74, 75, 76, 77, 78, 79, 80, 81, 82, 83, 84, 85, 86, 87, 88, 89, 90, 91, 92, 93, 94, 95, 96, 97, 98, 99, 100, 101, 102, 103, 104, 105, 106, 107, 108, 109, 110, 111, 112, 113, 114, 115, 116, 117, 118, 119, 120, 121, 122, 123, 124, 125, 126, 127, 128, 129, 130, 131, 132, 133, 134, 135, 136, 137, 138, 139, 140, 141, 142, 143, 144, 145, 146, 147, 148, 149, 150, 151, 152, 153, 154, 155, 156, 157, 158, 159, 160, 161, 162, 163, 164, 165, 166, 167, 168, 169, 170, 171, 172, 173, 174, 175, 176, 177, 178, 179, 180, 181, 182, 183, 184, 185, 186, 187, 188, 189, 190, 191, 192, 193, 194, 195, 196, 197, 198, 199, 200, 201, 202, 203, 204, 205, 206, 207, 208, 209, 210, 211, 212, 213, 214, 215, 216, 217, 218, 219, 220, 221, 222, 223, 224, 225, 226, 227, 228, 229, 230, 231, 232, 233, 234, 235, 236, 237, 238, 239, 240, 241, 242, 243, 244, 245, 246, 247, 248, 249, 250, 251, 252, 253, 254, 255, 256, 257, 258, 259, 260, 261, 262, 263, 264, 265, 266, 267, 268, 269, 270, 271, 272, 273, 274, 275, 276, 277, 278, 279, 280, 281, 282, 283, 284, 285, 286, 287, 288, 289, 290, 291, 292, 293, 294, 295, 296, 297, 298, 299, 300, 301, 302, 303, 304, 305, 306, 307, 308, 309, 310, 311, 312, 313, 314, 315, 316, 317, 318, 319, 320, 321, 322, 323, 324, 325, 326, 327, 328, 329, 330, 331, 332, 333, 334, 335, 336, 337, 338, 339, 340, 341, 342, 343, 344, 345, 346, 347, 348, 349, 350, 351, 352, 353, 354, 355, 356, 357, 358, 359, 360, 361, 362, 363, 364, 365, 366, 367, 368, 369, 370, 371, 372, 373, 374, 375, 376, 377, 378, 379, 380, 381, 382, 383, 384, 385, 386, 387, 388, 389, 390, 391, 392, 393, 394, 395, 396, 397, 398, 399, 400, 401, 402, 403, 404, 405, 406, 407, 408, 409, 410, 411, 412, 413, 414, 415, 416, 417, 418, 419, 420, 421, 422, 423, 424, 425, 426, 427, 428, 429, 430, 431, 432, 433, 434, 435, 436, 437, 438, 439, 440, 441, 442, 443, 444, 445, 446, 447, 448, 449, 450, 451, 452, 453, 454, 455, 456, 457, 458, 459, 460, 461, 462, 463, 464, 465, 466, 467, 468, 469, 470, 471, 472, 473, 474, 475, 476, 477, 478, 479, 480, 481, 482, 483, 484, 485, 486, 487, 488, 489, 490, 491, 492, 493, 494, 495, 496, 497, 498, 499, 500, 501, 502],
      "AcquisitionTime": ["160009.725000", "160011.215000", "160012.705000", "160014.195000", "160015.685000", "160017.175000", "160018.665000", "160020.155000", "160021.645000", "160023.135000", "160024.625000", "160026.115000", "160027.605000", "160029.095000", "160030.585000", "160032.075000", "160033.565000", "160035.055000", "160036.545000", "160038.035000", "160039.525000", "160041.015000", "160042.505000", "160043.995000", "160045.485000", "160046.975000", "160048.465000", "160049.955000", "160051.445000", "160052.935000", "160054.425000", "160055.915000", "160057.405000", "160058.895000", "160100.385000", "160101.875000", "160103.365000", "160104.855000", "160106.345000", "160107.835000", "160109.325000", "160110.815000", "160112.305000", "160113.795000", "160115.285000", "160116.775000", "160118.265000", "160119.755000", "160121.245000", "160122.735000", "160124.225000", "160125.715000", "160127.205000", "160128.695000", "160130.185000", "160131.675000", "160133.165000", "160134.655000", "160136.145000", "160137.635000", "160139.125000", "160140.615000", "160142.105000", "160143.595000", "160145.085000", "160146.575000", "160148.065000", "160149.555000", "160151.045000", "160152.535000", "160154.025000", "160155.515000", "160157.005000", "160158.495000", "160159.985000", "160201.475000", "160202.965000", "160204.455000", "160205.945000", "160207.435000", "160208.925000", "160210.415000", "160211.905000", "160213.395000", "160214.885000", "160216.375000", "160217.865000", "160219.355000", "160220.845000", "160222.335000", "160223.825000", "160225.315000", "160226.805000", "160228.295000", "160229.785000", "160231.275000", "160232.765000", "160234.255000", "160235.745000", "160237.235000", "160238.725000", "160240.215000", "160241.705000", "160243.195000", "160244.685000", "160246.175000", "160247.665000", "160249.155000", "160250.645000", "160252.135000", "160253.625000", "160255.115000", "160256.605000", "160258.095000", "160259.585000", "160301.075000", "160302.565000", "160304.055000", "160305.545000", "160307.035000", "160308.525000", "160310.015000", "160311.505000", "160312.995000", "160314.485000", "160315.975000", "160317.465000", "160318.955000", "160320.445000", "160321.935000", "160323.425000", "160324.915000", "160326.405000", "160327.895000", "160329.385000", "160330.875000", "160332.365000", "160333.855000", "160335.345000", "160336.835000", "160338.325000", "160339.815000", "160341.305000", "160342.795000", "160344.285000", "160345.775000", "160347.265000", "160348.755000", "160350.245000", "160351.735000", "160353.225000", "160354.715000", "160356.205000", "160357.695000", "160359.185000", "160400.675000", "160402.165000", "160403.655000", "160405.145000", "160406.635000", "160408.125000", "160409.615000", "160411.105000", "160412.595000", "160414.085000", "160415.575000", "160417.065000", "160418.555000", "160420.045000", "160421.535000", "160423.025000", "160424.515000", "160426.005000", "160427.495000", "160428.985000", "160430.475000", "160431.965000", "160433.455000", "160434.945000", "160436.435000", "160437.925000", "160439.415000", "160440.905000", "160442.395000", "160443.885000", "160445.375000", "160446.865000", "160448.355000", "160449.845000", "160451.335000", "160452.825000", "160454.315000", "160455.805000", "160457.295000", "160458.785000", "160500.275000", "160501.765000", "160503.255000", "160504.745000", "160506.235000", "160507.725000", "160509.215000", "160510.705000", "160512.195000", "160513.685000", "160515.175000", "160516.665000", "160518.155000", "160519.645000", "160521.135000", "160522.625000", "160524.115000", "160525.605000", "160527.095000", "160528.585000", "160530.075000", "160531.565000", "160533.055000", "160534.545000", "160536.035000", "160537.525000", "160539.015000", "160540.505000", "160541.995000", "160543.485000", "160544.975000", "160546.465000", "160547.955000", "160549.445000", "160550.935000", "160552.425000", "160553.915000", "160555.405000", "160556.895000", "160558.385000", "160559.875000", "160601.365000", "160602.855000", "160604.345000", "160605.835000", "160607.325000", "160608.815000", "160610.305000", "160611.795000", "160613.285000", "160614.775000", "160616.265000", "160617.755000", "160619.245000", "160620.735000", "160622.225000", "160623.715000", "160625.205000", "160626.695000", "160628.185000", "160629.675000", "160631.165000", "160632.655000", "160634.145000", "160635.635000", "160637.125000", "160638.615000", "160640.105000", "160641.595000", "160643.085000", "160644.575000", "160646.065000", "160647.555000", "160649.045000", "160650.535000", "160652.025000", "160653.515000", "160655.005000", "160656.495000", "160657.985000", "160659.475000", "160700.965000", "160702.455000", "160703.945000", "160705.435000", "160706.925000", "160708.415000", "160709.905000", "160711.395000", "160712.885000", "160714.375000", "160715.865000", "160717.355000", "160718.845000", "160720.335000", "160721.825000", "160723.315000", "160724.805000", "160726.295000", "160727.785000", "160729.275000", "160730.765000", "160732.255000", "160733.745000", "160735.235000", "160736.725000", "160738.215000", "160739.705000", "160741.195000", "160742.685000", "160744.175000", "160745.665000", "160747.155000", "160748.645000", "160750.135000", "160751.625000", "160753.115000", "160754.605000", "160756.095000", "160757.585000", "160759.075000", "160800.565000", "160802.055000", "160803.545000", "160805.035000", "160806.525000", "160808.015000", "160809.505000", "160810.995000", "160812.485000", "160813.975000", "160815.465000", "160816.955000", "160818.445000", "160819.935000", "160821.425000", "160822.915000", "160824.405000", "160825.895000", "160827.385000", "160828.875000", "160830.365000", "160831.855000", "160833.345000", "160834.835000", "160836.325000", "160837.815000", "160839.305000", "160840.795000", "160842.285000", "160843.775000", "160845.265000", "160846.755000", "160848.245000", "160849.735000", "160851.225000", "160852.715000", "160854.205000", "160855.695000", "160857.185000", "160858.675000", "160900.165000", "160901.655000", "160903.145000", "160904.635000", "160906.125000", "160907.615000", "160909.105000", "160910.595000", "160912.085000", "160913.575000", "160915.065000", "160916.555000", "160918.045000", "160919.535000", "160921.025000", "160922.515000", "160924.005000", "160925.495000", "160926.985000", "160928.475000", "160929.965000", "160931.455000", "160932.945000", "160934.435000", "160935.925000", "160937.415000", "160938.905000", "160940.395000", "160941.885000", "160943.375000", "160944.865000", "160946.355000", "160947.845000", "160949.335000", "160950.825000", "160952.315000", "160953.805000", "160955.295000", "160956.785000", "160958.275000", "160959.765000", "161001.255000", "161002.745000", "161004.235000", "161005.725000", "161007.215000", "161008.705000", "161010.195000", "161011.685000", "161013.175000", "161014.665000", "161016.155000", "161017.645000", "161019.135000", "161020.625000", "161022.115000", "161023.605000", "161025.095000", "161026.585000", "161028.075000", "161029.565000", "161031.055000", "161032.545000", "161034.035000", "161035.525000", "161037.015000", "161038.505000", "161039.995000", "161041.485000", "161042.975000", "161044.465000", "161045.955000", "161047.445000", "161048.935000", "161050.425000", "161051.915000", "161053.405000", "161054.895000", "161056.385000", "161057.875000", "161059.365000", "161100.855000", "161102.345000", "161103.835000", "161105.325000", "161106.815000", "161108.305000", "161109.795000", "161111.285000", "161112.775000", "161114.265000", "161115.755000", "161117.245000", "161118.735000", "161120.225000", "161121.715000", "161123.205000", "161124.695000", "161126.185000", "161127.675000", "161129.165000", "161130.655000", "161132.145000", "161133.635000", "161135.125000", "161136.615000", "161138.105000", "161139.595000", "161141.085000", "161142.575000", "161144.065000", "161145.555000", "161147.045000", "161148.535000", "161150.025000", "161151.515000", "161153.005000", "161154.495000", "161155.985000", "161157.475000", "161158.965000", "161200.455000", "161201.945000", "161203.435000", "161204.925000", "161206.415000", "161207.905000", "161209.395000", "161210.885000", "161212.375000", "161213.865000", "161215.355000", "161216.845000", "161218.335000", "161219.825000", "161221.315000", "161222.805000", "161224.295000", "161225.785000", "161227.275000", "161228.765000", "161230.255000", "161231.745000", "161233.235000", "161234.725000", "161236.215000"],
      "ContentTime": ["160141.064000", "160141.076000", "160141.078000", "160141.081000", "160141.083000", "160141.085000", "160141.088000", "160141.090000", "160141.093000", "160141.095000", "160141.098000", "160141.100000", "160141.103000", "160141.106000", "160141.108000", "160141.111000", "160141.113000", "160141.116000", "160141.118000", "160141.121000", "160141.123000", "160141.126000", "160141.128000", "160141.131000", "160141.133000", "160141.136000", "160141.138000", "160141.141000", "160141.143000", "160141.146000", "160141.148000", "160141.151000", "160141.153000", "160141.156000", "160141.158000", "160141.161000", "160141.163000", "160200.969000", "160200.972000", "160200.974000", "160200.977000", "160200.979000", "160200.982000", "160200.984000", "160200.987000", "160200.989000", "160200.992000", "160200.994000", "160200.997000", "160201.001000", "160201.003000", "160201.006000", "160201.008000", "160201.011000", "160201.013000", "160201.016000", "160201.018000", "160201.021000", "160220.957000", "160220.960000", "160220.962000", "160220.965000", "160220.967000", "160220.970000", "160220.972000", "160220.975000", "160220.977000", "160220.980000", "160220.982000", "160220.985000", "160220.987000", "160220.990000", "160220.992000", "160220.995000", "160220.998000", "160221.001000", "160221.004000", "160221.006000", "160240.950000", "160240.953000", "160240.955000", "160240.958000", "160240.960000", "160240.963000", "160240.965000", "160240.968000", "160240.971000", "160240.973000", "160240.976000", "160240.978000", "160240.981000", "160240.983000", "160240.986000", "160240.989000", "160240.991000", "160240.994000", "160240.996000", "160241.000000", "160320.998000", "160321.001000", "160321.003000", "160321.006000", "160321.008000", "160321.011000", "160321.013000", "160321.016000", "160321.018000", "160321.021000", "160321.023000", "160321.026000", "160321.028000", "160321.031000", "160321.033000", "160321.036000", "160321.039000", "160321.041000", "160321.044000", "160321.046000", "160321.049000", "160321.051000", "160321.054000", "160321.056000", "160321.059000", "160321.062000", "160321.064000", "160321.067000", "160321.069000", "160340.934000", "160340.936000", "160340.939000", "160340.941000", "160340.944000", "160340.947000", "160340.949000", "160340.952000", "160340.954000", "160340.957000", "160340.959000", "160340.962000", "160340.964000", "160420.998000", "160421.002000", "160421.005000", "160421.008000", "160421.011000", "160421.013000", "160421.016000", "160421.018000", "160421.021000", "160421.023000", "160421.026000", "160421.028000", "160421.031000", "160421.034000", "160421.036000", "160421.039000", "160421.041000", "160421.045000", "160421.048000", "160421.051000", "160421.053000", "160421.056000", "160421.059000", "160421.062000", "160421.065000", "160421.067000", "160421.070000", "160500.983000", "160500.986000", "160500.988000", "160500.991000", "160500.993000", "160500.996000", "160500.998000", "160501.001000", "160501.003000", "160501.006000", "160501.008000", "160501.011000", "160501.013000", "160501.016000", "160501.018000", "160501.021000", "160501.024000", "160501.026000", "160501.029000", "160501.031000", "160501.034000", "160501.036000", "160501.039000", "160501.041000", "160501.044000", "160501.046000", "160501.049000", "160540.996000", "160540.999000", "160541.002000", "160541.004000", "160541.007000", "160541.009000", "160541.012000", "160541.014000", "160541.017000", "160541.019000", "160541.022000", "160541.024000", "160541.027000", "160541.030000", "160541.032000", "160541.035000", "160541.037000", "160541.040000", "160541.042000", "160541.045000", "160541.047000", "160541.050000", "160541.052000", "160541.055000", "160541.057000", "160541.060000", "160541.063000", "160620.976000", "160620.979000", "160620.982000", "160620.984000", "160620.987000", "160620.989000", "160620.992000", "160620.994000", "160620.997000", "160621.004000", "160621.013000", "160621.016000", "160621.018000", "160621.021000", "160621.023000", "160621.026000", "160621.029000", "160621.031000", "160621.034000", "160621.036000", "160621.039000", "160621.041000", "160621.044000", "160621.046000", "160621.049000", "160621.051000", "160621.054000", "160700.990000", "160700.993000", "160700.995000", "160700.998000", "160701.002000", "160701.004000", "160701.007000", "160701.009000", "160701.012000", "160701.015000", "160701.017000", "160701.020000", "160701.022000", "160701.025000", "160701.027000", "160701.030000", "160701.032000", "160701.035000", "160701.037000", "160701.040000", "160701.043000", "160701.045000", "160701.048000", "160701.050000", "160701.053000", "160701.055000", "160701.058000", "160741.020000", "160741.023000", "160741.025000", "160741.028000", "160741.031000", "160741.033000", "160741.036000", "160741.038000", "160741.041000", "160741.043000", "160741.046000", "160741.048000", "160741.051000", "160741.053000", "160741.056000", "160741.058000", "160741.061000", "160741.064000", "160741.066000", "160741.069000", "160741.071000", "160741.074000", "160741.076000", "160741.079000", "160741.081000", "160741.084000", "160741.087000", "160821.000000", "160821.003000", "160821.006000", "160821.008000", "160821.011000", "160821.013000", "160821.016000", "160821.018000", "160821.021000", "160821.023000", "160821.026000", "160821.029000", "160821.031000", "160821.034000", "160821.036000", "160821.039000", "160821.041000", "160821.044000", "160821.046000", "160821.049000", "160821.051000", "160821.054000", "160821.056000", "160821.059000", "160821.066000", "160821.069000", "160900.991000", "160900.994000", "160900.997000", "160900.999000", "160901.002000", "160901.005000", "160901.007000", "160901.010000", "160901.012000", "160901.015000", "160901.018000", "160901.020000", "160901.023000", "160901.027000", "160901.030000", "160901.032000", "160901.035000", "160901.037000", "160901.040000", "160901.043000", "160901.045000", "160901.048000", "160901.051000", "160901.053000", "160901.056000", "160901.058000", "160901.061000", "160940.981000", "160940.984000", "160940.987000", "160940.989000", "160940.992000", "160940.994000", "160940.997000", "160940.999000", "160941.002000", "160941.005000", "160941.007000", "160941.010000", "160941.012000", "160941.015000", "160941.017000", "160941.020000", "160941.022000", "160941.025000", "160941.027000", "160941.030000", "160941.032000", "160941.035000", "160941.037000", "160941.040000", "160941.043000", "160941.045000", "160941.048000", "161020.983000", "161020.986000", "161020.989000", "161020.991000", "161020.994000", "161020.996000", "161020.999000", "161021.001000", "161021.004000", "161021.007000", "161021.009000", "161021.012000", "161021.014000", "161021.017000", "161021.019000", "161021.022000", "161021.024000", "161021.027000", "161021.029000", "161021.032000", "161021.034000", "161021.037000", "161021.040000", "161021.042000", "161021.045000", "161021.047000", "161021.050000", "161100.987000", "161100.990000", "161100.992000", "161100.995000", "161100.997000", "161101.000000", "161101.002000", "161101.005000", "161101.007000", "161101.010000", "161101.012000", "161101.015000", "161101.018000", "161101.020000", "161101.023000", "161101.025000", "161101.028000", "161101.030000", "161101.033000", "161101.035000", "161101.038000", "161101.040000", "161101.043000", "161101.045000", "161101.048000", "161101.051000", "161101.053000", "161140.989000", "161140.992000", "161140.995000", "161140.997000", "161141.000000", "161141.002000", "161141.005000", "161141.007000", "161141.010000", "161141.013000", "161141.015000", "161141.018000", "161141.020000", "161141.023000", "161141.025000", "161141.028000", "161141.030000", "161141.033000", "161141.035000", "161141.038000", "161141.041000", "161141.043000", "161141.046000", "161141.048000", "161141.051000", "161141.053000", "161141.056000", "161220.992000", "161220.995000", "161220.997000", "161221.000000", "161221.002000", "161221.005000", "161221.008000", "161221.010000", "161221.013000", "161221.015000", "161221.018000", "161221.020000", "161221.023000", "161221.025000", "161221.028000", "161221.030000", "161221.033000", "161221.035000", "161221.038000", "161221.040000", "161221.043000", "161221.045000", "161221.048000", "161221.050000", "161221.053000", "161221.056000", "161221.058000", "161239.120000", "161239.123000", "161239.125000", "161239.128000", "161239.130000", "161239.133000", "161239.136000", "161239.138000", "161239.141000", "161239.144000", "161239.146000", "161239.149000"],
