{
  "AcquisitionMatrixPE": 104,
  "AcquisitionNumber": 1,
  "AcquisitionTime": "15:32:57.982500",
  "BandwidthPerPixelPhaseEncode": 17.17,
  "BaseResolution": 104,
  "BodyPartExamined": "BRAIN",
  "CoilCombinationMethod": "Sum of Squares",
  "ConsistencyInfo": "N4_VE11C_LATEST_20160120",
  "ConversionSoftware": "dcm2niix",
  "ConversionSoftwareVersion": "v1.0.20211006",
  "DerivedVendorReportedEchoSpacing": 0.000560011,
  "DeviceSerialNumber": "167006",
  "DwellTime": 2.1e-06,
  "EchoTime": 0.037,
  "EchoTime1": 0.037,
  "EchoTime2": 0.001,
  "EchoTrainLength": 104,
  "EffectiveEchoSpacing": 0.000560011,
  "FlipAngle": 52,
  "HeudiconvVersion": "0.10.0",
  "ImageComments": "Unaliased MB4/PE3/LB",
  "ImageOrientationPatientDICOM": [0.999328, -0.0352106, 0.0101907, 0.0366437, 0.952518, -0.302269],
  "ImageOrientationText": "Tra>Cor(-17.6)>Sag(-0.1)",
  "ImageType": [
    "ORIGINAL",
    "PRIMARY",
    "P",
    "MB",
    "ND",
    "MOSAIC",
    "PHASE"
],
  "ImagingFrequency": 123.259,
  "InPlanePhaseEncodingDirectionDICOM": "COL",
  "InstitutionAddress": "Chemin Queen-Mary 4565,Montreal,District,CA,H3W 1W5",
  "InstitutionName": "IUGM",
  "InstitutionalDepartmentName": "Department",
  "MRAcquisitionType": "2D",
  "MagneticFieldStrength": 3,
  "Manufacturer": "Siemens",
  "ManufacturersModelName": "Prisma_fit",
  "MatrixCoilMode": "SENSE",
  "Modality": "MR",
  "MultibandAccelerationFactor": 4,
  "PartialFourier": 1,
  "PatientPosition": "HFS",
  "PercentPhaseFOV": 100,
  "PercentSampling": 100,
  "PhaseEncodingDirection": "j",
  "PhaseEncodingSteps": 104,
  "PhaseResolution": 1,
  "PixelBandwidth": 2290,
  "ProcedureStepDescription": "games^mario",
  "ProtocolName": "func_task-mario_run-01",
  "PulseSequenceDetails": "%CustomerSeq%\\cmrr_mbep2d_bold",
  "ReceiveCoilActiveElements": "HC1-7;NC1,2",
  "ReceiveCoilName": "HeadNeck_64",
  "ReconMatrixPE": 104,
  "RepetitionTime": 1.49,
  "SAR": 0.0472972,
  "ScanOptions": "FS",
  "ScanningSequence": "EP",
  "SequenceName": "epfid2d1_104",
  "SequenceVariant": "SK\\SS",
  "SeriesDescription": "func_task-mario_run-01",
  "SeriesNumber": 11,
  "ShimSetting": [623, -7256, -8798, 607, -6, -188, -32, -18],
  "SliceThickness": 2,
  "SliceTiming": [0, 0.785, 0.0975, 0.8825, 0.1975, 0.98, 0.295, 1.0775, 0.3925, 1.1775, 0.49, 1.275, 0.5875, 1.3725, 0.6875, 0, 0.785, 0.0975, 0.8825, 0.1975, 0.98, 0.295, 1.0775, 0.3925, 1.1775, 0.49, 1.275, 0.5875, 1.3725, 0.6875, 0, 0.785, 0.0975, 0.8825, 0.1975, 0.98, 0.295, 1.0775, 0.3925, 1.1775, 0.49, 1.275, 0.5875, 1.3725, 0.6875, 0, 0.785, 0.0975, 0.8825, 0.1975, 0.98, 0.295, 1.0775, 0.3925, 1.1775, 0.49, 1.275, 0.5875, 1.3725, 0.6875],
  "SoftwareVersions": "syngo MR E11",
  "SpacingBetweenSlices": 2,
  "StationName": "MRC35049",
  "TaskName": "mario",
  "TotalReadoutTime": 0.0576811,
  "TxRefAmp": 246.487,
  "WipMemBlock": "2a313ddd-4b9e-40a1-bbd8-76952c1400ce||Sequence: R016 ve11c/master r/e634e98; Dec 19 2017 11:00:25 by eja",
  "dcmmeta_affine": [
    [-1.998655915260315, 0.07328733056783676, -0.001872396096587181, 103.4748764038086],
    [0.07042112946510315, 1.905036449432373, -0.6048775911331177, -70.48664855957031],
    [0.020381441339850426, 0.6045370101928711, 1.9063366651535034, -57.91292953491211],
    [0.0, 0.0, 0.0, 1.0]
],
  "dcmmeta_reorient_transform": [
    [0.0, -1.0, 0.0, 103.0],
    [1.0, 0.0, 0.0, 0.0],
    [0.0, 0.0, 1.0, 0.0],
    [0.0, 0.0, 0.0, 1.0]
],
  "dcmmeta_shape": [104, 104, 60, 529],
  "dcmmeta_slice_dim": 2,
  "dcmmeta_version": 0.6,
  "global": {
    "const": {
      "AcquisitionMatrix": [104, 0, 0, 104],
      "AngioFlag": "N",
      "BitsAllocated": 16,
      "BitsStored": 16,
      "BodyPartExamined": "BRAIN",
      "Columns": 832,
      "EchoNumbers": 1,
      "EchoTime": 37.0,
      "EchoTrainLength": 104,
      "FlipAngle": 52.0,
      "HighBit": 15,
      "ImageOrientationPatient": [0.9993279568461, -0.0352105649313, 0.01019072043704, 0.03664366519599, 0.95251823491122, -0.3022685130188],
      "ImagePositionPatient": [-865.21081208159, -793.53209278196, 216.98701780062],
      "ImageType": [
        "ORIGINAL",
        "PRIMARY",
        "P",
        "MB",
        "ND",
        "MOSAIC"
],
      "ImagedNucleus": "1H",
      "ImagingFrequency": 123.258794,
      "InPlanePhaseEncodingDirection": "COL",
      "LargestImagePixelValue": 4095,
      "MRAcquisitionType": "2D",
      "MagneticFieldStrength": 3.0,
      "Manufacturer": "SIEMENS",
      "ManufacturerModelName": "Prisma_fit",
      "Modality": "MR",
      "NumberOfAverages": 1.0,
      "NumberOfPhaseEncodingSteps": 104,
      "PercentPhaseFieldOfView": 100.0,
      "PercentSampling": 100.0,
      "PerformedProcedureStepStartTime": "143547.297000",
      "PhotometricInterpretation": "MONOCHROME2",
      "PixelBandwidth": 2290.0,
      "PixelRepresentation": 0,
      "PixelSpacing": [2.0, 2.0],
      "ProtocolName": "func_task-mario_run-01",
      "RepetitionTime": 1490.0,
      "RescaleIntercept": -4096.0,
      "RescaleSlope": 2.0,
      "RescaleType": "US",
      "Rows": 832,
      "SAR": 0.04729723189857,
      "SamplesPerPixel": 1,
      "ScanOptions": "FS",
      "ScanningSequence": "EP",
      "SequenceName": "epfid2d1_104",
      "SequenceVariant": [
        "SK",
        "SS"
],
      "SeriesDescription": "func_task-mario_run-01",
      "SeriesNumber": 11,
      "SeriesTime": "153359.158000",
      "SliceLocation": -33.979746490478,
      "SliceThickness": 2.0,
      "SmallestImagePixelValue": 0,
      "SoftwareVersions": "syngo MR E11",
      "SpacingBetweenSlices": 1.9999999424457,
      "SpecificCharacterSet": "ISO_IR 100",
      "StudyID": "1",
      "StudyTime": "143547.219000",
      "TransmitCoilName": "Body",
      "VariableFlipAngleFlag": "N",
      "WindowCenterWidthExplanation": "Algo1",
      "dBdt": 0.0},
    "slices": {}
  },
  "time": {
    "samples": {
      "AcquisitionNumber": [1, 2, 3, 4, 5, 6, 7, 8, 9, 10, 11, 12, 13, 14, 15, 16, 17, 18, 19, 20, 21, 22, 23, 24, 25, 26, 27, 28, 29, 30, 31, 32, 33, 34, 35, 36, 37, 38, 39, 40, 41, 42, 43, 44, 45, 46, 47, 48, 49, 50, 51, 52, 53, 54, 55, 56, 57, 58, 59, 60, 61, 62, 63, 64, 65, 66, 67, 68, 69, 70, 71, 72, 73, 74, 75, 76, 77, 78, 79, 80, 81, 82, 83, 84, 85, 86, 87, 88, 89, 90, 91, 92, 93, 94, 95, 96, 97, 98, 99, 100, 101, 102, 103, 104, 105, 106, 107, 108, 109, 110, 111, 112, 113, 114, 115, 116, 117, 118, 119, 120, 121, 122, 123, 124, 125, 126, 127, 128, 129, 130, 131, 132, 133, 134, 135, 136, 137, 138, 139, 140, 141, 142, 143, 144, 145, 146, 147, 148, 149, 150, 151, 152, 153, 154, 155, 156, 157, 158, 159, 160, 161, 162, 163, 164, 165, 166, 167, 168, 169, 170, 171, 172, 173, 174, 175, 176, 177, 178, 179, 180, 181, 182, 183, 184, 185, 186, 187, 188, 189, 190, 191, 192, 193, 194, 195, 196, 197, 198, 199, 200, 201, 202, 203, 204, 205, 206, 207, 208, 209, 210, 211, 212, 213, 214, 215, 216, 217, 218, 219, 220, 221, 222, 223, 224, 225, 226, 227, 228, 229, 230, 231, 232, 233, 234, 235, 236, 237, 238, 239, 240, 241, 242, 243, 244, 245, 246, 247, 248, 249, 250, 251, 252, 253, 254, 255, 256, 257, 258, 259, 260, 261, 262, 263, 264, 265, 266, 267, 268, 269, 270, 271, 272, 273, 274, 275, 276, 277, 278, 279, 280, 281, 282, 283, 284, 285, 286, 287, 288, 289, 290, 291, 292, 293, 294, 295, 296, 297, 298, 299, 300, 301, 302, 303, 304, 305, 306, 307, 308, 309, 310, 311, 312, 313, 314, 315, 316, 317, 318, 319, 320, 321, 322, 323, 324, 325, 326, 327, 328, 329, 330, 331, 332, 333, 334, 335, 336, 337, 338, 339, 340, 341, 342, 343, 344, 345, 346, 347, 348, 349, 350, 351, 352, 353, 354, 355, 356, 357, 358, 359, 360, 361, 362, 363, 364, 365, 366, 367, 368, 369, 370, 371, 372, 373, 374, 375, 376, 377, 378, 379, 380, 381, 382, 383, 384, 385, 386, 387, 388, 389, 390, 391, 392, 393, 394, 395, 396, 397, 398, 399, 400, 401, 402, 403, 404, 405, 406, 407, 408, 409, 410, 411, 412, 413, 414, 415, 416, 417, 418, 419, 420, 421, 422, 423, 424, 425, 426, 427, 428, 429, 430, 431, 432, 433, 434, 435, 436, 437, 438, 439, 440, 441, 442, 443, 444, 445, 446, 447, 448, 449, 450, 451, 452, 453, 454, 455, 456, 457, 458, 459, 460, 461, 462, 463, 464, 465, 466, 467, 468, 469, 470, 471, 472, 473, 474, 475, 476, 477, 478, 479, 480, 481, 482, 483, 484, 485, 486, 487, 488, 489, 490, 491, 492, 493, 494, 495, 496, 497, 498, 499, 500, 501, 502, 503, 504, 505, 506, 507, 508, 509, 510, 511, 512, 513, 514, 515, 516, 517, 518, 519, 520, 521, 522, 523, 524, 525, 526, 527, 528, 529],
      "AcquisitionTime": ["153257.982500", "153259.472500", "153300.962500", "153302.452500", "153303.942500", "153305.432500", "153306.922500", "153308.412500", "153309.902500", "153311.392500", "153312.882500", "153314.372500", "153315.862500", "153317.352500", "153318.842500", "153320.332500", "153321.822500", "153323.312500", "153324.802500", "153326.292500", "153327.782500", "153329.272500", "153330.762500", "153332.252500", "153333.742500", "153335.232500", "153336.722500", "153338.212500", "153339.702500", "153341.192500", "153342.682500", "153344.172500", "153345.662500", "153347.152500", "153348.642500", "153350.132500", "153351.622500", "153353.112500", "153354.602500", "153356.092500", "153357.582500", "153359.072500", "153400.562500", "153402.052500", "153403.542500", "153405.032500", "153406.522500", "153408.012500", "153409.502500", "153410.992500", "153412.482500", "153413.972500", "153415.462500", "153416.952500", "153418.442500", "153419.932500", "153421.422500", "153422.912500", "153424.402500", "153425.892500", "153427.382500", "153428.872500", "153430.362500", "153431.852500", "153433.342500", "153434.832500", "153436.322500", "153437.812500", "153439.302500", "153440.792500", "153442.282500", "153443.772500", "153445.262500", "153446.752500", "153448.242500", "153449.732500", "153451.222500", "153452.712500", "153454.202500", "153455.692500", "153457.182500", "153458.672500", "153500.162500", "153501.652500", "153503.142500", "153504.632500", "153506.122500", "153507.612500", "153509.102500", "153510.592500", "153512.082500", "153513.572500", "153515.062500", "153516.552500", "153518.042500", "153519.532500", "153521.022500", "153522.512500", "153524.002500", "153525.492500", "153526.982500", "153528.472500", "153529.962500", "153531.452500", "153532.942500", "153534.432500", "153535.922500", "153537.412500", "153538.902500", "153540.392500", "153541.882500", "153543.372500", "153544.862500", "153546.352500", "153547.842500", "153549.332500", "153550.822500", "153552.312500", "153553.802500", "153555.292500", "153556.782500", "153558.272500", "153559.762500", "153601.252500", "153602.742500", "153604.232500", "153605.722500", "153607.212500", "153608.702500", "153610.192500", "153611.682500", "153613.172500", "153614.662500", "153616.152500", "153617.642500", "153619.132500", "153620.622500", "153622.112500", "153623.602500", "153625.092500", "153626.582500", "153628.072500", "153629.562500", "153631.052500", "153632.542500", "153634.032500", "153635.522500", "153637.012500", "153638.502500", "153639.992500", "153641.482500", "153642.972500", "153644.462500", "153645.952500", "153647.442500", "153648.932500", "153650.422500", "153651.912500", "153653.402500", "153654.892500", "153656.382500", "153657.872500", "153659.362500", "153700.852500", "153702.342500", "153703.832500", "153705.322500", "153706.812500", "153708.302500", "153709.792500", "153711.282500", "153712.772500", "153714.262500", "153715.752500", "153717.242500", "153718.732500", "153720.222500", "153721.712500", "153723.202500", "153724.692500", "153726.182500", "153727.672500", "153729.162500", "153730.652500", "153732.142500", "153733.632500", "153735.122500", "153736.612500", "153738.102500", "153739.592500", "153741.082500", "153742.572500", "153744.062500", "153745.552500", "153747.042500", "153748.532500", "153750.022500", "153751.512500", "153753.002500", "153754.492500", "153755.982500", "153757.472500", "153758.962500", "153800.452500", "153801.942500", "153803.432500", "153804.922500", "153806.412500", "153807.902500", "153809.392500", "153810.882500", "153812.372500", "153813.862500", "153815.352500", "153816.842500", "153818.332500", "153819.822500", "153821.312500", "153822.802500", "153824.292500", "153825.782500", "153827.272500", "153828.762500", "153830.252500", "153831.742500", "153833.232500", "153834.722500", "153836.212500", "153837.702500", "153839.192500", "153840.682500", "153842.172500", "153843.662500", "153845.152500", "153846.642500", "153848.132500", "153849.622500", "153851.112500", "153852.602500", "153854.092500", "153855.582500", "153857.072500", "153858.562500", "153900.052500", "153901.542500", "153903.032500", "153904.522500", "153906.012500", "153907.502500", "153908.992500", "153910.482500", "153911.972500", "153913.462500", "153914.952500", "153916.442500", "153917.932500", "153919.422500", "153920.912500", "153922.402500", "153923.892500", "153925.382500", "153926.872500", "153928.362500", "153929.852500", "153931.342500", "153932.832500", "153934.322500", "153935.812500", "153937.302500", "153938.792500", "153940.282500", "153941.772500", "153943.262500", "153944.752500", "153946.242500", "153947.732500", "153949.222500", "153950.712500", "153952.202500", "153953.692500", "153955.182500", "153956.672500", "153958.162500", "153959.652500", "154001.142500", "154002.632500", "154004.122500", "154005.612500", "154007.102500", "154008.592500", "154010.082500", "154011.572500", "154013.062500", "154014.552500", "154016.042500", "154017.532500", "154019.022500", "154020.512500", "154022.002500", "154023.492500", "154024.982500", "154026.472500", "154027.962500", "154029.452500", "154030.942500", "154032.432500", "154033.922500", "154035.412500", "154036.902500", "154038.392500", "154039.882500", "154041.372500", "154042.862500", "154044.352500", "154045.842500", "154047.332500", "154048.822500", "154050.312500", "154051.802500", "154053.292500", "154054.782500", "154056.272500", "154057.762500", "154059.252500", "154100.742500", "154102.232500", "154103.722500", "154105.212500", "154106.702500", "154108.192500", "154109.682500", "154111.172500", "154112.662500", "154114.152500", "154115.642500", "154117.132500", "154118.622500", "154120.112500", "154121.602500", "154123.092500", "154124.582500", "154126.072500", "154127.562500", "154129.052500", "154130.542500", "154132.032500", "154133.522500", "154135.012500", "154136.502500", "154137.992500", "154139.482500", "154140.972500", "154142.462500", "154143.952500", "154145.442500", "154146.932500", "154148.422500", "154149.912500", "154151.402500", "154152.892500", "154154.382500", "154155.872500", "154157.362500", "154158.852500", "154200.342500", "154201.832500", "154203.322500", "154204.812500", "154206.302500", "154207.792500", "154209.282500", "154210.772500", "154212.262500", "154213.752500", "154215.242500", "154216.732500", "154218.222500", "154219.712500", "154221.202500", "154222.692500", "154224.182500", "154225.672500", "154227.162500", "154228.652500", "154230.142500", "154231.632500", "154233.122500", "154234.612500", "154236.102500", "154237.592500", "154239.082500", "154240.572500", "154242.062500", "154243.552500", "154245.042500", "154246.532500", "154248.022500", "154249.512500", "154251.002500", "154252.492500", "154253.982500", "154255.472500", "154256.962500", "154258.452500", "154259.942500", "154301.432500", "154302.922500", "154304.412500", "154305.902500", "154307.392500", "154308.882500", "154310.372500", "154311.862500", "154313.352500", "154314.842500", "154316.332500", "154317.822500", "154319.312500", "154320.802500", "154322.292500", "154323.782500", "154325.272500", "154326.762500", "154328.252500", "154329.742500", "154331.232500", "154332.722500", "154334.212500", "154335.702500", "154337.192500", "154338.682500", "154340.172500", "154341.662500", "154343.152500", "154344.642500", "154346.132500", "154347.622500", "154349.112500", "154350.602500", "154352.092500", "154353.582500", "154355.072500", "154356.562500", "154358.052500", "154359.542500", "154401.032500", "154402.522500", "154404.012500", "154405.502500", "154406.992500", "154408.482500", "154409.972500", "154411.462500", "154412.952500", "154414.442500", "154415.932500", "154417.422500", "154418.912500", "154420.402500", "154421.892500", "154423.382500", "154424.872500", "154426.362500", "154427.852500", "154429.342500", "154430.832500", "154432.322500", "154433.812500", "154435.302500", "154436.792500", "154438.282500", "154439.772500", "154441.262500", "154442.752500", "154444.242500", "154445.732500", "154447.222500", "154448.712500", "154450.202500", "154451.692500", "154453.182500", "154454.672500", "154456.162500", "154457.652500", "154459.142500", "154500.632500", "154502.122500", "154503.612500", "154505.102500", "154506.592500", "154508.082500", "154509.572500", "154511.062500", "154512.552500", "154514.042500", "154515.532500", "154517.022500", "154518.512500", "154520.002500", "154521.492500", "154522.982500", "154524.472500", "154525.962500", "154527.452500", "154528.942500", "154530.432500", "154531.922500", "154533.412500", "154534.902500", "154536.392500", "154537.882500", "154539.372500", "154540.862500", "154542.352500", "154543.842500", "154545.332500", "154546.822500", "154548.312500", "154549.802500", "154551.292500", "154552.782500", "154554.272500", "154555.762500", "154557.252500", "154558.742500", "154600.232500", "154601.722500", "154603.212500", "154604.702500"],
      "ContentTime": ["153359.161000", "153359.170000", "153359.173000", "153359.175000", "153359.178000", "153359.181000", "153419.210000", "153419.213000", "153419.215000", "153419.218000", "153419.220000", "153419.223000", "153419.225000", "153419.228000", "153419.230000", "153419.233000", "153419.235000", "153419.238000", "153419.240000", "153419.243000", "153419.245000", "153419.248000", "153419.250000", "153419.253000", "153419.256000", "153419.258000", "153439.202000", "153439.204000", "153439.213000", "153439.215000", "153439.218000", "153439.220000", "153439.223000", "153439.225000", "153439.228000", "153439.230000", "153439.233000", "153439.235000", "153439.238000", "153439.240000", "153439.243000", "153439.246000", "153439.248000", "153439.251000", "153439.253000", "153439.256000", "153439.258000", "153459.206000", "153459.209000", "153459.212000", "153459.214000", "153459.217000", "153459.219000", "153459.222000", "153459.224000", "153459.227000", "153459.229000", "153459.232000", "153459.234000", "153459.237000", "153459.239000", "153459.242000", "153459.244000", "153459.247000", "153459.249000", "153459.252000", "153459.254000", "153519.199000", "153519.202000", "153519.205000", "153519.207000", "153519.210000", "153519.213000", "153519.215000", "153519.218000", "153519.220000", "153519.223000", "153519.226000", "153519.228000", "153519.231000", "153519.233000", "153519.236000", "153519.238000", "153519.241000", "153519.243000", "153519.246000", "153519.248000", "153539.193000", "153539.196000", "153539.198000", "153539.201000", "153539.203000", "153539.206000", "153539.208000", "153539.211000", "153539.213000", "153539.216000", "153539.218000", "153539.221000", "153539.223000", "153539.226000", "153539.228000", "153539.231000", "153539.233000", "153539.236000", "153539.239000", "153539.241000", "153619.213000", "153619.215000", "153619.218000", "153619.221000", "153619.223000", "153619.226000", "153619.229000", "153619.231000", "153619.234000", "153619.236000", "153619.239000", "153619.241000", "153619.248000", "153619.251000", "153619.254000", "153619.256000", "153619.259000", "153619.261000", "153619.264000", "153619.266000", "153619.269000", "153619.271000", "153619.281000", "153619.284000", "153619.286000", "153619.289000", "153619.292000", "153659.214000", "153659.217000", "153659.220000", "153659.222000", "153659.225000", "153659.227000", "153659.230000", "153659.233000", "153659.235000", "153659.238000", "153659.240000", "153659.243000", "153659.245000", "153659.248000", "153659.250000", "153659.253000", "153659.255000", "153659.258000", "153659.261000", "153659.263000", "153659.266000", "153659.268000", "153659.271000", "153659.273000", "153659.276000", "153659.278000", "153659.281000", "153739.205000", "153739.208000", "153739.217000", "153739.219000", "153739.222000", "153739.224000", "153739.227000", "153739.230000", "153739.232000", "153739.235000", "153739.238000", "153739.240000", "153739.243000", "153739.245000", "153739.248000", "153739.250000", "153739.253000", "153739.256000", "153739.258000", "153739.261000", "153739.263000", "153739.266000", "153739.268000", "153739.271000", "153739.273000", "153739.276000", "153819.231000", "153819.234000", "153819.236000", "153819.239000", "153819.241000", "153819.244000", "153819.246000", "153819.249000", "153819.252000", "153819.254000", "153819.257000", "153819.259000", "153819.262000", "153819.264000", "153819.267000", "153819.270000", "153819.272000", "153819.275000", "153819.277000", "153819.280000", "153819.282000", "153819.285000", "153819.288000", "153819.290000", "153819.293000", "153819.295000", "153819.298000", "153859.227000", "153859.229000", "153859.232000", "153859.235000", "153859.237000", "153859.240000", "153859.242000", "153859.245000", "153859.247000", "153859.250000", "153859.253000", "153859.255000", "153859.258000", "153859.260000", "153859.263000", "153859.266000", "153859.268000", "153859.271000", "153859.273000", "153859.276000", "153859.278000", "153859.281000", "153859.284000", "153859.295000", "153859.297000", "153859.300000", "153859.302000", "153939.223000", "153939.226000", "153939.228000", "153939.231000", "153939.234000", "153939.237000", "153939.240000", "153939.242000", "153939.245000", "153939.247000", "153939.250000", "153939.253000", "153939.255000", "153939.258000", "153939.260000", "153939.263000", "153939.266000", "153939.268000", "153939.271000", "153939.273000", "153939.276000", "153939.278000", "153939.281000", "153939.284000", "153939.286000", "153939.289000", "153939.291000", "154019.231000", "154019.233000", "154019.236000", "154019.239000", "154019.241000", "154019.244000", "154019.246000", "154019.249000", "154019.251000", "154019.254000", "154019.256000", "154019.259000", "154019.261000", "154019.264000", "154019.267000", "154019.269000", "154019.272000", "154019.274000", "154019.277000", "154019.279000", "154019.282000", "154019.284000", "154019.287000", "154019.289000", "154019.292000", "154019.295000", "154019.297000", "154059.211000", "154059.214000", "154059.216000", "154059.219000", "154059.221000", "154059.224000", "154059.227000", "154059.229000", "154059.232000", "154059.235000", "154059.237000", "154059.240000", "154059.242000", "154059.245000", "154059.248000", "154059.250000", "154059.253000", "154059.256000", "154059.258000", "154059.261000", "154059.263000", "154059.266000", "154059.269000", "154059.271000", "154059.274000", "154059.276000", "154059.279000", "154139.709000", "154139.712000", "154139.715000", "154139.718000", "154139.720000", "154139.723000", "154139.725000", "154139.728000", "154139.730000", "154139.733000", "154139.736000", "154139.738000", "154139.741000", "154139.743000", "154139.746000", "154139.748000", "154139.751000", "154139.753000", "154139.756000", "154139.758000", "154139.761000", "154139.763000", "154139.766000", "154139.815000", "154139.817000", "154139.820000", "154139.823000", "154219.215000", "154219.218000", "154219.221000", "154219.223000", "154219.226000", "154219.229000", "154219.231000", "154219.234000", "154219.237000", "154219.240000", "154219.243000", "154219.246000", "154219.249000", "154219.252000", "154219.254000", "154219.257000", "154219.260000", "154219.263000", "154219.266000", "154219.268000", "154219.271000", "154219.274000", "154219.276000", "154219.279000", "154219.281000", "154219.284000", "154259.224000", "154259.227000", "154259.230000", "154259.232000", "154259.235000", "154259.238000", "154259.240000", "154259.243000", "154259.245000", "154259.248000", "154259.250000", "154259.253000", "154259.256000", "154259.258000", "154259.261000", "154259.263000", "154259.266000", "154259.268000", "154259.271000", "154259.274000", "154259.276000", "154259.279000", "154259.281000", "154259.284000", "154259.287000", "154259.289000", "154259.292000", "154339.215000", "154339.218000", "154339.221000", "154339.223000", "154339.226000", "154339.229000", "154339.231000", "154339.234000", "154339.236000", "154339.239000", "154339.241000", "154339.244000", "154339.246000", "154339.249000", "154339.252000", "154339.254000", "154339.257000", "154339.259000", "154339.262000", "154339.264000", "154339.267000", "154339.270000", "154339.272000", "154339.275000", "154339.277000", "154339.280000", "154339.282000", "154419.218000", "154419.221000", "154419.224000", "154419.226000", "154419.229000", "154419.231000", "154419.234000", "154419.236000", "154419.239000", "154419.241000", "154419.244000", "154419.246000", "154419.249000", "154419.251000", "154419.254000", "154419.256000", "154419.259000", "154419.261000", "154419.264000", "154419.267000", "154419.269000", "154419.272000", "154419.274000", "154419.277000", "154419.279000", "154419.282000", "154419.284000", "154459.219000", "154459.222000", "154459.224000", "154459.227000", "154459.230000", "154459.232000", "154459.235000", "154459.237000", "154459.240000", "154459.242000", "154459.245000", "154459.247000", "154459.250000", "154459.252000", "154459.255000", "154459.258000", "154459.260000", "154459.263000", "154459.265000", "154459.268000", "154459.270000", "154459.273000", "154459.275000", "154459.278000", "154459.281000", "154459.283000", "154459.286000", "154539.206000", "154539.209000", "154539.211000", "154539.214000", "154539.216000", "154539.219000", "154539.221000", "154539.224000", "154539.227000", "154539.229000", "154539.232000", "154539.234000", "154539.237000", "154539.239000", "154539.242000", "154539.244000", "154539.247000", "154539.249000", "154539.252000", "154539.255000", "154539.257000", "154539.260000", "154539.262000", "154539.265000", "154539.268000", "154539.270000", "154539.273000", "154607.658000", "154607.661000", "154607.664000", "154607.666000", "154607.669000", "154607.672000", "154607.674000", "154607.677000", "154607.679000", "154607.682000", "154607.685000", "154607.687000", "154607.690000", "154607.692000", "154607.695000", "154607.697000", "154607.700000", "154607.702000", "154607.705000"],
