{
  "AcquisitionMatrixPE": 104,
  "AcquisitionNumber": 1,
  "AcquisitionTime": "15:32:57.982500",
  "BandwidthPerPixelPhaseEncode": 17.17,
  "BaseResolution": 104,
  "BodyPartExamined": "BRAIN",
  "CoilCombinationMethod": "Sum of Squares",
  "ConsistencyInfo": "N4_VE11C_LATEST_20160120",
  "ConversionSoftware": "dcm2niix",
  "ConversionSoftwareVersion": "v1.0.20211006",
  "DerivedVendorReportedEchoSpacing": 0.000560011,
  "DeviceSerialNumber": "167006",
  "DwellTime": 2.1e-06,
  "EchoTime": 0.037,
  "EchoTrainLength": 104,
  "EffectiveEchoSpacing": 0.000560011,
  "FlipAngle": 52,
  "HeudiconvVersion": "0.10.0",
  "ImageComments": "Unaliased MB4/PE3/LB",
  "ImageOrientationPatientDICOM": [0.999328, -0.0352106, 0.0101907, 0.0366437, 0.952518, -0.302269],
  "ImageOrientationText": "Tra>Cor(-17.6)>Sag(-0.1)",
  "ImageType": [
    "ORIGINAL",
    "PRIMARY",
    "M",
    "MB",
    "ND",
    "MOSAIC"
],
  "ImagingFrequency": 123.259,
  "InPlanePhaseEncodingDirectionDICOM": "COL",
  "InstitutionAddress": "Chemin Queen-Mary 4565,Montreal,District,CA,H3W 1W5",
  "InstitutionName": "IUGM",
  "InstitutionalDepartmentName": "Department",
  "MRAcquisitionType": "2D",
  "MagneticFieldStrength": 3,
  "Manufacturer": "Siemens",
  "ManufacturersModelName": "Prisma_fit",
  "MatrixCoilMode": "SENSE",
  "Modality": "MR",
  "MultibandAccelerationFactor": 4,
  "PartialFourier": 1,
  "PatientPosition": "HFS",
  "PercentPhaseFOV": 100,
  "PercentSampling": 100,
  "PhaseEncodingDirection": "j",
  "PhaseEncodingSteps": 104,
  "PhaseResolution": 1,
  "PixelBandwidth": 2290,
  "ProcedureStepDescription": "games^mario",
  "ProtocolName": "func_task-mario_run-01",
  "PulseSequenceDetails": "%CustomerSeq%\\cmrr_mbep2d_bold",
  "ReceiveCoilActiveElements": "HC1-7;NC1,2",
  "ReceiveCoilName": "HeadNeck_64",
  "ReconMatrixPE": 104,
  "RepetitionTime": 1.49,
  "SAR": 0.0472972,
  "ScanOptions": "FS",
  "ScanningSequence": "EP",
  "SequenceName": "epfid2d1_104",
  "SequenceVariant": "SK\\SS",
  "SeriesDescription": "func_task-mario_run-01",
  "SeriesNumber": 10,
  "ShimSetting": [623, -7256, -8798, 607, -6, -188, -32, -18],
  "SliceThickness": 2,
  "SliceTiming": [0, 0.785, 0.0975, 0.8825, 0.1975, 0.98, 0.295, 1.0775, 0.3925, 1.1775, 0.49, 1.275, 0.5875, 1.3725, 0.6875, 0, 0.785, 0.0975, 0.8825, 0.1975, 0.98, 0.295, 1.0775, 0.3925, 1.1775, 0.49, 1.275, 0.5875, 1.3725, 0.6875, 0, 0.785, 0.0975, 0.8825, 0.1975, 0.98, 0.295, 1.0775, 0.3925, 1.1775, 0.49, 1.275, 0.5875, 1.3725, 0.6875, 0, 0.785, 0.0975, 0.8825, 0.1975, 0.98, 0.295, 1.0775, 0.3925, 1.1775, 0.49, 1.275, 0.5875, 1.3725, 0.6875],
  "SoftwareVersions": "syngo MR E11",
  "SpacingBetweenSlices": 2,
  "StationName": "MRC35049",
  "TaskName": "mario",
  "TotalReadoutTime": 0.0576811,
  "TxRefAmp": 246.487,
  "WipMemBlock": "2a313ddd-4b9e-40a1-bbd8-76952c1400ce||Sequence: R016 ve11c/master r/e634e98; Dec 19 2017 11:00:25 by eja",
  "dcmmeta_affine": [
    [-1.998655915260315, 0.07328733056783676, -0.001872396096587181, 103.4748764038086],
    [0.07042112946510315, 1.905036449432373, -0.6048775911331177, -70.48664855957031],
    [0.020381441339850426, 0.6045370101928711, 1.9063366651535034, -57.91292953491211],
    [0.0, 0.0, 0.0, 1.0]
],
  "dcmmeta_reorient_transform": [
    [0.0, -1.0, 0.0, 103.0],
    [1.0, 0.0, 0.0, 0.0],
    [0.0, 0.0, 1.0, 0.0],
    [0.0, 0.0, 0.0, 1.0]
],
  "dcmmeta_shape": [104, 104, 60, 529],
  "dcmmeta_slice_dim": 2,
  "dcmmeta_version": 0.6,
  "global": {
    "const": {
      "AcquisitionMatrix": [104, 0, 0, 104],
      "AngioFlag": "N",
      "BitsAllocated": 16,
      "BitsStored": 16,
      "BodyPartExamined": "BRAIN",
      "Columns": 832,
      "EchoNumbers": 1,
      "EchoTime": 37.0,
      "EchoTrainLength": 104,
      "FlipAngle": 52.0,
      "HighBit": 15,
      "ImageOrientationPatient": [0.9993279568461, -0.0352105649313, 0.01019072043704, 0.03664366519599, 0.95251823491122, -0.3022685130188],
      "ImagePositionPatient": [-865.21081208159, -793.53209278196, 216.98701780062],
      "ImageType": [
        "ORIGINAL",
        "PRIMARY",
        "M",
        "MB",
        "ND",
        "MOSAIC"
],
      "ImagedNucleus": "1H",
      "ImagingFrequency": 123.258794,
      "InPlanePhaseEncodingDirection": "COL",
      "MRAcquisitionType": "2D",
      "MagneticFieldStrength": 3.0,
      "Manufacturer": "SIEMENS",
      "ManufacturerModelName": "Prisma_fit",
      "Modality": "MR",
      "NumberOfAverages": 1.0,
      "NumberOfPhaseEncodingSteps": 104,
      "PercentPhaseFieldOfView": 100.0,
      "PercentSampling": 100.0,
      "PerformedProcedureStepStartTime": "143547.297000",
      "PhotometricInterpretation": "MONOCHROME2",
      "PixelBandwidth": 2290.0,
      "PixelRepresentation": 0,
      "PixelSpacing": [2.0, 2.0],
      "ProtocolName": "func_task-mario_run-01",
      "RepetitionTime": 1490.0,
      "Rows": 832,
      "SAR": 0.04729723189857,
      "SamplesPerPixel": 1,
      "ScanOptions": "FS",
      "ScanningSequence": "EP",
      "SequenceName": "epfid2d1_104",
      "SequenceVariant": [
        "SK",
        "SS"
],
      "SeriesDescription": "func_task-mario_run-01",
      "SeriesNumber": 10,
      "SeriesTime": "153359.107000",
      "SliceLocation": -33.979746490478,
      "SliceThickness": 2.0,
      "SmallestImagePixelValue": 0,
      "SoftwareVersions": "syngo MR E11",
      "SpacingBetweenSlices": 1.9999999424457,
      "SpecificCharacterSet": "ISO_IR 100",
      "StudyID": "1",
      "StudyTime": "143547.219000",
      "TransmitCoilName": "Body",
      "VariableFlipAngleFlag": "N",
      "WindowCenterWidthExplanation": "Algo1",
      "dBdt": 0.0},
    "slices": {}
  },
  "time": {
    "samples": {
      "AcquisitionNumber": [1, 2, 3, 4, 5, 6, 7, 8, 9, 10, 11, 12, 13, 14, 15, 16, 17, 18, 19, 20, 21, 22, 23, 24, 25, 26, 27, 28, 29, 30, 31, 32, 33, 34, 35, 36, 37, 38, 39, 40, 41, 42, 43, 44, 45, 46, 47, 48, 49, 50, 51, 52, 53, 54, 55, 56, 57, 58, 59, 60, 61, 62, 63, 64, 65, 66, 67, 68, 69, 70, 71, 72, 73, 74, 75, 76, 77, 78, 79, 80, 81, 82, 83, 84, 85, 86, 87, 88, 89, 90, 91, 92, 93, 94, 95, 96, 97, 98, 99, 100, 101, 102, 103, 104, 105, 106, 107, 108, 109, 110, 111, 112, 113, 114, 115, 116, 117, 118, 119, 120, 121, 122, 123, 124, 125, 126, 127, 128, 129, 130, 131, 132, 133, 134, 135, 136, 137, 138, 139, 140, 141, 142, 143, 144, 145, 146, 147, 148, 149, 150, 151, 152, 153, 154, 155, 156, 157, 158, 159, 160, 161, 162, 163, 164, 165, 166, 167, 168, 169, 170, 171, 172, 173, 174, 175, 176, 177, 178, 179, 180, 181, 182, 183, 184, 185, 186, 187, 188, 189, 190, 191, 192, 193, 194, 195, 196, 197, 198, 199, 200, 201, 202, 203, 204, 205, 206, 207, 208, 209, 210, 211, 212, 213, 214, 215, 216, 217, 218, 219, 220, 221, 222, 223, 224, 225, 226, 227, 228, 229, 230, 231, 232, 233, 234, 235, 236, 237, 238, 239, 240, 241, 242, 243, 244, 245, 246, 247, 248, 249, 250, 251, 252, 253, 254, 255, 256, 257, 258, 259, 260, 261, 262, 263, 264, 265, 266, 267, 268, 269, 270, 271, 272, 273, 274, 275, 276, 277, 278, 279, 280, 281, 282, 283, 284, 285, 286, 287, 288, 289, 290, 291, 292, 293, 294, 295, 296, 297, 298, 299, 300, 301, 302, 303, 304, 305, 306, 307, 308, 309, 310, 311, 312, 313, 314, 315, 316, 317, 318, 319, 320, 321, 322, 323, 324, 325, 326, 327, 328, 329, 330, 331, 332, 333, 334, 335, 336, 337, 338, 339, 340, 341, 342, 343, 344, 345, 346, 347, 348, 349, 350, 351, 352, 353, 354, 355, 356, 357, 358, 359, 360, 361, 362, 363, 364, 365, 366, 367, 368, 369, 370, 371, 372, 373, 374, 375, 376, 377, 378, 379, 380, 381, 382, 383, 384, 385, 386, 387, 388, 389, 390, 391, 392, 393, 394, 395, 396, 397, 398, 399, 400, 401, 402, 403, 404, 405, 406, 407, 408, 409, 410, 411, 412, 413, 414, 415, 416, 417, 418, 419, 420, 421, 422, 423, 424, 425, 426, 427, 428, 429, 430, 431, 432, 433, 434, 435, 436, 437, 438, 439, 440, 441, 442, 443, 444, 445, 446, 447, 448, 449, 450, 451, 452, 453, 454, 455, 456, 457, 458, 459, 460, 461, 462, 463, 464, 465, 466, 467, 468, 469, 470, 471, 472, 473, 474, 475, 476, 477, 478, 479, 480, 481, 482, 483, 484, 485, 486, 487, 488, 489, 490, 491, 492, 493, 494, 495, 496, 497, 498, 499, 500, 501, 502, 503, 504, 505, 506, 507, 508, 509, 510, 511, 512, 513, 514, 515, 516, 517, 518, 519, 520, 521, 522, 523, 524, 525, 526, 527, 528, 529],
      "AcquisitionTime": ["153257.982500", "153259.472500", "153300.962500", "153302.452500", "153303.942500", "153305.432500", "153306.922500", "153308.412500", "153309.902500", "153311.392500", "153312.882500", "153314.372500", "153315.862500", "153317.352500", "153318.842500", "153320.332500", "153321.822500", "153323.312500", "153324.802500", "153326.292500", "153327.782500", "153329.272500", "153330.762500", "153332.252500", "153333.742500", "153335.232500", "153336.722500", "153338.212500", "153339.702500", "153341.192500", "153342.682500", "153344.172500", "153345.662500", "153347.152500", "153348.642500", "153350.132500", "153351.622500", "153353.112500", "153354.602500", "153356.092500", "153357.582500", "153359.072500", "153400.562500", "153402.052500", "153403.542500", "153405.032500", "153406.522500", "153408.012500", "153409.502500", "153410.992500", "153412.482500", "153413.972500", "153415.462500", "153416.952500", "153418.442500", "153419.932500", "153421.422500", "153422.912500", "153424.402500", "153425.892500", "153427.382500", "153428.872500", "153430.362500", "153431.852500", "153433.342500", "153434.832500", "153436.322500", "153437.812500", "153439.302500", "153440.792500", "153442.282500", "153443.772500", "153445.262500", "153446.752500", "153448.242500", "153449.732500", "153451.222500", "153452.712500", "153454.202500", "153455.692500", "153457.182500", "153458.672500", "153500.162500", "153501.652500", "153503.142500", "153504.632500", "153506.122500", "153507.612500", "153509.102500", "153510.592500", "153512.082500", "153513.572500", "153515.062500", "153516.552500", "153518.042500", "153519.532500", "153521.022500", "153522.512500", "153524.002500", "153525.492500", "153526.982500", "153528.472500", "153529.962500", "153531.452500", "153532.942500", "153534.432500", "153535.922500", "153537.412500", "153538.902500", "153540.392500", "153541.882500", "153543.372500", "153544.862500", "153546.352500", "153547.842500", "153549.332500", "153550.822500", "153552.312500", "153553.802500", "153555.292500", "153556.782500", "153558.272500", "153559.762500", "153601.252500", "153602.742500", "153604.232500", "153605.722500", "153607.212500", "153608.702500", "153610.192500", "153611.682500", "153613.172500", "153614.662500", "153616.152500", "153617.642500", "153619.132500", "153620.622500", "153622.112500", "153623.602500", "153625.092500", "153626.582500", "153628.072500", "153629.562500", "153631.052500", "153632.542500", "153634.032500", "153635.522500", "153637.012500", "153638.502500", "153639.992500", "153641.482500", "153642.972500", "153644.462500", "153645.952500", "153647.442500", "153648.932500", "153650.422500", "153651.912500", "153653.402500", "153654.892500", "153656.382500", "153657.872500", "153659.362500", "153700.852500", "153702.342500", "153703.832500", "153705.322500", "153706.812500", "153708.302500", "153709.792500", "153711.282500", "153712.772500", "153714.262500", "153715.752500", "153717.242500", "153718.732500", "153720.222500", "153721.712500", "153723.202500", "153724.692500", "153726.182500", "153727.672500", "153729.162500", "153730.652500", "153732.142500", "153733.632500", "153735.122500", "153736.612500", "153738.102500", "153739.592500", "153741.082500", "153742.572500", "153744.062500", "153745.552500", "153747.042500", "153748.532500", "153750.022500", "153751.512500", "153753.002500", "153754.492500", "153755.982500", "153757.472500", "153758.962500", "153800.452500", "153801.942500", "153803.432500", "153804.922500", "153806.412500", "153807.902500", "153809.392500", "153810.882500", "153812.372500", "153813.862500", "153815.352500", "153816.842500", "153818.332500", "153819.822500", "153821.312500", "153822.802500", "153824.292500", "153825.782500", "153827.272500", "153828.762500", "153830.252500", "153831.742500", "153833.232500", "153834.722500", "153836.212500", "153837.702500", "153839.192500", "153840.682500", "153842.172500", "153843.662500", "153845.152500", "153846.642500", "153848.132500", "153849.622500", "153851.112500", "153852.602500", "153854.092500", "153855.582500", "153857.072500", "153858.562500", "153900.052500", "153901.542500", "153903.032500", "153904.522500", "153906.012500", "153907.502500", "153908.992500", "153910.482500", "153911.972500", "153913.462500", "153914.952500", "153916.442500", "153917.932500", "153919.422500", "153920.912500", "153922.402500", "153923.892500", "153925.382500", "153926.872500", "153928.362500", "153929.852500", "153931.342500", "153932.832500", "153934.322500", "153935.812500", "153937.302500", "153938.792500", "153940.282500", "153941.772500", "153943.262500", "153944.752500", "153946.242500", "153947.732500", "153949.222500", "153950.712500", "153952.202500", "153953.692500", "153955.182500", "153956.672500", "153958.162500", "153959.652500", "154001.142500", "154002.632500", "154004.122500", "154005.612500", "154007.102500", "154008.592500", "154010.082500", "154011.572500", "154013.062500", "154014.552500", "154016.042500", "154017.532500", "154019.022500", "154020.512500", "154022.002500", "154023.492500", "154024.982500", "154026.472500", "154027.962500", "154029.452500", "154030.942500", "154032.432500", "154033.922500", "154035.412500", "154036.902500", "154038.392500", "154039.882500", "154041.372500", "154042.862500", "154044.352500", "154045.842500", "154047.332500", "154048.822500", "154050.312500", "154051.802500", "154053.292500", "154054.782500", "154056.272500", "154057.762500", "154059.252500", "154100.742500", "154102.232500", "154103.722500", "154105.212500", "154106.702500", "154108.192500", "154109.682500", "154111.172500", "154112.662500", "154114.152500", "154115.642500", "154117.132500", "154118.622500", "154120.112500", "154121.602500", "154123.092500", "154124.582500", "154126.072500", "154127.562500", "154129.052500", "154130.542500", "154132.032500", "154133.522500", "154135.012500", "154136.502500", "154137.992500", "154139.482500", "154140.972500", "154142.462500", "154143.952500", "154145.442500", "154146.932500", "154148.422500", "154149.912500", "154151.402500", "154152.892500", "154154.382500", "154155.872500", "154157.362500", "154158.852500", "154200.342500", "154201.832500", "154203.322500", "154204.812500", "154206.302500", "154207.792500", "154209.282500", "154210.772500", "154212.262500", "154213.752500", "154215.242500", "154216.732500", "154218.222500", "154219.712500", "154221.202500", "154222.692500", "154224.182500", "154225.672500", "154227.162500", "154228.652500", "154230.142500", "154231.632500", "154233.122500", "154234.612500", "154236.102500", "154237.592500", "154239.082500", "154240.572500", "154242.062500", "154243.552500", "154245.042500", "154246.532500", "154248.022500", "154249.512500", "154251.002500", "154252.492500", "154253.982500", "154255.472500", "154256.962500", "154258.452500", "154259.942500", "154301.432500", "154302.922500", "154304.412500", "154305.902500", "154307.392500", "154308.882500", "154310.372500", "154311.862500", "154313.352500", "154314.842500", "154316.332500", "154317.822500", "154319.312500", "154320.802500", "154322.292500", "154323.782500", "154325.272500", "154326.762500", "154328.252500", "154329.742500", "154331.232500", "154332.722500", "154334.212500", "154335.702500", "154337.192500", "154338.682500", "154340.172500", "154341.662500", "154343.152500", "154344.642500", "154346.132500", "154347.622500", "154349.112500", "154350.602500", "154352.092500", "154353.582500", "154355.072500", "154356.562500", "154358.052500", "154359.542500", "154401.032500", "154402.522500", "154404.012500", "154405.502500", "154406.992500", "154408.482500", "154409.972500", "154411.462500", "154412.952500", "154414.442500", "154415.932500", "154417.422500", "154418.912500", "154420.402500", "154421.892500", "154423.382500", "154424.872500", "154426.362500", "154427.852500", "154429.342500", "154430.832500", "154432.322500", "154433.812500", "154435.302500", "154436.792500", "154438.282500", "154439.772500", "154441.262500", "154442.752500", "154444.242500", "154445.732500", "154447.222500", "154448.712500", "154450.202500", "154451.692500", "154453.182500", "154454.672500", "154456.162500", "154457.652500", "154459.142500", "154500.632500", "154502.122500", "154503.612500", "154505.102500", "154506.592500", "154508.082500", "154509.572500", "154511.062500", "154512.552500", "154514.042500", "154515.532500", "154517.022500", "154518.512500", "154520.002500", "154521.492500", "154522.982500", "154524.472500", "154525.962500", "154527.452500", "154528.942500", "154530.432500", "154531.922500", "154533.412500", "154534.902500", "154536.392500", "154537.882500", "154539.372500", "154540.862500", "154542.352500", "154543.842500", "154545.332500", "154546.822500", "154548.312500", "154549.802500", "154551.292500", "154552.782500", "154554.272500", "154555.762500", "154557.252500", "154558.742500", "154600.232500", "154601.722500", "154603.212500", "154604.702500"],
      "ContentTime": ["153359.111000", "153359.114000", "153359.130000", "153359.134000", "153359.137000", "153359.140000", "153419.075000", "153419.079000", "153419.097000", "153419.100000", "153419.103000", "153419.107000", "153419.110000", "153419.113000", "153419.117000", "153419.120000", "153419.123000", "153419.127000", "153419.130000", "153419.133000", "153419.137000", "153419.140000", "153419.143000", "153419.147000", "153419.150000", "153419.153000", "153419.157000", "153439.075000", "153439.079000", "153439.082000", "153439.085000", "153439.089000", "153439.092000", "153439.095000", "153439.099000", "153439.102000", "153439.105000", "153439.109000", "153439.112000", "153439.115000", "153439.119000", "153439.122000", "153439.125000", "153439.128000", "153439.132000", "153439.135000", "153439.138000", "153459.075000", "153459.079000", "153459.088000", "153459.091000", "153459.100000", "153459.103000", "153459.107000", "153459.110000", "153459.114000", "153459.118000", "153459.121000", "153459.125000", "153459.128000", "153459.132000", "153459.135000", "153459.138000", "153459.142000", "153459.145000", "153459.148000", "153459.152000", "153519.075000", "153519.079000", "153519.082000", "153519.086000", "153519.089000", "153519.092000", "153519.096000", "153519.101000", "153519.105000", "153519.108000", "153519.111000", "153519.115000", "153519.118000", "153519.122000", "153519.125000", "153519.128000", "153519.132000", "153519.135000", "153519.138000", "153519.142000", "153539.075000", "153539.079000", "153539.082000", "153539.085000", "153539.089000", "153539.106000", "153539.110000", "153539.113000", "153539.117000", "153539.120000", "153539.123000", "153539.126000", "153539.130000", "153539.133000", "153539.137000", "153539.140000", "153539.143000", "153539.146000", "153539.150000", "153539.153000", "153619.075000", "153619.079000", "153619.082000", "153619.085000", "153619.089000", "153619.092000", "153619.096000", "153619.099000", "153619.102000", "153619.106000", "153619.109000", "153619.112000", "153619.116000", "153619.119000", "153619.122000", "153619.126000", "153619.129000", "153619.132000", "153619.136000", "153619.139000", "153619.142000", "153619.146000", "153619.149000", "153619.152000", "153619.156000", "153619.159000", "153619.163000", "153659.075000", "153659.079000", "153659.082000", "153659.086000", "153659.089000", "153659.093000", "153659.096000", "153659.099000", "153659.103000", "153659.106000", "153659.109000", "153659.113000", "153659.116000", "153659.120000", "153659.127000", "153659.130000", "153659.134000", "153659.137000", "153659.141000", "153659.144000", "153659.148000", "153659.151000", "153659.154000", "153659.158000", "153659.161000", "153659.164000", "153659.168000", "153739.075000", "153739.079000", "153739.082000", "153739.086000", "153739.089000", "153739.093000", "153739.096000", "153739.099000", "153739.103000", "153739.106000", "153739.110000", "153739.113000", "153739.117000", "153739.122000", "153739.126000", "153739.129000", "153739.133000", "153739.136000", "153739.140000", "153739.144000", "153739.147000", "153739.150000", "153739.154000", "153739.157000", "153739.160000", "153739.164000", "153819.074000", "153819.089000", "153819.093000", "153819.096000", "153819.100000", "153819.103000", "153819.119000", "153819.123000", "153819.126000", "153819.130000", "153819.133000", "153819.136000", "153819.140000", "153819.143000", "153819.147000", "153819.150000", "153819.153000", "153819.157000", "153819.160000", "153819.163000", "153819.167000", "153819.170000", "153819.173000", "153819.177000", "153819.181000", "153819.184000", "153819.188000", "153859.075000", "153859.079000", "153859.091000", "153859.094000", "153859.097000", "153859.101000", "153859.104000", "153859.108000", "153859.111000", "153859.114000", "153859.118000", "153859.121000", "153859.125000", "153859.128000", "153859.131000", "153859.135000", "153859.138000", "153859.141000", "153859.145000", "153859.148000", "153859.151000", "153859.155000", "153859.158000", "153859.162000", "153859.165000", "153859.168000", "153859.172000", "153939.075000", "153939.079000", "153939.082000", "153939.086000", "153939.089000", "153939.093000", "153939.096000", "153939.100000", "153939.103000", "153939.106000", "153939.110000", "153939.113000", "153939.116000", "153939.120000", "153939.123000", "153939.127000", "153939.130000", "153939.134000", "153939.137000", "153939.140000", "153939.144000", "153939.147000", "153939.151000", "153939.154000", "153939.157000", "153939.161000", "153939.164000", "154019.075000", "154019.079000", "154019.082000", "154019.086000", "154019.089000", "154019.093000", "154019.096000", "154019.099000", "154019.103000", "154019.106000", "154019.109000", "154019.113000", "154019.117000", "154019.120000", "154019.123000", "154019.127000", "154019.130000", "154019.133000", "154019.137000", "154019.148000", "154019.166000", "154019.170000", "154019.173000", "154019.176000", "154019.180000", "154019.183000", "154019.186000", "154059.075000", "154059.079000", "154059.082000", "154059.086000", "154059.089000", "154059.093000", "154059.096000", "154059.099000", "154059.103000", "154059.106000", "154059.110000", "154059.113000", "154059.117000", "154059.120000", "154059.124000", "154059.127000", "154059.130000", "154059.134000", "154059.137000", "154059.141000", "154059.144000", "154059.147000", "154059.151000", "154059.154000", "154059.158000", "154059.161000", "154059.164000", "154139.075000", "154139.079000", "154139.083000", "154139.086000", "154139.089000", "154139.099000", "154139.103000", "154139.106000", "154139.110000", "154139.113000", "154139.117000", "154139.120000", "154139.123000", "154139.127000", "154139.130000", "154139.134000", "154139.137000", "154139.141000", "154139.144000", "154139.147000", "154139.151000", "154139.154000", "154139.158000", "154139.161000", "154139.164000", "154139.168000", "154139.171000", "154219.075000", "154219.079000", "154219.082000", "154219.086000", "154219.089000", "154219.093000", "154219.097000", "154219.100000", "154219.104000", "154219.107000", "154219.111000", "154219.114000", "154219.118000", "154219.121000", "154219.124000", "154219.128000", "154219.131000", "154219.135000", "154219.138000", "154219.142000", "154219.145000", "154219.148000", "154219.152000", "154219.156000", "154219.159000", "154219.162000", "154259.075000", "154259.079000", "154259.082000", "154259.086000", "154259.089000", "154259.103000", "154259.106000", "154259.110000", "154259.114000", "154259.118000", "154259.121000", "154259.125000", "154259.128000", "154259.132000", "154259.135000", "154259.138000", "154259.142000", "154259.145000", "154259.148000", "154259.152000", "154259.155000", "154259.159000", "154259.162000", "154259.165000", "154259.169000", "154259.172000", "154259.175000", "154339.076000", "154339.079000", "154339.083000", "154339.086000", "154339.089000", "154339.093000", "154339.096000", "154339.100000", "154339.103000", "154339.106000", "154339.110000", "154339.113000", "154339.116000", "154339.120000", "154339.124000", "154339.128000", "154339.131000", "154339.134000", "154339.138000", "154339.141000", "154339.144000", "154339.148000", "154339.151000", "154339.155000", "154339.158000", "154339.161000", "154339.165000", "154419.075000", "154419.079000", "154419.082000", "154419.086000", "154419.089000", "154419.093000", "154419.096000", "154419.099000", "154419.103000", "154419.106000", "154419.109000", "154419.113000", "154419.116000", "154419.119000", "154419.123000", "154419.126000", "154419.129000", "154419.133000", "154419.136000", "154419.139000", "154419.143000", "154419.146000", "154419.149000", "154419.153000", "154419.164000", "154419.167000", "154419.170000", "154459.075000", "154459.079000", "154459.082000", "154459.086000", "154459.089000", "154459.093000", "154459.096000", "154459.099000", "154459.103000", "154459.106000", "154459.109000", "154459.113000", "154459.116000", "154459.120000", "154459.123000", "154459.126000", "154459.130000", "154459.133000", "154459.136000", "154459.150000", "154459.154000", "154459.157000", "154459.161000", "154459.164000", "154459.167000", "154459.171000", "154459.174000", "154539.075000", "154539.079000", "154539.082000", "154539.086000", "154539.089000", "154539.093000", "154539.096000", "154539.099000", "154539.103000", "154539.106000", "154539.109000", "154539.113000", "154539.116000", "154539.119000", "154539.123000", "154539.126000", "154539.130000", "154539.133000", "154539.136000", "154539.140000", "154539.143000", "154539.147000", "154539.150000", "154539.153000", "154539.157000", "154539.160000", "154539.163000", "154607.540000", "154607.544000", "154607.549000", "154607.553000", "154607.557000", "154607.561000", "154607.565000", "154607.570000", "154607.574000", "154607.577000", "154607.581000", "154607.585000", "154607.589000", "154607.592000", "154607.595000", "154607.599000", "154607.602000", "154607.606000", "154607.609000"],
