{
  "AcquisitionMatrixPE": 104,
  "AcquisitionNumber": 1,
  "AcquisitionTime": "18:47:9.160000",
  "BandwidthPerPixelPhaseEncode": 17.17,
  "BaseResolution": 104,
  "BodyPartExamined": "BRAIN",
  "CoilCombinationMethod": "Sum of Squares",
  "ConsistencyInfo": "N4_VE11C_LATEST_20160120",
  "ConversionSoftware": "dcm2niix",
  "ConversionSoftwareVersion": "v1.0.20211006",
  "DerivedVendorReportedEchoSpacing": 0.000560011,
  "DeviceSerialNumber": "167006",
  "DwellTime": 2.1e-06,
  "EchoTime": 0.037,
  "EchoTrainLength": 104,
  "EffectiveEchoSpacing": 0.000560011,
  "FlipAngle": 52,
  "HeudiconvVersion": "0.11.3.post9+gc939bf8",
  "ImageComments": "Unaliased MB4/PE3/LB",
  "ImageOrientationPatientDICOM": [0.999913, -0.0054613, -0.0120096, 0.000523506, 0.926005, -0.37751],
  "ImageOrientationText": "Tra>Cor(-22.2)>Sag(-0.8)",
  "ImageType": [
    "ORIGINAL",
    "PRIMARY",
    "M",
    "MB",
    "ND",
    "MOSAIC"
],
  "ImagingFrequency": 123.259,
  "InPlanePhaseEncodingDirectionDICOM": "COL",
  "InstitutionAddress": "Chemin Queen-Mary 4565,Montreal,District,CA,H3W 1W5",
  "InstitutionName": "IUGM",
  "InstitutionalDepartmentName": "Department",
  "MRAcquisitionType": "2D",
  "MagneticFieldStrength": 3,
  "Manufacturer": "Siemens",
  "ManufacturersModelName": "Prisma_fit",
  "MatrixCoilMode": "SENSE",
  "Modality": "MR",
  "MultibandAccelerationFactor": 4,
  "PartialFourier": 1,
  "PatientPosition": "HFS",
  "PercentPhaseFOV": 100,
  "PercentSampling": 100,
  "PhaseEncodingDirection": "j",
  "PhaseEncodingSteps": 104,
  "PhaseResolution": 1,
  "PixelBandwidth": 2290,
  "ProcedureStepDescription": "games^mario",
  "ProtocolName": "func_task-mario_run-05",
  "PulseSequenceDetails": "%CustomerSeq%\\cmrr_mbep2d_bold",
  "ReceiveCoilActiveElements": "HC1-7;NC1,2",
  "ReceiveCoilName": "HeadNeck_64",
  "ReconMatrixPE": 104,
  "RepetitionTime": 1.49,
  "SAR": 0.0813601,
  "ScanOptions": "FS",
  "ScanningSequence": "EP",
  "SequenceName": "epfid2d1_104",
  "SequenceVariant": "SK\\SS",
  "SeriesDescription": "func_task-mario_run-05",
  "SeriesNumber": 22,
  "ShimSetting": [610, -7254, -8815, 423, 24, -342, 4, 24],
  "SliceThickness": 2,
  "SliceTiming": [0, 0.785, 0.1, 0.8825, 0.1975, 0.98, 0.295, 1.08, 0.3925, 1.1775, 0.49, 1.275, 0.59, 1.3725, 0.6875, 0, 0.785, 0.1, 0.8825, 0.1975, 0.98, 0.295, 1.08, 0.3925, 1.1775, 0.49, 1.275, 0.59, 1.3725, 0.6875, 0, 0.785, 0.1, 0.8825, 0.1975, 0.98, 0.295, 1.08, 0.3925, 1.1775, 0.49, 1.275, 0.59, 1.3725, 0.6875, 0, 0.785, 0.1, 0.8825, 0.1975, 0.98, 0.295, 1.08, 0.3925, 1.1775, 0.49, 1.275, 0.59, 1.3725, 0.6875],
  "SoftwareVersions": "syngo MR E11",
  "SpacingBetweenSlices": 2,
  "StationName": "MRC35049",
  "TaskName": "mario",
  "TotalReadoutTime": 0.0576811,
  "TxRefAmp": 319.894,
  "WipMemBlock": "0d2a2924-dd08-4f5c-9f4d-f6fd1061b5ea||Sequence: R017 ve11c/master r/75a17815+; Jun 28 2022 16:32:11 by eja",
  "dcmmeta_affine": [
    [-1.9998259544372559, 0.0010470118140801787, -0.0263652466237545, 104.5242691040039],
    [0.010922601446509361, 1.852010726928711, -0.7549416422843933, -67.04974365234375],
    [-0.024019144475460052, 0.7550199627876282, 1.8518551588058472, -59.68675231933594],
    [0.0, 0.0, 0.0, 1.0]
],
  "dcmmeta_reorient_transform": [
    [0.0, -1.0, 0.0, 103.0],
    [1.0, 0.0, 0.0, 0.0],
    [0.0, 0.0, 1.0, 0.0],
    [0.0, 0.0, 0.0, 1.0]
],
  "dcmmeta_shape": [104, 104, 60, 465],
  "dcmmeta_slice_dim": 2,
  "dcmmeta_version": 0.6,
  "global": {
    "const": {
      "AcquisitionMatrix": [104, 0, 0, 104],
      "AngioFlag": "N",
      "BitsAllocated": 16,
      "BitsStored": 16,
      "BodyPartExamined": "BRAIN",
      "Columns": 832,
      "EchoNumbers": 1,
      "EchoTime": 37.0,
      "EchoTrainLength": 104,
      "FlipAngle": 52.0,
      "HighBit": 15,
      "ImageOrientationPatient": [0.999912968403, -0.005461300535, -0.0120095718474, 0.00052350589364, 0.92600536623619, -0.3775099835016],
      "ImagePositionPatient": [-832.94986624695, -793.86344208231, 301.65054058869],
      "ImageType": [
        "ORIGINAL",
        "PRIMARY",
        "M",
        "MB",
        "ND",
        "MOSAIC"
],
      "ImagedNucleus": "1H",
      "ImagingFrequency": 123.258776,
      "InPlanePhaseEncodingDirection": "COL",
      "MRAcquisitionType": "2D",
      "MagneticFieldStrength": 3.0,
      "Manufacturer": "SIEMENS",
      "ManufacturerModelName": "Prisma_fit",
      "Modality": "MR",
      "NumberOfAverages": 1.0,
      "NumberOfPhaseEncodingSteps": 104,
      "PercentPhaseFieldOfView": 100.0,
      "PercentSampling": 100.0,
      "PerformedProcedureStepStartTime": "173321.449000",
      "PhotometricInterpretation": "MONOCHROME2",
      "PixelBandwidth": 2290.0,
      "PixelRepresentation": 0,
      "PixelSpacing": [2.0, 2.0],
      "ProtocolName": "func_task-mario_run-05",
      "RepetitionTime": 1490.0,
      "Rows": 832,
      "SAR": 0.08136014625409,
      "SamplesPerPixel": 1,
      "ScanOptions": "FS",
      "ScanningSequence": "EP",
      "SequenceName": "epfid2d1_104",
      "SequenceVariant": [
        "SK",
        "SS"
],
      "SeriesDescription": "func_task-mario_run-05",
      "SeriesNumber": 22,
      "SeriesTime": "184817.413000",
      "SliceLocation": -31.33419445936,
      "SliceThickness": 2.0,
      "SmallestImagePixelValue": 0,
      "SoftwareVersions": "syngo MR E11",
      "SpacingBetweenSlices": 1.9999999354769,
      "SpecificCharacterSet": "ISO_IR 100",
      "StudyID": "1",
      "StudyTime": "173321.368000",
      "TransmitCoilName": "Body",
      "VariableFlipAngleFlag": "N",
      "WindowCenterWidthExplanation": "Algo1",
      "dBdt": 0.0},
    "slices": {}
  },
  "time": {
    "samples": {
      "AcquisitionNumber": [1, 2, 3, 4, 5, 6, 7, 8, 9, 10, 11, 12, 13, 14, 15, 16, 17, 18, 19, 20, 21, 22, 23, 24, 25, 26, 27, 28, 29, 30, 31, 32, 33, 34, 35, 36, 37, 38, 39, 40, 41, 42, 43, 44, 45, 46, 47, 48, 49, 50, 51, 52, 53, 54, 55, 56, 57, 58, 59, 60, 61, 62, 63, 64, 65, 66, 67, 68, 69, 70, 71, 72, 73, 74, 75, 76, 77, 78, 79, 80, 81, 82, 83, 84, 85, 86, 87, 88, 89, 90, 91, 92, 93, 94, 95, 96, 97, 98, 99, 100, 101, 102, 103, 104, 105, 106, 107, 108, 109, 110, 111, 112, 113, 114, 115, 116, 117, 118, 119, 120, 121, 122, 123, 124, 125, 126, 127, 128, 129, 130, 131, 132, 133, 134, 135, 136, 137, 138, 139, 140, 141, 142, 143, 144, 145, 146, 147, 148, 149, 150, 151, 152, 153, 154, 155, 156, 157, 158, 159, 160, 161, 162, 163, 164, 165, 166, 167, 168, 169, 170, 171, 172, 173, 174, 175, 176, 177, 178, 179, 180, 181, 182, 183, 184, 185, 186, 187, 188, 189, 190, 191, 192, 193, 194, 195, 196, 197, 198, 199, 200, 201, 202, 203, 204, 205, 206, 207, 208, 209, 210, 211, 212, 213, 214, 215, 216, 217, 218, 219, 220, 221, 222, 223, 224, 225, 226, 227, 228, 229, 230, 231, 232, 233, 234, 235, 236, 237, 238, 239, 240, 241, 242, 243, 244, 245, 246, 247, 248, 249, 250, 251, 252, 253, 254, 255, 256, 257, 258, 259, 260, 261, 262, 263, 264, 265, 266, 267, 268, 269, 270, 271, 272, 273, 274, 275, 276, 277, 278, 279, 280, 281, 282, 283, 284, 285, 286, 287, 288, 289, 290, 291, 292, 293, 294, 295, 296, 297, 298, 299, 300, 301, 302, 303, 304, 305, 306, 307, 308, 309, 310, 311, 312, 313, 314, 315, 316, 317, 318, 319, 320, 321, 322, 323, 324, 325, 326, 327, 328, 329, 330, 331, 332, 333, 334, 335, 336, 337, 338, 339, 340, 341, 342, 343, 344, 345, 346, 347, 348, 349, 350, 351, 352, 353, 354, 355, 356, 357, 358, 359, 360, 361, 362, 363, 364, 365, 366, 367, 368, 369, 370, 371, 372, 373, 374, 375, 376, 377, 378, 379, 380, 381, 382, 383, 384, 385, 386, 387, 388, 389, 390, 391, 392, 393, 394, 395, 396, 397, 398, 399, 400, 401, 402, 403, 404, 405, 406, 407, 408, 409, 410, 411, 412, 413, 414, 415, 416, 417, 418, 419, 420, 421, 422, 423, 424, 425, 426, 427, 428, 429, 430, 431, 432, 433, 434, 435, 436, 437, 438, 439, 440, 441, 442, 443, 444, 445, 446, 447, 448, 449, 450, 451, 452, 453, 454, 455, 456, 457, 458, 459, 460, 461, 462, 463, 464, 465],
      "AcquisitionTime": ["184709.160000", "184710.650000", "184712.140000", "184713.630000", "184715.120000", "184716.610000", "184718.100000", "184719.590000", "184721.080000", "184722.570000", "184724.060000", "184725.550000", "184727.040000", "184728.530000", "184730.020000", "184731.510000", "184733.000000", "184734.490000", "184735.980000", "184737.470000", "184738.960000", "184740.450000", "184741.940000", "184743.430000", "184744.920000", "184746.410000", "184747.900000", "184749.390000", "184750.880000", "184752.370000", "184753.860000", "184755.350000", "184756.840000", "184758.330000", "184759.820000", "184801.310000", "184802.800000", "184804.290000", "184805.780000", "184807.270000", "184808.760000", "184810.250000", "184811.740000", "184813.230000", "184814.720000", "184816.210000", "184817.700000", "184819.190000", "184820.680000", "184822.170000", "184823.660000", "184825.150000", "184826.640000", "184828.130000", "184829.620000", "184831.110000", "184832.600000", "184834.090000", "184835.580000", "184837.070000", "184838.560000", "184840.050000", "184841.540000", "184843.030000", "184844.520000", "184846.010000", "184847.500000", "184848.990000", "184850.480000", "184851.970000", "184853.460000", "184854.950000", "184856.440000", "184857.930000", "184859.420000", "184900.910000", "184902.400000", "184903.890000", "184905.380000", "184906.870000", "184908.360000", "184909.850000", "184911.340000", "184912.830000", "184914.320000", "184915.810000", "184917.300000", "184918.790000", "184920.280000", "184921.770000", "184923.260000", "184924.750000", "184926.240000", "184927.730000", "184929.220000", "184930.710000", "184932.200000", "184933.690000", "184935.180000", "184936.670000", "184938.160000", "184939.650000", "184941.140000", "184942.630000", "184944.120000", "184945.610000", "184947.100000", "184948.590000", "184950.080000", "184951.570000", "184953.060000", "184954.550000", "184956.040000", "184957.530000", "184959.020000", "185000.510000", "185002.000000", "185003.490000", "185004.980000", "185006.470000", "185007.960000", "185009.450000", "185010.940000", "185012.430000", "185013.920000", "185015.410000", "185016.900000", "185018.390000", "185019.880000", "185021.370000", "185022.860000", "185024.350000", "185025.840000", "185027.330000", "185028.820000", "185030.310000", "185031.800000", "185033.290000", "185034.780000", "185036.270000", "185037.760000", "185039.250000", "185040.740000", "185042.230000", "185043.720000", "185045.210000", "185046.700000", "185048.190000", "185049.680000", "185051.170000", "185052.660000", "185054.150000", "185055.640000", "185057.130000", "185058.620000", "185100.110000", "185101.600000", "185103.090000", "185104.580000", "185106.070000", "185107.560000", "185109.050000", "185110.540000", "185112.030000", "185113.520000", "185115.010000", "185116.500000", "185117.990000", "185119.480000", "185120.970000", "185122.460000", "185123.950000", "185125.440000", "185126.930000", "185128.420000", "185129.910000", "185131.400000", "185132.890000", "185134.380000", "185135.870000", "185137.360000", "185138.850000", "185140.340000", "185141.830000", "185143.320000", "185144.810000", "185146.300000", "185147.790000", "185149.280000", "185150.770000", "185152.260000", "185153.750000", "185155.240000", "185156.730000", "185158.220000", "185159.710000", "185201.200000", "185202.690000", "185204.180000", "185205.670000", "185207.160000", "185208.650000", "185210.140000", "185211.630000", "185213.120000", "185214.610000", "185216.100000", "185217.590000", "185219.080000", "185220.570000", "185222.060000", "185223.550000", "185225.040000", "185226.530000", "185228.020000", "185229.510000", "185231.000000", "185232.490000", "185233.980000", "185235.470000", "185236.960000", "185238.450000", "185239.940000", "185241.430000", "185242.920000", "185244.410000", "185245.900000", "185247.390000", "185248.880000", "185250.370000", "185251.860000", "185253.350000", "185254.840000", "185256.330000", "185257.820000", "185259.310000", "185300.800000", "185302.290000", "185303.780000", "185305.270000", "185306.760000", "185308.250000", "185309.740000", "185311.230000", "185312.720000", "185314.210000", "185315.700000", "185317.190000", "185318.680000", "185320.170000", "185321.660000", "185323.150000", "185324.640000", "185326.130000", "185327.620000", "185329.110000", "185330.600000", "185332.090000", "185333.580000", "185335.070000", "185336.560000", "185338.050000", "185339.540000", "185341.030000", "185342.520000", "185344.010000", "185345.500000", "185346.990000", "185348.480000", "185349.970000", "185351.460000", "185352.950000", "185354.440000", "185355.930000", "185357.420000", "185358.910000", "185400.400000", "185401.890000", "185403.380000", "185404.870000", "185406.360000", "185407.850000", "185409.340000", "185410.830000", "185412.320000", "185413.810000", "185415.300000", "185416.790000", "185418.280000", "185419.770000", "185421.260000", "185422.750000", "185424.240000", "185425.730000", "185427.220000", "185428.710000", "185430.200000", "185431.690000", "185433.180000", "185434.670000", "185436.160000", "185437.650000", "185439.140000", "185440.630000", "185442.120000", "185443.610000", "185445.100000", "185446.590000", "185448.080000", "185449.570000", "185451.060000", "185452.550000", "185454.040000", "185455.530000", "185457.020000", "185458.510000", "185500.000000", "185501.490000", "185502.980000", "185504.470000", "185505.960000", "185507.450000", "185508.940000", "185510.430000", "185511.920000", "185513.410000", "185514.900000", "185516.390000", "185517.880000", "185519.370000", "185520.860000", "185522.350000", "185523.840000", "185525.330000", "185526.820000", "185528.310000", "185529.800000", "185531.290000", "185532.780000", "185534.270000", "185535.760000", "185537.250000", "185538.740000", "185540.230000", "185541.720000", "185543.210000", "185544.700000", "185546.190000", "185547.680000", "185549.170000", "185550.660000", "185552.150000", "185553.640000", "185555.130000", "185556.620000", "185558.110000", "185559.600000", "185601.090000", "185602.580000", "185604.070000", "185605.560000", "185607.050000", "185608.540000", "185610.030000", "185611.520000", "185613.010000", "185614.500000", "185615.990000", "185617.480000", "185618.970000", "185620.460000", "185621.950000", "185623.440000", "185624.930000", "185626.420000", "185627.910000", "185629.400000", "185630.890000", "185632.380000", "185633.870000", "185635.360000", "185636.850000", "185638.340000", "185639.830000", "185641.320000", "185642.810000", "185644.300000", "185645.790000", "185647.280000", "185648.770000", "185650.260000", "185651.750000", "185653.240000", "185654.730000", "185656.220000", "185657.710000", "185659.200000", "185700.690000", "185702.180000", "185703.670000", "185705.160000", "185706.650000", "185708.140000", "185709.630000", "185711.120000", "185712.610000", "185714.100000", "185715.590000", "185717.080000", "185718.570000", "185720.060000", "185721.550000", "185723.040000", "185724.530000", "185726.020000", "185727.510000", "185729.000000", "185730.490000", "185731.980000", "185733.470000", "185734.960000", "185736.450000", "185737.940000", "185739.430000", "185740.920000", "185742.410000", "185743.900000", "185745.390000", "185746.880000", "185748.370000", "185749.860000", "185751.350000", "185752.840000", "185754.330000", "185755.820000", "185757.310000", "185758.800000", "185800.290000", "185801.780000", "185803.270000", "185804.760000", "185806.250000", "185807.740000", "185809.230000", "185810.720000", "185812.210000", "185813.700000", "185815.190000", "185816.680000", "185818.170000", "185819.660000", "185821.150000", "185822.640000", "185824.130000", "185825.620000", "185827.110000", "185828.600000", "185830.090000", "185831.580000", "185833.070000", "185834.560000", "185836.050000", "185837.540000", "185839.030000", "185840.520000"],
      "ContentTime": ["184817.416000", "184817.420000", "184817.424000", "184817.427000", "184817.430000", "184817.434000", "184817.437000", "184817.446000", "184817.449000", "184817.452000", "184817.456000", "184817.459000", "184817.462000", "184817.466000", "184817.469000", "184817.472000", "184817.476000", "184817.479000", "184817.482000", "184817.486000", "184817.489000", "184837.369000", "184837.373000", "184837.376000", "184837.380000", "184837.383000", "184837.386000", "184837.390000", "184837.393000", "184837.396000", "184837.400000", "184837.403000", "184837.406000", "184837.410000", "184837.413000", "184837.416000", "184837.420000", "184837.423000", "184837.426000", "184837.430000", "184837.433000", "184857.369000", "184857.373000", "184857.376000", "184857.380000", "184857.383000", "184857.387000", "184857.390000", "184857.393000", "184857.397000", "184857.400000", "184857.403000", "184857.407000", "184857.410000", "184857.413000", "184857.416000", "184857.420000", "184857.423000", "184857.426000", "184857.430000", "184857.433000", "184857.436000", "184917.369000", "184917.373000", "184917.376000", "184917.379000", "184917.383000", "184917.386000", "184917.389000", "184917.393000", "184917.396000", "184917.399000", "184917.403000", "184917.406000", "184917.409000", "184917.413000", "184917.416000", "184917.419000", "184917.423000", "184917.426000", "184917.429000", "184917.433000", "184957.369000", "184957.373000", "184957.376000", "184957.380000", "184957.383000", "184957.387000", "184957.390000", "184957.393000", "184957.397000", "184957.414000", "184957.418000", "184957.421000", "184957.424000", "184957.428000", "184957.431000", "184957.434000", "184957.438000", "184957.441000", "184957.444000", "184957.448000", "184957.451000", "184957.454000", "184957.458000", "184957.461000", "184957.464000", "184957.475000", "184957.478000", "184957.481000", "184957.485000", "184957.488000", "185037.369000", "185037.373000", "185037.376000", "185037.380000", "185037.383000", "185037.386000", "185037.390000", "185037.393000", "185037.397000", "185037.400000", "185037.403000", "185037.407000", "185037.410000", "185037.413000", "185037.417000", "185037.420000", "185037.423000", "185037.427000", "185037.430000", "185037.434000", "185037.437000", "185037.440000", "185037.444000", "185037.447000", "185037.450000", "185037.454000", "185037.457000", "185117.369000", "185117.373000", "185117.376000", "185117.380000", "185117.383000", "185117.386000", "185117.390000", "185117.393000", "185117.397000", "185117.400000", "185117.403000", "185117.407000", "185117.410000", "185117.413000", "185117.417000", "185117.420000", "185117.423000", "185117.427000", "185117.430000", "185117.434000", "185117.437000", "185117.440000", "185117.444000", "185117.450000", "185117.453000", "185117.457000", "185117.460000", "185157.369000", "185157.373000", "185157.376000", "185157.380000", "185157.383000", "185157.386000", "185157.390000", "185157.393000", "185157.396000", "185157.400000", "185157.403000", "185157.407000", "185157.410000", "185157.414000", "185157.417000", "185157.420000", "185157.424000", "185157.427000", "185157.431000", "185157.434000", "185157.437000", "185157.441000", "185157.444000", "185157.447000", "185157.451000", "185157.454000", "185157.458000", "185237.369000", "185237.389000", "185237.393000", "185237.396000", "185237.399000", "185237.403000", "185237.406000", "185237.409000", "185237.413000", "185237.416000", "185237.420000", "185237.423000", "185237.426000", "185237.430000", "185237.433000", "185237.437000", "185237.440000", "185237.443000", "185237.447000", "185237.450000", "185237.454000", "185237.457000", "185237.460000", "185237.464000", "185237.467000", "185237.470000", "185237.474000", "185317.369000", "185317.373000", "185317.376000", "185317.380000", "185317.383000", "185317.386000", "185317.390000", "185317.393000", "185317.397000", "185317.400000", "185317.403000", "185317.407000", "185317.410000", "185317.414000", "185317.417000", "185317.420000", "185317.424000", "185317.427000", "185317.430000", "185317.436000", "185317.439000", "185317.443000", "185317.446000", "185317.449000", "185317.453000", "185317.456000", "185357.369000", "185357.373000", "185357.376000", "185357.380000", "185357.383000", "185357.386000", "185357.390000", "185357.393000", "185357.397000", "185357.400000", "185357.403000", "185357.407000", "185357.410000", "185357.413000", "185357.417000", "185357.420000", "185357.424000", "185357.427000", "185357.431000", "185357.434000", "185357.437000", "185357.441000", "185357.444000", "185357.448000", "185357.451000", "185357.454000", "185357.458000", "185437.369000", "185437.373000", "185437.376000", "185437.380000", "185437.383000", "185437.386000", "185437.390000", "185437.393000", "185437.396000", "185437.400000", "185437.403000", "185437.407000", "185437.410000", "185437.413000", "185437.430000", "185437.433000", "185437.437000", "185437.440000", "185437.444000", "185437.448000", "185437.451000", "185437.454000", "185437.458000", "185437.461000", "185437.464000", "185437.468000", "185437.471000", "185517.369000", "185517.373000", "185517.376000", "185517.380000", "185517.383000", "185517.387000", "185517.390000", "185517.393000", "185517.397000", "185517.400000", "185517.403000", "185517.407000", "185517.410000", "185517.422000", "185517.426000", "185517.429000", "185517.432000", "185517.436000", "185517.439000", "185517.443000", "185517.446000", "185517.450000", "185517.453000", "185517.456000", "185517.460000", "185517.463000", "185517.467000", "185557.369000", "185557.373000", "185557.376000", "185557.380000", "185557.383000", "185557.387000", "185557.390000", "185557.393000", "185557.397000", "185557.400000", "185557.403000", "185557.407000", "185557.410000", "185557.414000", "185557.417000", "185557.420000", "185557.424000", "185557.427000", "185557.430000", "185557.434000", "185557.437000", "185557.440000", "185557.444000", "185557.447000", "185557.450000", "185557.454000", "185557.457000", "185637.370000", "185637.373000", "185637.377000", "185637.380000", "185637.383000", "185637.387000", "185637.390000", "185637.393000", "185637.397000", "185637.400000", "185637.404000", "185637.407000", "185637.411000", "185637.414000", "185637.417000", "185637.421000", "185637.424000", "185637.428000", "185637.431000", "185637.435000", "185637.438000", "185637.441000", "185637.445000", "185637.448000", "185637.451000", "185637.471000", "185637.475000", "185717.369000", "185717.373000", "185717.377000", "185717.380000", "185717.383000", "185717.387000", "185717.390000", "185717.394000", "185717.397000", "185717.401000", "185717.404000", "185717.407000", "185717.411000", "185717.414000", "185717.418000", "185717.421000", "185717.424000", "185717.428000", "185717.433000", "185717.437000", "185717.440000", "185717.444000", "185717.447000", "185717.452000", "185717.456000", "185717.459000", "185757.369000", "185757.373000", "185757.376000", "185757.380000", "185757.383000", "185757.386000", "185757.390000", "185757.393000", "185757.397000", "185757.400000", "185757.403000", "185757.407000", "185757.410000", "185757.414000", "185757.417000", "185757.420000", "185757.424000", "185757.427000", "185757.431000", "185757.434000", "185757.437000", "185757.441000", "185757.444000", "185757.447000", "185757.451000", "185757.454000", "185757.458000", "185837.369000", "185837.373000", "185837.377000", "185837.380000", "185837.383000", "185837.387000", "185837.390000", "185837.393000", "185837.397000", "185837.400000", "185837.404000", "185837.407000", "185837.410000", "185837.414000", "185837.417000", "185837.420000", "185837.424000", "185837.427000", "185837.431000", "185837.434000", "185837.437000", "185837.441000", "185837.444000", "185837.447000", "185837.451000", "185837.454000", "185837.458000", "185843.778000", "185843.782000", "185843.785000", "185843.788000"],
