{
  "AcquisitionMatrixPE": 104,
  "AcquisitionNumber": 1,
  "AcquisitionTime": "18:19:53.702500",
  "BandwidthPerPixelPhaseEncode": 17.17,
  "BaseResolution": 104,
  "BodyPartExamined": "BRAIN",
  "CoilCombinationMethod": "Sum of Squares",
  "ConsistencyInfo": "N4_VE11C_LATEST_20160120",
  "ConversionSoftware": "dcm2niix",
  "ConversionSoftwareVersion": "v1.0.20211006",
  "DerivedVendorReportedEchoSpacing": 0.000560011,
  "DeviceSerialNumber": "167006",
  "DwellTime": 2.1e-06,
  "EchoTime": 0.037,
  "EchoTrainLength": 104,
  "EffectiveEchoSpacing": 0.000560011,
  "FlipAngle": 52,
  "HeudiconvVersion": "0.11.3.post9+gc939bf8",
  "ImageComments": "Unaliased MB4/PE3/LB",
  "ImageOrientationPatientDICOM": [0.999913, -0.0054613, -0.0120096, 0.000523506, 0.926005, -0.37751],
  "ImageOrientationText": "Tra>Cor(-22.2)>Sag(-0.8)",
  "ImageType": [
    "ORIGINAL",
    "PRIMARY",
    "M",
    "MB",
    "ND",
    "MOSAIC"
],
  "ImagingFrequency": 123.259,
  "InPlanePhaseEncodingDirectionDICOM": "COL",
  "InstitutionAddress": "Chemin Queen-Mary 4565,Montreal,District,CA,H3W 1W5",
  "InstitutionName": "IUGM",
  "InstitutionalDepartmentName": "Department",
  "MRAcquisitionType": "2D",
  "MagneticFieldStrength": 3,
  "Manufacturer": "Siemens",
  "ManufacturersModelName": "Prisma_fit",
  "MatrixCoilMode": "SENSE",
  "Modality": "MR",
  "MultibandAccelerationFactor": 4,
  "PartialFourier": 1,
  "PatientPosition": "HFS",
  "PercentPhaseFOV": 100,
  "PercentSampling": 100,
  "PhaseEncodingDirection": "j",
  "PhaseEncodingSteps": 104,
  "PhaseResolution": 1,
  "PixelBandwidth": 2290,
  "ProcedureStepDescription": "games^mario",
  "ProtocolName": "func_task-mario_run-03",
  "PulseSequenceDetails": "%CustomerSeq%\\cmrr_mbep2d_bold",
  "ReceiveCoilActiveElements": "HC1-7;NC1,2",
  "ReceiveCoilName": "HeadNeck_64",
  "ReconMatrixPE": 104,
  "RepetitionTime": 1.49,
  "SAR": 0.0813601,
  "ScanOptions": "FS",
  "ScanningSequence": "EP",
  "SequenceName": "epfid2d1_104",
  "SequenceVariant": "SK\\SS",
  "SeriesDescription": "func_task-mario_run-03",
  "SeriesNumber": 16,
  "ShimSetting": [610, -7254, -8815, 423, 24, -342, 4, 24],
  "SliceThickness": 2,
  "SliceTiming": [0, 0.785, 0.0975, 0.8825, 0.1975, 0.98, 0.295, 1.0775, 0.3925, 1.175, 0.49, 1.275, 0.5875, 1.3725, 0.685, 0, 0.785, 0.0975, 0.8825, 0.1975, 0.98, 0.295, 1.0775, 0.3925, 1.175, 0.49, 1.275, 0.5875, 1.3725, 0.685, 0, 0.785, 0.0975, 0.8825, 0.1975, 0.98, 0.295, 1.0775, 0.3925, 1.175, 0.49, 1.275, 0.5875, 1.3725, 0.685, 0, 0.785, 0.0975, 0.8825, 0.1975, 0.98, 0.295, 1.0775, 0.3925, 1.175, 0.49, 1.275, 0.5875, 1.3725, 0.685],
  "SoftwareVersions": "syngo MR E11",
  "SpacingBetweenSlices": 2,
  "StationName": "MRC35049",
  "TaskName": "mario",
  "TotalReadoutTime": 0.0576811,
  "TxRefAmp": 319.894,
  "WipMemBlock": "9469e14a-96f1-44e1-9771-c3a521a88c11||Sequence: R017 ve11c/master r/75a17815+; Jun 28 2022 16:32:11 by eja",
  "dcmmeta_affine": [
    [-1.9998259544372559, 0.0010470118140801787, -0.0263652466237545, 104.5242691040039],
    [0.010922601446509361, 1.852010726928711, -0.7549416422843933, -67.04974365234375],
    [-0.024019144475460052, 0.7550199627876282, 1.8518551588058472, -59.68675231933594],
    [0.0, 0.0, 0.0, 1.0]
],
  "dcmmeta_reorient_transform": [
    [0.0, -1.0, 0.0, 103.0],
    [1.0, 0.0, 0.0, 0.0],
    [0.0, 0.0, 1.0, 0.0],
    [0.0, 0.0, 0.0, 1.0]
],
  "dcmmeta_shape": [104, 104, 60, 462],
  "dcmmeta_slice_dim": 2,
  "dcmmeta_version": 0.6,
  "global": {
    "const": {
      "AcquisitionMatrix": [104, 0, 0, 104],
      "AngioFlag": "N",
      "BitsAllocated": 16,
      "BitsStored": 16,
      "BodyPartExamined": "BRAIN",
      "Columns": 832,
      "EchoNumbers": 1,
      "EchoTime": 37.0,
      "EchoTrainLength": 104,
      "FlipAngle": 52.0,
      "HighBit": 15,
      "ImageOrientationPatient": [0.999912968403, -0.005461300535, -0.0120095718474, 0.00052350589364, 0.92600536623619, -0.3775099835016],
      "ImagePositionPatient": [-832.94986624695, -793.86344208231, 301.65054058869],
      "ImageType": [
        "ORIGINAL",
        "PRIMARY",
        "M",
        "MB",
        "ND",
        "MOSAIC"
],
      "ImagedNucleus": "1H",
      "ImagingFrequency": 123.258769,
      "InPlanePhaseEncodingDirection": "COL",
      "MRAcquisitionType": "2D",
      "MagneticFieldStrength": 3.0,
      "Manufacturer": "SIEMENS",
      "ManufacturerModelName": "Prisma_fit",
      "Modality": "MR",
      "NumberOfAverages": 1.0,
      "NumberOfPhaseEncodingSteps": 104,
      "PercentPhaseFieldOfView": 100.0,
      "PercentSampling": 100.0,
      "PerformedProcedureStepStartTime": "173321.449000",
      "PhotometricInterpretation": "MONOCHROME2",
      "PixelBandwidth": 2290.0,
      "PixelRepresentation": 0,
      "PixelSpacing": [2.0, 2.0],
      "ProtocolName": "func_task-mario_run-03",
      "RepetitionTime": 1490.0,
      "Rows": 832,
      "SAR": 0.08136014625409,
      "SamplesPerPixel": 1,
      "ScanOptions": "FS",
      "ScanningSequence": "EP",
      "SequenceName": "epfid2d1_104",
      "SequenceVariant": [
        "SK",
        "SS"
],
      "SeriesDescription": "func_task-mario_run-03",
      "SeriesNumber": 16,
      "SeriesTime": "182119.997000",
      "SliceLocation": -31.33419445936,
      "SliceThickness": 2.0,
      "SmallestImagePixelValue": 0,
      "SoftwareVersions": "syngo MR E11",
      "SpacingBetweenSlices": 1.9999999354769,
      "SpecificCharacterSet": "ISO_IR 100",
      "StudyID": "1",
      "StudyTime": "173321.368000",
      "TransmitCoilName": "Body",
      "VariableFlipAngleFlag": "N",
      "WindowCenterWidthExplanation": "Algo1",
      "dBdt": 0.0},
    "slices": {}
  },
  "time": {
    "samples": {
      "AcquisitionNumber": [1, 2, 3, 4, 5, 6, 7, 8, 9, 10, 11, 12, 13, 14, 15, 16, 17, 18, 19, 20, 21, 22, 23, 24, 25, 26, 27, 28, 29, 30, 31, 32, 33, 34, 35, 36, 37, 38, 39, 40, 41, 42, 43, 44, 45, 46, 47, 48, 49, 50, 51, 52, 53, 54, 55, 56, 57, 58, 59, 60, 61, 62, 63, 64, 65, 66, 67, 68, 69, 70, 71, 72, 73, 74, 75, 76, 77, 78, 79, 80, 81, 82, 83, 84, 85, 86, 87, 88, 89, 90, 91, 92, 93, 94, 95, 96, 97, 98, 99, 100, 101, 102, 103, 104, 105, 106, 107, 108, 109, 110, 111, 112, 113, 114, 115, 116, 117, 118, 119, 120, 121, 122, 123, 124, 125, 126, 127, 128, 129, 130, 131, 132, 133, 134, 135, 136, 137, 138, 139, 140, 141, 142, 143, 144, 145, 146, 147, 148, 149, 150, 151, 152, 153, 154, 155, 156, 157, 158, 159, 160, 161, 162, 163, 164, 165, 166, 167, 168, 169, 170, 171, 172, 173, 174, 175, 176, 177, 178, 179, 180, 181, 182, 183, 184, 185, 186, 187, 188, 189, 190, 191, 192, 193, 194, 195, 196, 197, 198, 199, 200, 201, 202, 203, 204, 205, 206, 207, 208, 209, 210, 211, 212, 213, 214, 215, 216, 217, 218, 219, 220, 221, 222, 223, 224, 225, 226, 227, 228, 229, 230, 231, 232, 233, 234, 235, 236, 237, 238, 239, 240, 241, 242, 243, 244, 245, 246, 247, 248, 249, 250, 251, 252, 253, 254, 255, 256, 257, 258, 259, 260, 261, 262, 263, 264, 265, 266, 267, 268, 269, 270, 271, 272, 273, 274, 275, 276, 277, 278, 279, 280, 281, 282, 283, 284, 285, 286, 287, 288, 289, 290, 291, 292, 293, 294, 295, 296, 297, 298, 299, 300, 301, 302, 303, 304, 305, 306, 307, 308, 309, 310, 311, 312, 313, 314, 315, 316, 317, 318, 319, 320, 321, 322, 323, 324, 325, 326, 327, 328, 329, 330, 331, 332, 333, 334, 335, 336, 337, 338, 339, 340, 341, 342, 343, 344, 345, 346, 347, 348, 349, 350, 351, 352, 353, 354, 355, 356, 357, 358, 359, 360, 361, 362, 363, 364, 365, 366, 367, 368, 369, 370, 371, 372, 373, 374, 375, 376, 377, 378, 379, 380, 381, 382, 383, 384, 385, 386, 387, 388, 389, 390, 391, 392, 393, 394, 395, 396, 397, 398, 399, 400, 401, 402, 403, 404, 405, 406, 407, 408, 409, 410, 411, 412, 413, 414, 415, 416, 417, 418, 419, 420, 421, 422, 423, 424, 425, 426, 427, 428, 429, 430, 431, 432, 433, 434, 435, 436, 437, 438, 439, 440, 441, 442, 443, 444, 445, 446, 447, 448, 449, 450, 451, 452, 453, 454, 455, 456, 457, 458, 459, 460, 461, 462],
      "AcquisitionTime": ["181953.702500", "181955.192500", "181956.682500", "181958.172500", "181959.662500", "182001.152500", "182002.642500", "182004.132500", "182005.622500", "182007.112500", "182008.602500", "182010.092500", "182011.582500", "182013.072500", "182014.562500", "182016.052500", "182017.542500", "182019.032500", "182020.522500", "182022.012500", "182023.502500", "182024.992500", "182026.482500", "182027.972500", "182029.462500", "182030.952500", "182032.442500", "182033.932500", "182035.422500", "182036.912500", "182038.402500", "182039.892500", "182041.382500", "182042.872500", "182044.362500", "182045.852500", "182047.342500", "182048.832500", "182050.322500", "182051.812500", "182053.302500", "182054.792500", "182056.282500", "182057.772500", "182059.262500", "182100.752500", "182102.242500", "182103.732500", "182105.222500", "182106.712500", "182108.202500", "182109.692500", "182111.182500", "182112.672500", "182114.162500", "182115.652500", "182117.142500", "182118.632500", "182120.122500", "182121.612500", "182123.102500", "182124.592500", "182126.082500", "182127.572500", "182129.062500", "182130.552500", "182132.042500", "182133.532500", "182135.022500", "182136.512500", "182138.002500", "182139.492500", "182140.982500", "182142.472500", "182143.962500", "182145.452500", "182146.942500", "182148.432500", "182149.922500", "182151.412500", "182152.902500", "182154.392500", "182155.882500", "182157.372500", "182158.862500", "182200.352500", "182201.842500", "182203.332500", "182204.822500", "182206.312500", "182207.802500", "182209.292500", "182210.782500", "182212.272500", "182213.762500", "182215.252500", "182216.742500", "182218.232500", "182219.722500", "182221.212500", "182222.702500", "182224.192500", "182225.682500", "182227.172500", "182228.662500", "182230.152500", "182231.642500", "182233.132500", "182234.622500", "182236.112500", "182237.602500", "182239.092500", "182240.582500", "182242.072500", "182243.562500", "182245.052500", "182246.542500", "182248.032500", "182249.522500", "182251.012500", "182252.502500", "182253.992500", "182255.482500", "182256.972500", "182258.462500", "182259.952500", "182301.442500", "182302.932500", "182304.422500", "182305.912500", "182307.402500", "182308.892500", "182310.382500", "182311.872500", "182313.362500", "182314.852500", "182316.342500", "182317.832500", "182319.322500", "182320.812500", "182322.302500", "182323.792500", "182325.282500", "182326.772500", "182328.262500", "182329.752500", "182331.242500", "182332.732500", "182334.222500", "182335.712500", "182337.202500", "182338.692500", "182340.182500", "182341.672500", "182343.162500", "182344.652500", "182346.142500", "182347.632500", "182349.122500", "182350.612500", "182352.102500", "182353.592500", "182355.082500", "182356.572500", "182358.062500", "182359.552500", "182401.042500", "182402.532500", "182404.022500", "182405.512500", "182407.002500", "182408.492500", "182409.982500", "182411.472500", "182412.962500", "182414.452500", "182415.942500", "182417.432500", "182418.922500", "182420.412500", "182421.902500", "182423.392500", "182424.882500", "182426.372500", "182427.862500", "182429.352500", "182430.842500", "182432.332500", "182433.822500", "182435.312500", "182436.802500", "182438.292500", "182439.782500", "182441.272500", "182442.762500", "182444.252500", "182445.742500", "182447.232500", "182448.722500", "182450.212500", "182451.702500", "182453.192500", "182454.682500", "182456.172500", "182457.662500", "182459.152500", "182500.642500", "182502.132500", "182503.622500", "182505.112500", "182506.602500", "182508.092500", "182509.582500", "182511.072500", "182512.562500", "182514.052500", "182515.542500", "182517.032500", "182518.522500", "182520.012500", "182521.502500", "182522.992500", "182524.482500", "182525.972500", "182527.462500", "182528.952500", "182530.442500", "182531.932500", "182533.422500", "182534.912500", "182536.402500", "182537.892500", "182539.382500", "182540.872500", "182542.362500", "182543.852500", "182545.342500", "182546.832500", "182548.322500", "182549.812500", "182551.302500", "182552.792500", "182554.282500", "182555.772500", "182557.262500", "182558.752500", "182600.242500", "182601.732500", "182603.222500", "182604.712500", "182606.202500", "182607.692500", "182609.182500", "182610.672500", "182612.162500", "182613.652500", "182615.142500", "182616.632500", "182618.122500", "182619.612500", "182621.102500", "182622.592500", "182624.082500", "182625.572500", "182627.062500", "182628.552500", "182630.042500", "182631.532500", "182633.022500", "182634.512500", "182636.002500", "182637.492500", "182638.982500", "182640.472500", "182641.962500", "182643.452500", "182644.942500", "182646.432500", "182647.922500", "182649.412500", "182650.902500", "182652.392500", "182653.882500", "182655.372500", "182656.862500", "182658.352500", "182659.842500", "182701.332500", "182702.822500", "182704.312500", "182705.802500", "182707.292500", "182708.782500", "182710.272500", "182711.762500", "182713.252500", "182714.742500", "182716.232500", "182717.722500", "182719.212500", "182720.702500", "182722.192500", "182723.682500", "182725.172500", "182726.662500", "182728.152500", "182729.642500", "182731.132500", "182732.622500", "182734.112500", "182735.602500", "182737.092500", "182738.582500", "182740.072500", "182741.562500", "182743.052500", "182744.542500", "182746.032500", "182747.522500", "182749.012500", "182750.502500", "182751.992500", "182753.482500", "182754.972500", "182756.462500", "182757.952500", "182759.442500", "182800.932500", "182802.422500", "182803.912500", "182805.402500", "182806.892500", "182808.382500", "182809.872500", "182811.362500", "182812.852500", "182814.342500", "182815.832500", "182817.322500", "182818.812500", "182820.302500", "182821.792500", "182823.282500", "182824.772500", "182826.262500", "182827.752500", "182829.242500", "182830.732500", "182832.222500", "182833.712500", "182835.202500", "182836.692500", "182838.182500", "182839.672500", "182841.162500", "182842.652500", "182844.142500", "182845.632500", "182847.122500", "182848.612500", "182850.102500", "182851.592500", "182853.082500", "182854.572500", "182856.062500", "182857.552500", "182859.042500", "182900.532500", "182902.022500", "182903.512500", "182905.002500", "182906.492500", "182907.982500", "182909.472500", "182910.962500", "182912.452500", "182913.942500", "182915.432500", "182916.922500", "182918.412500", "182919.902500", "182921.392500", "182922.882500", "182924.372500", "182925.862500", "182927.352500", "182928.842500", "182930.332500", "182931.822500", "182933.312500", "182934.802500", "182936.292500", "182937.782500", "182939.272500", "182940.762500", "182942.252500", "182943.742500", "182945.232500", "182946.722500", "182948.212500", "182949.702500", "182951.192500", "182952.682500", "182954.172500", "182955.662500", "182957.152500", "182958.642500", "183000.132500", "183001.622500", "183003.112500", "183004.602500", "183006.092500", "183007.582500", "183009.072500", "183010.562500", "183012.052500", "183013.542500", "183015.032500", "183016.522500", "183018.012500", "183019.502500", "183020.992500", "183022.482500", "183023.972500", "183025.462500", "183026.952500", "183028.442500", "183029.932500", "183031.422500", "183032.912500", "183034.402500", "183035.892500", "183037.382500", "183038.872500", "183040.362500", "183041.852500", "183043.342500", "183044.832500", "183046.322500", "183047.812500", "183049.302500", "183050.792500", "183052.282500", "183053.772500", "183055.262500", "183056.752500", "183058.242500", "183059.732500", "183101.222500", "183102.712500", "183104.202500", "183105.692500", "183107.182500", "183108.672500", "183110.162500", "183111.652500", "183113.142500", "183114.632500", "183116.122500", "183117.612500", "183119.102500", "183120.592500"],
      "ContentTime": ["182120.001000", "182120.005000", "182120.008000", "182120.012000", "182120.015000", "182120.018000", "182120.022000", "182120.025000", "182120.028000", "182120.032000", "182120.035000", "182120.038000", "182120.041000", "182120.045000", "182120.048000", "182120.051000", "182120.055000", "182120.058000", "182120.061000", "182120.065000", "182120.068000", "182120.072000", "182120.075000", "182120.078000", "182120.082000", "182120.085000", "182120.089000", "182120.093000", "182120.097000", "182120.100000", "182120.103000", "182120.136000", "182120.140000", "182120.143000", "182120.146000", "182120.150000", "182139.966000", "182139.970000", "182139.973000", "182139.976000", "182139.980000", "182139.983000", "182139.986000", "182139.990000", "182139.993000", "182140.007000", "182140.010000", "182140.013000", "182140.017000", "182140.020000", "182140.025000", "182140.029000", "182140.032000", "182140.036000", "182140.039000", "182140.042000", "182140.046000", "182159.967000", "182159.971000", "182159.974000", "182159.978000", "182159.981000", "182159.984000", "182159.988000", "182159.991000", "182159.994000", "182159.998000", "182200.001000", "182200.004000", "182200.008000", "182200.011000", "182200.014000", "182200.018000", "182200.021000", "182200.025000", "182200.028000", "182200.031000", "182219.967000", "182219.971000", "182219.974000", "182219.978000", "182219.981000", "182219.984000", "182219.988000", "182219.991000", "182219.994000", "182219.998000", "182220.002000", "182220.006000", "182220.009000", "182220.012000", "182220.016000", "182220.019000", "182220.023000", "182220.026000", "182220.029000", "182220.033000", "182259.967000", "182259.971000", "182259.975000", "182259.978000", "182259.981000", "182259.985000", "182259.988000", "182259.991000", "182259.995000", "182259.998000", "182300.002000", "182300.006000", "182300.009000", "182300.012000", "182300.016000", "182300.019000", "182300.023000", "182300.026000", "182300.029000", "182300.033000", "182300.036000", "182300.039000", "182300.043000", "182300.046000", "182300.049000", "182300.053000", "182300.056000", "182339.966000", "182339.970000", "182339.973000", "182339.977000", "182339.980000", "182339.983000", "182339.987000", "182339.990000", "182339.993000", "182339.997000", "182340.001000", "182340.004000", "182340.008000", "182340.011000", "182340.014000", "182340.018000", "182340.021000", "182340.025000", "182340.028000", "182340.031000", "182340.046000", "182340.050000", "182340.053000", "182340.057000", "182340.060000", "182340.063000", "182340.066000", "182419.967000", "182419.971000", "182419.974000", "182419.978000", "182419.981000", "182419.984000", "182419.988000", "182419.991000", "182419.994000", "182419.998000", "182420.001000", "182420.004000", "182420.008000", "182420.011000", "182420.015000", "182420.018000", "182420.021000", "182420.025000", "182420.028000", "182420.031000", "182420.035000", "182420.038000", "182420.042000", "182420.045000", "182420.048000", "182420.052000", "182420.055000", "182459.967000", "182459.971000", "182459.975000", "182459.979000", "182459.982000", "182459.985000", "182459.989000", "182459.992000", "182459.996000", "182500.000000", "182500.003000", "182500.007000", "182500.010000", "182500.014000", "182500.017000", "182500.020000", "182500.024000", "182500.027000", "182500.030000", "182500.034000", "182500.037000", "182500.041000", "182500.044000", "182500.047000", "182500.051000", "182500.054000", "182500.058000", "182539.967000", "182539.971000", "182539.974000", "182539.978000", "182539.981000", "182539.984000", "182539.988000", "182539.991000", "182539.994000", "182539.998000", "182540.002000", "182540.006000", "182540.009000", "182540.012000", "182540.016000", "182540.019000", "182540.022000", "182540.026000", "182540.029000", "182540.032000", "182540.036000", "182540.040000", "182540.044000", "182540.047000", "182540.050000", "182540.054000", "182619.967000", "182619.970000", "182619.974000", "182619.977000", "182619.981000", "182619.984000", "182619.987000", "182619.991000", "182619.994000", "182619.998000", "182620.017000", "182620.021000", "182620.024000", "182620.027000", "182620.031000", "182620.034000", "182620.037000", "182620.041000", "182620.044000", "182620.048000", "182620.051000", "182620.054000", "182620.058000", "182620.061000", "182620.064000", "182620.068000", "182620.071000", "182659.967000", "182659.971000", "182659.974000", "182659.978000", "182659.981000", "182659.985000", "182659.988000", "182659.991000", "182659.995000", "182659.998000", "182700.003000", "182700.006000", "182700.010000", "182700.013000", "182700.016000", "182700.020000", "182700.023000", "182700.027000", "182700.030000", "182700.033000", "182700.037000", "182700.040000", "182700.043000", "182700.047000", "182700.050000", "182700.054000", "182700.057000", "182739.967000", "182739.971000", "182739.974000", "182739.978000", "182739.981000", "182739.984000", "182739.988000", "182739.991000", "182739.995000", "182739.998000", "182740.002000", "182740.006000", "182740.009000", "182740.013000", "182740.016000", "182740.019000", "182740.023000", "182740.026000", "182740.030000", "182740.033000", "182740.036000", "182740.040000", "182740.043000", "182740.046000", "182740.050000", "182740.053000", "182740.056000", "182819.966000", "182819.974000", "182819.977000", "182819.981000", "182819.984000", "182819.987000", "182819.991000", "182819.994000", "182819.998000", "182820.002000", "182820.005000", "182820.009000", "182820.012000", "182820.015000", "182820.019000", "182820.022000", "182820.026000", "182820.029000", "182820.032000", "182820.036000", "182820.039000", "182820.063000", "182820.066000", "182820.069000", "182820.073000", "182820.076000", "182820.080000", "182859.967000", "182859.971000", "182859.974000", "182859.978000", "182859.981000", "182859.984000", "182859.988000", "182859.991000", "182859.995000", "182859.998000", "182900.001000", "182900.005000", "182900.008000", "182900.011000", "182900.015000", "182900.018000", "182900.022000", "182900.025000", "182900.028000", "182900.032000", "182900.035000", "182900.039000", "182900.042000", "182900.045000", "182900.049000", "182900.052000", "182900.055000", "182939.967000", "182939.971000", "182939.974000", "182939.978000", "182939.982000", "182939.985000", "182939.989000", "182939.992000", "182939.995000", "182940.000000", "182940.003000", "182940.007000", "182940.010000", "182940.014000", "182940.017000", "182940.020000", "182940.024000", "182940.027000", "182940.031000", "182940.034000", "182940.037000", "182940.041000", "182940.045000", "182940.050000", "182940.054000", "182940.058000", "183019.967000", "183019.971000", "183019.974000", "183019.978000", "183019.981000", "183019.985000", "183019.988000", "183019.991000", "183019.995000", "183019.998000", "183020.002000", "183020.006000", "183020.009000", "183020.013000", "183020.016000", "183020.019000", "183020.023000", "183020.026000", "183020.029000", "183020.033000", "183020.036000", "183020.039000", "183020.043000", "183020.046000", "183020.050000", "183020.053000", "183020.057000", "183059.966000", "183059.970000", "183059.974000", "183059.977000", "183059.980000", "183059.984000", "183059.987000", "183059.991000", "183059.994000", "183059.997000", "183100.002000", "183100.005000", "183100.009000", "183100.012000", "183100.015000", "183100.019000", "183100.022000", "183100.025000", "183100.029000", "183100.032000", "183100.036000", "183100.039000", "183100.042000", "183100.046000", "183100.049000", "183100.052000", "183100.056000", "183119.967000", "183119.971000", "183119.974000", "183119.978000", "183119.981000", "183119.984000", "183119.988000", "183119.991000", "183119.994000", "183119.998000", "183120.001000", "183120.005000", "183120.008000", "183120.011000", "183122.944000", "183122.948000"],
