{
  "AcquisitionMatrixPE": 104,
  "AcquisitionNumber": 1,
  "AcquisitionTime": "18:32:55.825000",
  "BandwidthPerPixelPhaseEncode": 17.17,
  "BaseResolution": 104,
  "BodyPartExamined": "BRAIN",
  "CoilCombinationMethod": "Sum of Squares",
  "ConsistencyInfo": "N4_VE11C_LATEST_20160120",
  "ConversionSoftware": "dcm2niix",
  "ConversionSoftwareVersion": "v1.0.20211006",
  "DerivedVendorReportedEchoSpacing": 0.000560011,
  "DeviceSerialNumber": "167006",
  "DwellTime": 2.1e-06,
  "EchoTime": 0.037,
  "EchoTime1": 0.037,
  "EchoTime2": 0.001,
  "EchoTrainLength": 104,
  "EffectiveEchoSpacing": 0.000560011,
  "FlipAngle": 52,
  "HeudiconvVersion": "0.11.3.post9+gc939bf8",
  "ImageComments": "Unaliased MB4/PE3/LB",
  "ImageOrientationPatientDICOM": [0.999913, -0.0054613, -0.0120096, 0.000523506, 0.926005, -0.37751],
  "ImageOrientationText": "Tra>Cor(-22.2)>Sag(-0.8)",
  "ImageType": [
    "ORIGINAL",
    "PRIMARY",
    "P",
    "MB",
    "ND",
    "MOSAIC",
    "PHASE"
],
  "ImagingFrequency": 123.259,
  "InPlanePhaseEncodingDirectionDICOM": "COL",
  "InstitutionAddress": "Chemin Queen-Mary 4565,Montreal,District,CA,H3W 1W5",
  "InstitutionName": "IUGM",
  "InstitutionalDepartmentName": "Department",
  "MRAcquisitionType": "2D",
  "MagneticFieldStrength": 3,
  "Manufacturer": "Siemens",
  "ManufacturersModelName": "Prisma_fit",
  "MatrixCoilMode": "SENSE",
  "Modality": "MR",
  "MultibandAccelerationFactor": 4,
  "PartialFourier": 1,
  "PatientPosition": "HFS",
  "PercentPhaseFOV": 100,
  "PercentSampling": 100,
  "PhaseEncodingDirection": "j",
  "PhaseEncodingSteps": 104,
  "PhaseResolution": 1,
  "PixelBandwidth": 2290,
  "ProcedureStepDescription": "games^mario",
  "ProtocolName": "func_task-mario_run-04",
  "PulseSequenceDetails": "%CustomerSeq%\\cmrr_mbep2d_bold",
  "ReceiveCoilActiveElements": "HC1-7;NC1,2",
  "ReceiveCoilName": "HeadNeck_64",
  "ReconMatrixPE": 104,
  "RepetitionTime": 1.49,
  "SAR": 0.0813601,
  "ScanOptions": "FS",
  "ScanningSequence": "EP",
  "SequenceName": "epfid2d1_104",
  "SequenceVariant": "SK\\SS",
  "SeriesDescription": "func_task-mario_run-04",
  "SeriesNumber": 20,
  "ShimSetting": [610, -7254, -8815, 423, 25, -342, 6, 25],
  "SliceThickness": 2,
  "SliceTiming": [0, 0.7825, 0.0975, 0.88, 0.195, 0.98, 0.2925, 1.0775, 0.39, 1.175, 0.49, 1.2725, 0.5875, 1.37, 0.685, 0, 0.7825, 0.0975, 0.88, 0.195, 0.98, 0.2925, 1.0775, 0.39, 1.175, 0.49, 1.2725, 0.5875, 1.37, 0.685, 0, 0.7825, 0.0975, 0.88, 0.195, 0.98, 0.2925, 1.0775, 0.39, 1.175, 0.49, 1.2725, 0.5875, 1.37, 0.685, 0, 0.7825, 0.0975, 0.88, 0.195, 0.98, 0.2925, 1.0775, 0.39, 1.175, 0.49, 1.2725, 0.5875, 1.37, 0.685],
  "SoftwareVersions": "syngo MR E11",
  "SpacingBetweenSlices": 2,
  "StationName": "MRC35049",
  "TaskName": "mario",
  "TotalReadoutTime": 0.0576811,
  "TxRefAmp": 319.894,
  "WipMemBlock": "e41e712b-b6fa-42f9-ac50-127302d2b154||Sequence: R017 ve11c/master r/75a17815+; Jun 28 2022 16:32:11 by eja",
  "dcmmeta_affine": [
    [-1.9998259544372559, 0.0010470118140801787, -0.02636524848639965, 104.5242691040039],
    [0.010922601446509361, 1.852010726928711, -0.7549417018890381, -67.04974365234375],
    [-0.024019144475460052, 0.7550199627876282, 1.8518552780151367, -59.586753845214844],
    [0.0, 0.0, 0.0, 1.0]
],
  "dcmmeta_reorient_transform": [
    [0.0, -1.0, 0.0, 103.0],
    [1.0, 0.0, 0.0, 0.0],
    [0.0, 0.0, 1.0, 0.0],
    [0.0, 0.0, 0.0, 1.0]
],
  "dcmmeta_shape": [104, 104, 60, 491],
  "dcmmeta_slice_dim": 2,
  "dcmmeta_version": 0.6,
  "global": {
    "const": {
      "AcquisitionMatrix": [104, 0, 0, 104],
      "AngioFlag": "N",
      "BitsAllocated": 16,
      "BitsStored": 16,
      "BodyPartExamined": "BRAIN",
      "Columns": 832,
      "EchoNumbers": 1,
      "EchoTime": 37.0,
      "EchoTrainLength": 104,
      "FlipAngle": 52.0,
      "HighBit": 15,
      "ImageOrientationPatient": [0.999912968403, -0.005461300535, -0.0120095718474, 0.00052350589364, 0.92600536623619, -0.3775099835016],
      "ImagePositionPatient": [-832.94986624695, -793.86344208231, 301.75053906281],
      "ImageType": [
        "ORIGINAL",
        "PRIMARY",
        "P",
        "MB",
        "ND",
        "MOSAIC"
],
      "ImagedNucleus": "1H",
      "ImagingFrequency": 123.258778,
      "InPlanePhaseEncodingDirection": "COL",
      "LargestImagePixelValue": 4095,
      "MRAcquisitionType": "2D",
      "MagneticFieldStrength": 3.0,
      "Manufacturer": "SIEMENS",
      "ManufacturerModelName": "Prisma_fit",
      "Modality": "MR",
      "NumberOfAverages": 1.0,
      "NumberOfPhaseEncodingSteps": 104,
      "PercentPhaseFieldOfView": 100.0,
      "PercentSampling": 100.0,
      "PerformedProcedureStepStartTime": "173321.449000",
      "PhotometricInterpretation": "MONOCHROME2",
      "PixelBandwidth": 2290.0,
      "PixelRepresentation": 0,
      "PixelSpacing": [2.0, 2.0],
      "ProtocolName": "func_task-mario_run-04",
      "RepetitionTime": 1490.0,
      "RescaleIntercept": -4096.0,
      "RescaleSlope": 2.0,
      "RescaleType": "US",
      "Rows": 832,
      "SAR": 0.08136014625409,
      "SamplesPerPixel": 1,
      "ScanOptions": "FS",
      "ScanningSequence": "EP",
      "SequenceName": "epfid2d1_104",
      "SequenceVariant": [
        "SK",
        "SS"
],
      "SeriesDescription": "func_task-mario_run-04",
      "SeriesNumber": 20,
      "SeriesTime": "183423.583000",
      "SliceLocation": -31.24160310886,
      "SliceThickness": 2.0,
      "SmallestImagePixelValue": 0,
      "SoftwareVersions": "syngo MR E11",
      "SpacingBetweenSlices": 2.0000000552102,
      "SpecificCharacterSet": "ISO_IR 100",
      "StudyID": "1",
      "StudyTime": "173321.368000",
      "TransmitCoilName": "Body",
      "VariableFlipAngleFlag": "N",
      "WindowCenterWidthExplanation": "Algo1",
      "dBdt": 0.0},
    "slices": {}
  },
  "time": {
    "samples": {
      "AcquisitionNumber": [1, 2, 3, 4, 5, 6, 7, 8, 9, 10, 11, 12, 13, 14, 15, 16, 17, 18, 19, 20, 21, 22, 23, 24, 25, 26, 27, 28, 29, 30, 31, 32, 33, 34, 35, 36, 37, 38, 39, 40, 41, 42, 43, 44, 45, 46, 47, 48, 49, 50, 51, 52, 53, 54, 55, 56, 57, 58, 59, 60, 61, 62, 63, 64, 65, 66, 67, 68, 69, 70, 71, 72, 73, 74, 75, 76, 77, 78, 79, 80, 81, 82, 83, 84, 85, 86, 87, 88, 89, 90, 91, 92, 93, 94, 95, 96, 97, 98, 99, 100, 101, 102, 103, 104, 105, 106, 107, 108, 109, 110, 111, 112, 113, 114, 115, 116, 117, 118, 119, 120, 121, 122, 123, 124, 125, 126, 127, 128, 129, 130, 131, 132, 133, 134, 135, 136, 137, 138, 139, 140, 141, 142, 143, 144, 145, 146, 147, 148, 149, 150, 151, 152, 153, 154, 155, 156, 157, 158, 159, 160, 161, 162, 163, 164, 165, 166, 167, 168, 169, 170, 171, 172, 173, 174, 175, 176, 177, 178, 179, 180, 181, 182, 183, 184, 185, 186, 187, 188, 189, 190, 191, 192, 193, 194, 195, 196, 197, 198, 199, 200, 201, 202, 203, 204, 205, 206, 207, 208, 209, 210, 211, 212, 213, 214, 215, 216, 217, 218, 219, 220, 221, 222, 223, 224, 225, 226, 227, 228, 229, 230, 231, 232, 233, 234, 235, 236, 237, 238, 239, 240, 241, 242, 243, 244, 245, 246, 247, 248, 249, 250, 251, 252, 253, 254, 255, 256, 257, 258, 259, 260, 261, 262, 263, 264, 265, 266, 267, 268, 269, 270, 271, 272, 273, 274, 275, 276, 277, 278, 279, 280, 281, 282, 283, 284, 285, 286, 287, 288, 289, 290, 291, 292, 293, 294, 295, 296, 297, 298, 299, 300, 301, 302, 303, 304, 305, 306, 307, 308, 309, 310, 311, 312, 313, 314, 315, 316, 317, 318, 319, 320, 321, 322, 323, 324, 325, 326, 327, 328, 329, 330, 331, 332, 333, 334, 335, 336, 337, 338, 339, 340, 341, 342, 343, 344, 345, 346, 347, 348, 349, 350, 351, 352, 353, 354, 355, 356, 357, 358, 359, 360, 361, 362, 363, 364, 365, 366, 367, 368, 369, 370, 371, 372, 373, 374, 375, 376, 377, 378, 379, 380, 381, 382, 383, 384, 385, 386, 387, 388, 389, 390, 391, 392, 393, 394, 395, 396, 397, 398, 399, 400, 401, 402, 403, 404, 405, 406, 407, 408, 409, 410, 411, 412, 413, 414, 415, 416, 417, 418, 419, 420, 421, 422, 423, 424, 425, 426, 427, 428, 429, 430, 431, 432, 433, 434, 435, 436, 437, 438, 439, 440, 441, 442, 443, 444, 445, 446, 447, 448, 449, 450, 451, 452, 453, 454, 455, 456, 457, 458, 459, 460, 461, 462, 463, 464, 465, 466, 467, 468, 469, 470, 471, 472, 473, 474, 475, 476, 477, 478, 479, 480, 481, 482, 483, 484, 485, 486, 487, 488, 489, 490, 491],
      "AcquisitionTime": ["183255.825000", "183257.315000", "183258.805000", "183300.295000", "183301.785000", "183303.275000", "183304.765000", "183306.255000", "183307.745000", "183309.235000", "183310.725000", "183312.215000", "183313.705000", "183315.195000", "183316.685000", "183318.175000", "183319.665000", "183321.155000", "183322.645000", "183324.135000", "183325.625000", "183327.115000", "183328.605000", "183330.095000", "183331.585000", "183333.075000", "183334.565000", "183336.055000", "183337.545000", "183339.035000", "183340.525000", "183342.015000", "183343.505000", "183344.995000", "183346.485000", "183347.975000", "183349.465000", "183350.955000", "183352.445000", "183353.935000", "183355.425000", "183356.915000", "183358.405000", "183359.895000", "183401.385000", "183402.875000", "183404.365000", "183405.855000", "183407.345000", "183408.835000", "183410.325000", "183411.815000", "183413.305000", "183414.795000", "183416.285000", "183417.775000", "183419.265000", "183420.755000", "183422.245000", "183423.735000", "183425.225000", "183426.715000", "183428.205000", "183429.695000", "183431.185000", "183432.675000", "183434.165000", "183435.655000", "183437.145000", "183438.635000", "183440.125000", "183441.615000", "183443.105000", "183444.595000", "183446.085000", "183447.575000", "183449.065000", "183450.555000", "183452.045000", "183453.535000", "183455.025000", "183456.515000", "183458.005000", "183459.495000", "183500.985000", "183502.475000", "183503.965000", "183505.455000", "183506.945000", "183508.435000", "183509.925000", "183511.415000", "183512.905000", "183514.395000", "183515.885000", "183517.375000", "183518.865000", "183520.355000", "183521.845000", "183523.335000", "183524.825000", "183526.315000", "183527.805000", "183529.295000", "183530.785000", "183532.275000", "183533.765000", "183535.255000", "183536.745000", "183538.235000", "183539.725000", "183541.215000", "183542.705000", "183544.195000", "183545.685000", "183547.175000", "183548.665000", "183550.155000", "183551.645000", "183553.135000", "183554.625000", "183556.115000", "183557.605000", "183559.095000", "183600.585000", "183602.075000", "183603.565000", "183605.055000", "183606.545000", "183608.035000", "183609.525000", "183611.015000", "183612.505000", "183613.995000", "183615.485000", "183616.975000", "183618.465000", "183619.955000", "183621.445000", "183622.935000", "183624.425000", "183625.915000", "183627.405000", "183628.895000", "183630.385000", "183631.875000", "183633.365000", "183634.855000", "183636.345000", "183637.835000", "183639.325000", "183640.815000", "183642.305000", "183643.795000", "183645.285000", "183646.775000", "183648.265000", "183649.755000", "183651.245000", "183652.735000", "183654.225000", "183655.715000", "183657.205000", "183658.695000", "183700.185000", "183701.675000", "183703.165000", "183704.655000", "183706.145000", "183707.635000", "183709.125000", "183710.615000", "183712.105000", "183713.595000", "183715.085000", "183716.575000", "183718.065000", "183719.555000", "183721.045000", "183722.535000", "183724.025000", "183725.515000", "183727.005000", "183728.495000", "183729.985000", "183731.475000", "183732.965000", "183734.455000", "183735.945000", "183737.435000", "183738.925000", "183740.415000", "183741.905000", "183743.395000", "183744.885000", "183746.375000", "183747.865000", "183749.355000", "183750.845000", "183752.335000", "183753.825000", "183755.315000", "183756.805000", "183758.295000", "183759.785000", "183801.275000", "183802.765000", "183804.255000", "183805.745000", "183807.235000", "183808.725000", "183810.215000", "183811.705000", "183813.195000", "183814.685000", "183816.175000", "183817.665000", "183819.155000", "183820.645000", "183822.135000", "183823.625000", "183825.115000", "183826.605000", "183828.095000", "183829.585000", "183831.075000", "183832.565000", "183834.055000", "183835.545000", "183837.035000", "183838.525000", "183840.015000", "183841.505000", "183842.995000", "183844.485000", "183845.975000", "183847.465000", "183848.955000", "183850.445000", "183851.935000", "183853.425000", "183854.915000", "183856.405000", "183857.895000", "183859.385000", "183900.875000", "183902.365000", "183903.855000", "183905.345000", "183906.835000", "183908.325000", "183909.815000", "183911.305000", "183912.795000", "183914.285000", "183915.775000", "183917.265000", "183918.755000", "183920.245000", "183921.735000", "183923.225000", "183924.715000", "183926.205000", "183927.695000", "183929.185000", "183930.675000", "183932.165000", "183933.655000", "183935.145000", "183936.635000", "183938.125000", "183939.615000", "183941.105000", "183942.595000", "183944.085000", "183945.575000", "183947.065000", "183948.555000", "183950.045000", "183951.535000", "183953.025000", "183954.515000", "183956.005000", "183957.495000", "183958.985000", "184000.475000", "184001.965000", "184003.455000", "184004.945000", "184006.435000", "184007.925000", "184009.415000", "184010.905000", "184012.395000", "184013.885000", "184015.375000", "184016.865000", "184018.355000", "184019.845000", "184021.335000", "184022.825000", "184024.315000", "184025.805000", "184027.295000", "184028.785000", "184030.275000", "184031.765000", "184033.255000", "184034.745000", "184036.235000", "184037.725000", "184039.215000", "184040.705000", "184042.195000", "184043.685000", "184045.175000", "184046.665000", "184048.155000", "184049.645000", "184051.135000", "184052.625000", "184054.115000", "184055.605000", "184057.095000", "184058.585000", "184100.075000", "184101.565000", "184103.055000", "184104.545000", "184106.035000", "184107.525000", "184109.015000", "184110.505000", "184111.995000", "184113.485000", "184114.975000", "184116.465000", "184117.955000", "184119.445000", "184120.935000", "184122.425000", "184123.915000", "184125.405000", "184126.895000", "184128.385000", "184129.875000", "184131.365000", "184132.855000", "184134.345000", "184135.835000", "184137.325000", "184138.815000", "184140.305000", "184141.795000", "184143.285000", "184144.775000", "184146.265000", "184147.755000", "184149.245000", "184150.735000", "184152.225000", "184153.715000", "184155.205000", "184156.695000", "184158.185000", "184159.675000", "184201.165000", "184202.655000", "184204.145000", "184205.635000", "184207.125000", "184208.615000", "184210.105000", "184211.595000", "184213.085000", "184214.575000", "184216.065000", "184217.555000", "184219.045000", "184220.535000", "184222.025000", "184223.515000", "184225.005000", "184226.495000", "184227.985000", "184229.475000", "184230.965000", "184232.455000", "184233.945000", "184235.435000", "184236.925000", "184238.415000", "184239.905000", "184241.395000", "184242.885000", "184244.375000", "184245.865000", "184247.355000", "184248.845000", "184250.335000", "184251.825000", "184253.315000", "184254.805000", "184256.295000", "184257.785000", "184259.275000", "184300.765000", "184302.255000", "184303.745000", "184305.235000", "184306.725000", "184308.215000", "184309.705000", "184311.195000", "184312.685000", "184314.175000", "184315.665000", "184317.155000", "184318.645000", "184320.135000", "184321.625000", "184323.115000", "184324.605000", "184326.095000", "184327.585000", "184329.075000", "184330.565000", "184332.055000", "184333.545000", "184335.035000", "184336.525000", "184338.015000", "184339.505000", "184340.995000", "184342.485000", "184343.975000", "184345.465000", "184346.955000", "184348.445000", "184349.935000", "184351.425000", "184352.915000", "184354.405000", "184355.895000", "184357.385000", "184358.875000", "184400.365000", "184401.855000", "184403.345000", "184404.835000", "184406.325000", "184407.815000", "184409.305000", "184410.795000", "184412.285000", "184413.775000", "184415.265000", "184416.755000", "184418.245000", "184419.735000", "184421.225000", "184422.715000", "184424.205000", "184425.695000", "184427.185000", "184428.675000", "184430.165000", "184431.655000", "184433.145000", "184434.635000", "184436.125000", "184437.615000", "184439.105000", "184440.595000", "184442.085000", "184443.575000", "184445.065000", "184446.555000", "184448.045000", "184449.535000", "184451.025000", "184452.515000", "184454.005000", "184455.495000", "184456.985000", "184458.475000", "184459.965000", "184501.455000", "184502.945000", "184504.435000", "184505.925000"],
      "ContentTime": ["183423.585000", "183423.588000", "183423.590000", "183423.593000", "183423.595000", "183423.598000", "183423.600000", "183423.603000", "183423.606000", "183423.608000", "183423.611000", "183423.613000", "183423.616000", "183423.618000", "183423.621000", "183423.623000", "183423.634000", "183423.637000", "183423.639000", "183423.642000", "183423.644000", "183423.647000", "183423.649000", "183423.652000", "183423.654000", "183423.657000", "183423.659000", "183423.662000", "183423.664000", "183423.667000", "183423.669000", "183423.672000", "183423.674000", "183423.677000", "183423.679000", "183423.682000", "183423.688000", "183423.691000", "183423.693000", "183423.696000", "183443.445000", "183443.448000", "183443.450000", "183443.453000", "183443.455000", "183443.458000", "183443.460000", "183443.463000", "183443.466000", "183443.468000", "183443.471000", "183443.473000", "183443.476000", "183443.478000", "183443.481000", "183443.483000", "183443.486000", "183443.488000", "183443.491000", "183443.493000", "183503.437000", "183503.439000", "183503.442000", "183503.445000", "183503.447000", "183503.450000", "183503.452000", "183503.455000", "183503.457000", "183503.460000", "183503.462000", "183503.465000", "183503.467000", "183503.470000", "183503.472000", "183503.475000", "183503.477000", "183503.480000", "183503.482000", "183503.485000", "183543.480000", "183543.483000", "183543.486000", "183543.488000", "183543.491000", "183543.493000", "183543.496000", "183543.498000", "183543.501000", "183543.503000", "183543.506000", "183543.508000", "183543.511000", "183543.513000", "183543.516000", "183543.518000", "183543.521000", "183543.524000", "183543.526000", "183543.529000", "183543.531000", "183543.534000", "183543.536000", "183543.539000", "183543.541000", "183543.548000", "183543.551000", "183543.553000", "183543.556000", "183543.558000", "183543.561000", "183623.465000", "183623.467000", "183623.470000", "183623.473000", "183623.476000", "183623.478000", "183623.481000", "183623.483000", "183623.491000", "183623.494000", "183623.496000", "183623.499000", "183623.501000", "183623.504000", "183623.506000", "183623.509000", "183623.511000", "183623.514000", "183623.516000", "183623.519000", "183623.521000", "183623.524000", "183623.527000", "183623.529000", "183623.532000", "183623.534000", "183623.537000", "183703.472000", "183703.475000", "183703.477000", "183703.480000", "183703.482000", "183703.485000", "183703.487000", "183703.490000", "183703.492000", "183703.495000", "183703.497000", "183703.500000", "183703.502000", "183703.505000", "183703.507000", "183703.510000", "183703.512000", "183703.515000", "183703.518000", "183703.520000", "183703.523000", "183703.525000", "183703.528000", "183703.530000", "183703.533000", "183703.535000", "183703.538000", "183743.480000", "183743.482000", "183743.485000", "183743.488000", "183743.490000", "183743.493000", "183743.496000", "183743.498000", "183743.501000", "183743.503000", "183743.506000", "183743.508000", "183743.511000", "183743.513000", "183743.516000", "183743.518000", "183743.521000", "183743.523000", "183743.526000", "183743.528000", "183743.531000", "183743.533000", "183743.536000", "183743.539000", "183743.541000", "183743.544000", "183743.546000", "183823.466000", "183823.468000", "183823.471000", "183823.473000", "183823.476000", "183823.478000", "183823.481000", "183823.484000", "183823.486000", "183823.489000", "183823.491000", "183823.494000", "183823.496000", "183823.499000", "183823.501000", "183823.504000", "183823.507000", "183823.509000", "183823.512000", "183823.514000", "183823.517000", "183823.519000", "183823.522000", "183823.524000", "183823.527000", "183823.529000", "183823.532000", "183903.474000", "183903.477000", "183903.479000", "183903.482000", "183903.484000", "183903.487000", "183903.490000", "183903.492000", "183903.495000", "183903.497000", "183903.500000", "183903.502000", "183903.505000", "183903.507000", "183903.510000", "183903.512000", "183903.515000", "183903.518000", "183903.520000", "183903.523000", "183903.525000", "183903.528000", "183903.530000", "183903.533000", "183903.536000", "183903.538000", "183903.541000", "183943.475000", "183943.478000", "183943.480000", "183943.483000", "183943.486000", "183943.488000", "183943.491000", "183943.493000", "183943.496000", "183943.498000", "183943.501000", "183943.503000", "183943.506000", "183943.508000", "183943.511000", "183943.513000", "183943.516000", "183943.518000", "183943.521000", "183943.523000", "183943.526000", "183943.529000", "183943.531000", "183943.534000", "183943.536000", "183943.539000", "183943.541000", "184023.889000", "184023.892000", "184023.894000", "184023.897000", "184023.899000", "184023.902000", "184023.904000", "184023.907000", "184023.909000", "184023.912000", "184023.914000", "184023.917000", "184023.919000", "184023.922000", "184023.924000", "184023.927000", "184023.930000", "184023.932000", "184023.935000", "184023.937000", "184023.940000", "184023.942000", "184023.945000", "184023.947000", "184023.950000", "184023.952000", "184103.492000", "184103.495000", "184103.497000", "184103.500000", "184103.502000", "184103.505000", "184103.507000", "184103.510000", "184103.512000", "184103.515000", "184103.517000", "184103.520000", "184103.522000", "184103.525000", "184103.539000", "184103.541000", "184103.544000", "184103.546000", "184103.549000", "184103.551000", "184103.554000", "184103.557000", "184103.559000", "184103.562000", "184103.564000", "184103.567000", "184103.569000", "184123.414000", "184123.416000", "184123.419000", "184123.421000", "184123.424000", "184123.427000", "184123.429000", "184123.432000", "184123.434000", "184123.437000", "184123.446000", "184123.448000", "184123.451000", "184123.453000", "184203.470000", "184203.473000", "184203.476000", "184203.478000", "184203.481000", "184203.483000", "184203.486000", "184203.488000", "184203.491000", "184203.493000", "184203.496000", "184203.498000", "184203.501000", "184203.503000", "184203.506000", "184203.508000", "184203.511000", "184203.513000", "184203.516000", "184203.519000", "184203.521000", "184203.524000", "184203.526000", "184203.529000", "184203.531000", "184203.534000", "184243.474000", "184243.477000", "184243.479000", "184243.482000", "184243.484000", "184243.487000", "184243.489000", "184243.492000", "184243.494000", "184243.497000", "184243.499000", "184243.502000", "184243.508000", "184243.511000", "184243.514000", "184243.516000", "184243.520000", "184243.522000", "184243.525000", "184243.527000", "184243.530000", "184243.533000", "184243.535000", "184243.538000", "184243.540000", "184243.543000", "184243.546000", "184323.493000", "184323.496000", "184323.499000", "184323.501000", "184323.504000", "184323.506000", "184323.509000", "184323.511000", "184323.514000", "184323.518000", "184323.521000", "184323.523000", "184323.526000", "184323.529000", "184323.531000", "184323.534000", "184323.536000", "184323.539000", "184323.542000", "184323.544000", "184323.547000", "184323.549000", "184323.552000", "184323.554000", "184323.557000", "184323.560000", "184323.562000", "184403.479000", "184403.482000", "184403.484000", "184403.487000", "184403.489000", "184403.492000", "184403.494000", "184403.497000", "184403.499000", "184403.502000", "184403.504000", "184403.507000", "184403.510000", "184403.512000", "184403.515000", "184403.517000", "184403.520000", "184403.522000", "184403.525000", "184403.527000", "184403.530000", "184403.532000", "184403.535000", "184403.537000", "184403.540000", "184403.542000", "184403.545000", "184443.464000", "184443.467000", "184443.470000", "184443.472000", "184443.475000", "184443.477000", "184443.480000", "184443.483000", "184443.485000", "184443.488000", "184443.491000", "184443.493000", "184443.496000", "184443.498000", "184443.501000", "184443.503000", "184443.510000", "184443.512000", "184443.515000", "184443.517000", "184443.520000", "184443.522000", "184443.525000", "184443.527000", "184443.530000", "184443.533000", "184443.535000", "184508.716000", "184508.719000", "184508.722000", "184508.725000", "184508.727000", "184508.730000", "184508.732000", "184508.735000", "184508.737000", "184508.740000", "184508.742000", "184508.745000", "184508.747000", "184508.750000", "184508.753000", "184508.755000", "184508.758000"],
