{
  "AcquisitionMatrixPE": 104,
  "AcquisitionNumber": 1,
  "AcquisitionTime": "18:06:52.830000",
  "BandwidthPerPixelPhaseEncode": 17.17,
  "BaseResolution": 104,
  "BodyPartExamined": "BRAIN",
  "CoilCombinationMethod": "Sum of Squares",
  "ConsistencyInfo": "N4_VE11C_LATEST_20160120",
  "ConversionSoftware": "dcm2niix",
  "ConversionSoftwareVersion": "v1.0.20211006",
  "DerivedVendorReportedEchoSpacing": 0.000560011,
  "DeviceSerialNumber": "167006",
  "DwellTime": 2.1e-06,
  "EchoTime": 0.037,
  "EchoTime1": 0.037,
  "EchoTime2": 0.001,
  "EchoTrainLength": 104,
  "EffectiveEchoSpacing": 0.000560011,
  "FlipAngle": 52,
  "HeudiconvVersion": "0.11.3.post9+gc939bf8",
  "ImageComments": "Unaliased MB4/PE3/LB",
  "ImageOrientationPatientDICOM": [0.999913, -0.0054613, -0.0120096, 0.000523506, 0.926005, -0.37751],
  "ImageOrientationText": "Tra>Cor(-22.2)>Sag(-0.8)",
  "ImageType": [
    "ORIGINAL",
    "PRIMARY",
    "P",
    "MB",
    "ND",
    "MOSAIC",
    "PHASE"
],
  "ImagingFrequency": 123.259,
  "InPlanePhaseEncodingDirectionDICOM": "COL",
  "InstitutionAddress": "Chemin Queen-Mary 4565,Montreal,District,CA,H3W 1W5",
  "InstitutionName": "IUGM",
  "InstitutionalDepartmentName": "Department",
  "MRAcquisitionType": "2D",
  "MagneticFieldStrength": 3,
  "Manufacturer": "Siemens",
  "ManufacturersModelName": "Prisma_fit",
  "MatrixCoilMode": "SENSE",
  "Modality": "MR",
  "MultibandAccelerationFactor": 4,
  "PartialFourier": 1,
  "PatientPosition": "HFS",
  "PercentPhaseFOV": 100,
  "PercentSampling": 100,
  "PhaseEncodingDirection": "j",
  "PhaseEncodingSteps": 104,
  "PhaseResolution": 1,
  "PixelBandwidth": 2290,
  "ProcedureStepDescription": "games^mario",
  "ProtocolName": "func_task-mario_run-02",
  "PulseSequenceDetails": "%CustomerSeq%\\cmrr_mbep2d_bold",
  "ReceiveCoilActiveElements": "HC1-7;NC1,2",
  "ReceiveCoilName": "HeadNeck_64",
  "ReconMatrixPE": 104,
  "RepetitionTime": 1.49,
  "SAR": 0.0813601,
  "ScanOptions": "FS",
  "ScanningSequence": "EP",
  "SequenceName": "epfid2d1_104",
  "SequenceVariant": "SK\\SS",
  "SeriesDescription": "func_task-mario_run-02",
  "SeriesNumber": 14,
  "ShimSetting": [610, -7254, -8815, 423, 24, -342, 4, 24],
  "SliceThickness": 2,
  "SliceTiming": [0, 0.785, 0.0975, 0.8825, 0.195, 0.98, 0.295, 1.0775, 0.3925, 1.175, 0.49, 1.275, 0.5875, 1.3725, 0.685, 0, 0.785, 0.0975, 0.8825, 0.195, 0.98, 0.295, 1.0775, 0.3925, 1.175, 0.49, 1.275, 0.5875, 1.3725, 0.685, 0, 0.785, 0.0975, 0.8825, 0.195, 0.98, 0.295, 1.0775, 0.3925, 1.175, 0.49, 1.275, 0.5875, 1.3725, 0.685, 0, 0.785, 0.0975, 0.8825, 0.195, 0.98, 0.295, 1.0775, 0.3925, 1.175, 0.49, 1.275, 0.5875, 1.3725, 0.685],
  "SoftwareVersions": "syngo MR E11",
  "SpacingBetweenSlices": 2,
  "StationName": "MRC35049",
  "TaskName": "mario",
  "TotalReadoutTime": 0.0576811,
  "TxRefAmp": 319.894,
  "WipMemBlock": "40a0c73e-8026-4b29-a6ba-babb3520d5e0||Sequence: R017 ve11c/master r/75a17815+; Jun 28 2022 16:32:11 by eja",
  "dcmmeta_affine": [
    [-1.9998259544372559, 0.0010470118140801787, -0.0263652466237545, 104.5242691040039],
    [0.010922601446509361, 1.852010726928711, -0.7549416422843933, -67.04974365234375],
    [-0.024019144475460052, 0.7550199627876282, 1.8518551588058472, -59.68675231933594],
    [0.0, 0.0, 0.0, 1.0]
],
  "dcmmeta_reorient_transform": [
    [0.0, -1.0, 0.0, 103.0],
    [1.0, 0.0, 0.0, 0.0],
    [0.0, 0.0, 1.0, 0.0],
    [0.0, 0.0, 0.0, 1.0]
],
  "dcmmeta_shape": [104, 104, 60, 462],
  "dcmmeta_slice_dim": 2,
  "dcmmeta_version": 0.6,
  "global": {
    "const": {
      "AcquisitionMatrix": [104, 0, 0, 104],
      "AngioFlag": "N",
      "BitsAllocated": 16,
      "BitsStored": 16,
      "BodyPartExamined": "BRAIN",
      "Columns": 832,
      "EchoNumbers": 1,
      "EchoTime": 37.0,
      "EchoTrainLength": 104,
      "FlipAngle": 52.0,
      "HighBit": 15,
      "ImageOrientationPatient": [0.999912968403, -0.005461300535, -0.0120095718474, 0.00052350589364, 0.92600536623619, -0.3775099835016],
      "ImagePositionPatient": [-832.94986624695, -793.86344208231, 301.65054058869],
      "ImageType": [
        "ORIGINAL",
        "PRIMARY",
        "P",
        "MB",
        "ND",
        "MOSAIC"
],
      "ImagedNucleus": "1H",
      "ImagingFrequency": 123.258765,
      "InPlanePhaseEncodingDirection": "COL",
      "LargestImagePixelValue": 4095,
      "MRAcquisitionType": "2D",
      "MagneticFieldStrength": 3.0,
      "Manufacturer": "SIEMENS",
      "ManufacturerModelName": "Prisma_fit",
      "Modality": "MR",
      "NumberOfAverages": 1.0,
      "NumberOfPhaseEncodingSteps": 104,
      "PercentPhaseFieldOfView": 100.0,
      "PercentSampling": 100.0,
      "PerformedProcedureStepStartTime": "173321.449000",
      "PhotometricInterpretation": "MONOCHROME2",
      "PixelBandwidth": 2290.0,
      "PixelRepresentation": 0,
      "PixelSpacing": [2.0, 2.0],
      "ProtocolName": "func_task-mario_run-02",
      "RepetitionTime": 1490.0,
      "RescaleIntercept": -4096.0,
      "RescaleSlope": 2.0,
      "RescaleType": "US",
      "Rows": 832,
      "SAR": 0.08136014625409,
      "SamplesPerPixel": 1,
      "ScanOptions": "FS",
      "ScanningSequence": "EP",
      "SequenceName": "epfid2d1_104",
      "SequenceVariant": [
        "SK",
        "SS"
],
      "SeriesDescription": "func_task-mario_run-02",
      "SeriesNumber": 14,
      "SeriesTime": "180817.569000",
      "SliceLocation": -31.33419445936,
      "SliceThickness": 2.0,
      "SmallestImagePixelValue": 0,
      "SoftwareVersions": "syngo MR E11",
      "SpacingBetweenSlices": 1.9999999354769,
      "SpecificCharacterSet": "ISO_IR 100",
      "StudyID": "1",
      "StudyTime": "173321.368000",
      "TransmitCoilName": "Body",
      "VariableFlipAngleFlag": "N",
      "WindowCenterWidthExplanation": "Algo1",
      "dBdt": 0.0},
    "slices": {}
  },
  "time": {
    "samples": {
      "AcquisitionNumber": [1, 2, 3, 4, 5, 6, 7, 8, 9, 10, 11, 12, 13, 14, 15, 16, 17, 18, 19, 20, 21, 22, 23, 24, 25, 26, 27, 28, 29, 30, 31, 32, 33, 34, 35, 36, 37, 38, 39, 40, 41, 42, 43, 44, 45, 46, 47, 48, 49, 50, 51, 52, 53, 54, 55, 56, 57, 58, 59, 60, 61, 62, 63, 64, 65, 66, 67, 68, 69, 70, 71, 72, 73, 74, 75, 76, 77, 78, 79, 80, 81, 82, 83, 84, 85, 86, 87, 88, 89, 90, 91, 92, 93, 94, 95, 96, 97, 98, 99, 100, 101, 102, 103, 104, 105, 106, 107, 108, 109, 110, 111, 112, 113, 114, 115, 116, 117, 118, 119, 120, 121, 122, 123, 124, 125, 126, 127, 128, 129, 130, 131, 132, 133, 134, 135, 136, 137, 138, 139, 140, 141, 142, 143, 144, 145, 146, 147, 148, 149, 150, 151, 152, 153, 154, 155, 156, 157, 158, 159, 160, 161, 162, 163, 164, 165, 166, 167, 168, 169, 170, 171, 172, 173, 174, 175, 176, 177, 178, 179, 180, 181, 182, 183, 184, 185, 186, 187, 188, 189, 190, 191, 192, 193, 194, 195, 196, 197, 198, 199, 200, 201, 202, 203, 204, 205, 206, 207, 208, 209, 210, 211, 212, 213, 214, 215, 216, 217, 218, 219, 220, 221, 222, 223, 224, 225, 226, 227, 228, 229, 230, 231, 232, 233, 234, 235, 236, 237, 238, 239, 240, 241, 242, 243, 244, 245, 246, 247, 248, 249, 250, 251, 252, 253, 254, 255, 256, 257, 258, 259, 260, 261, 262, 263, 264, 265, 266, 267, 268, 269, 270, 271, 272, 273, 274, 275, 276, 277, 278, 279, 280, 281, 282, 283, 284, 285, 286, 287, 288, 289, 290, 291, 292, 293, 294, 295, 296, 297, 298, 299, 300, 301, 302, 303, 304, 305, 306, 307, 308, 309, 310, 311, 312, 313, 314, 315, 316, 317, 318, 319, 320, 321, 322, 323, 324, 325, 326, 327, 328, 329, 330, 331, 332, 333, 334, 335, 336, 337, 338, 339, 340, 341, 342, 343, 344, 345, 346, 347, 348, 349, 350, 351, 352, 353, 354, 355, 356, 357, 358, 359, 360, 361, 362, 363, 364, 365, 366, 367, 368, 369, 370, 371, 372, 373, 374, 375, 376, 377, 378, 379, 380, 381, 382, 383, 384, 385, 386, 387, 388, 389, 390, 391, 392, 393, 394, 395, 396, 397, 398, 399, 400, 401, 402, 403, 404, 405, 406, 407, 408, 409, 410, 411, 412, 413, 414, 415, 416, 417, 418, 419, 420, 421, 422, 423, 424, 425, 426, 427, 428, 429, 430, 431, 432, 433, 434, 435, 436, 437, 438, 439, 440, 441, 442, 443, 444, 445, 446, 447, 448, 449, 450, 451, 452, 453, 454, 455, 456, 457, 458, 459, 460, 461, 462],
      "AcquisitionTime": ["180652.830000", "180654.320000", "180655.810000", "180657.300000", "180658.790000", "180700.280000", "180701.770000", "180703.260000", "180704.750000", "180706.240000", "180707.730000", "180709.220000", "180710.710000", "180712.200000", "180713.690000", "180715.180000", "180716.670000", "180718.160000", "180719.650000", "180721.140000", "180722.630000", "180724.120000", "180725.610000", "180727.100000", "180728.590000", "180730.080000", "180731.570000", "180733.060000", "180734.550000", "180736.040000", "180737.530000", "180739.020000", "180740.510000", "180742.000000", "180743.490000", "180744.980000", "180746.470000", "180747.960000", "180749.450000", "180750.940000", "180752.430000", "180753.920000", "180755.410000", "180756.900000", "180758.390000", "180759.880000", "180801.370000", "180802.860000", "180804.350000", "180805.840000", "180807.330000", "180808.820000", "180810.310000", "180811.800000", "180813.290000", "180814.780000", "180816.270000", "180817.760000", "180819.250000", "180820.740000", "180822.230000", "180823.720000", "180825.210000", "180826.700000", "180828.190000", "180829.680000", "180831.170000", "180832.660000", "180834.150000", "180835.640000", "180837.130000", "180838.620000", "180840.110000", "180841.600000", "180843.090000", "180844.580000", "180846.070000", "180847.560000", "180849.050000", "180850.540000", "180852.030000", "180853.520000", "180855.010000", "180856.500000", "180857.990000", "180859.480000", "180900.970000", "180902.460000", "180903.950000", "180905.440000", "180906.930000", "180908.420000", "180909.910000", "180911.400000", "180912.890000", "180914.380000", "180915.870000", "180917.360000", "180918.850000", "180920.340000", "180921.830000", "180923.320000", "180924.810000", "180926.300000", "180927.790000", "180929.280000", "180930.770000", "180932.260000", "180933.750000", "180935.240000", "180936.730000", "180938.220000", "180939.710000", "180941.200000", "180942.690000", "180944.180000", "180945.670000", "180947.160000", "180948.650000", "180950.140000", "180951.630000", "180953.120000", "180954.610000", "180956.100000", "180957.590000", "180959.080000", "181000.570000", "181002.060000", "181003.550000", "181005.040000", "181006.530000", "181008.020000", "181009.510000", "181011.000000", "181012.490000", "181013.980000", "181015.470000", "181016.960000", "181018.450000", "181019.940000", "181021.430000", "181022.920000", "181024.410000", "181025.900000", "181027.390000", "181028.880000", "181030.370000", "181031.860000", "181033.350000", "181034.840000", "181036.330000", "181037.820000", "181039.310000", "181040.800000", "181042.290000", "181043.780000", "181045.270000", "181046.760000", "181048.250000", "181049.740000", "181051.230000", "181052.720000", "181054.210000", "181055.700000", "181057.190000", "181058.680000", "181100.170000", "181101.660000", "181103.150000", "181104.640000", "181106.130000", "181107.620000", "181109.110000", "181110.600000", "181112.090000", "181113.580000", "181115.070000", "181116.560000", "181118.050000", "181119.540000", "181121.030000", "181122.520000", "181124.010000", "181125.500000", "181126.990000", "181128.480000", "181129.970000", "181131.460000", "181132.950000", "181134.440000", "181135.930000", "181137.420000", "181138.910000", "181140.400000", "181141.890000", "181143.380000", "181144.870000", "181146.360000", "181147.850000", "181149.340000", "181150.830000", "181152.320000", "181153.810000", "181155.300000", "181156.790000", "181158.280000", "181159.770000", "181201.260000", "181202.750000", "181204.240000", "181205.730000", "181207.220000", "181208.710000", "181210.200000", "181211.690000", "181213.180000", "181214.670000", "181216.160000", "181217.650000", "181219.140000", "181220.630000", "181222.120000", "181223.610000", "181225.100000", "181226.590000", "181228.080000", "181229.570000", "181231.060000", "181232.550000", "181234.040000", "181235.530000", "181237.020000", "181238.510000", "181240.000000", "181241.490000", "181242.980000", "181244.470000", "181245.960000", "181247.450000", "181248.940000", "181250.430000", "181251.920000", "181253.410000", "181254.900000", "181256.390000", "181257.880000", "181259.370000", "181300.860000", "181302.350000", "181303.840000", "181305.330000", "181306.820000", "181308.310000", "181309.800000", "181311.290000", "181312.780000", "181314.270000", "181315.760000", "181317.250000", "181318.740000", "181320.230000", "181321.720000", "181323.210000", "181324.700000", "181326.190000", "181327.680000", "181329.170000", "181330.660000", "181332.150000", "181333.640000", "181335.130000", "181336.620000", "181338.110000", "181339.600000", "181341.090000", "181342.580000", "181344.070000", "181345.560000", "181347.050000", "181348.540000", "181350.030000", "181351.520000", "181353.010000", "181354.500000", "181355.990000", "181357.480000", "181358.970000", "181400.460000", "181401.950000", "181403.440000", "181404.930000", "181406.420000", "181407.910000", "181409.400000", "181410.890000", "181412.380000", "181413.870000", "181415.360000", "181416.850000", "181418.340000", "181419.830000", "181421.320000", "181422.810000", "181424.300000", "181425.790000", "181427.280000", "181428.770000", "181430.260000", "181431.750000", "181433.240000", "181434.730000", "181436.220000", "181437.710000", "181439.200000", "181440.690000", "181442.180000", "181443.670000", "181445.160000", "181446.650000", "181448.140000", "181449.630000", "181451.120000", "181452.610000", "181454.100000", "181455.590000", "181457.080000", "181458.570000", "181500.060000", "181501.550000", "181503.040000", "181504.530000", "181506.020000", "181507.510000", "181509.000000", "181510.490000", "181511.980000", "181513.470000", "181514.960000", "181516.450000", "181517.940000", "181519.430000", "181520.920000", "181522.410000", "181523.900000", "181525.390000", "181526.880000", "181528.370000", "181529.860000", "181531.350000", "181532.840000", "181534.330000", "181535.820000", "181537.310000", "181538.800000", "181540.290000", "181541.780000", "181543.270000", "181544.760000", "181546.250000", "181547.740000", "181549.230000", "181550.720000", "181552.210000", "181553.700000", "181555.190000", "181556.680000", "181558.170000", "181559.660000", "181601.150000", "181602.640000", "181604.130000", "181605.620000", "181607.110000", "181608.600000", "181610.090000", "181611.580000", "181613.070000", "181614.560000", "181616.050000", "181617.540000", "181619.030000", "181620.520000", "181622.010000", "181623.500000", "181624.990000", "181626.480000", "181627.970000", "181629.460000", "181630.950000", "181632.440000", "181633.930000", "181635.420000", "181636.910000", "181638.400000", "181639.890000", "181641.380000", "181642.870000", "181644.360000", "181645.850000", "181647.340000", "181648.830000", "181650.320000", "181651.810000", "181653.300000", "181654.790000", "181656.280000", "181657.770000", "181659.260000", "181700.750000", "181702.240000", "181703.730000", "181705.220000", "181706.710000", "181708.200000", "181709.690000", "181711.180000", "181712.670000", "181714.160000", "181715.650000", "181717.140000", "181718.630000", "181720.120000", "181721.610000", "181723.100000", "181724.590000", "181726.080000", "181727.570000", "181729.060000", "181730.550000", "181732.040000", "181733.530000", "181735.020000", "181736.510000", "181738.000000", "181739.490000", "181740.980000", "181742.470000", "181743.960000", "181745.450000", "181746.940000", "181748.430000", "181749.920000", "181751.410000", "181752.900000", "181754.390000", "181755.880000", "181757.370000", "181758.860000", "181800.350000", "181801.840000", "181803.330000", "181804.820000", "181806.310000", "181807.800000", "181809.290000", "181810.780000", "181812.270000", "181813.760000", "181815.250000", "181816.740000", "181818.230000", "181819.720000"],
      "ContentTime": ["180817.571000", "180817.574000", "180817.577000", "180817.585000", "180817.587000", "180817.590000", "180817.592000", "180817.595000", "180817.598000", "180817.600000", "180817.603000", "180817.605000", "180817.608000", "180817.610000", "180817.613000", "180817.615000", "180817.618000", "180817.620000", "180817.623000", "180817.625000", "180817.628000", "180817.630000", "180817.633000", "180817.635000", "180817.638000", "180817.640000", "180817.643000", "180817.645000", "180817.648000", "180817.650000", "180817.653000", "180817.655000", "180817.658000", "180817.660000", "180817.663000", "180817.665000", "180837.506000", "180837.509000", "180837.511000", "180837.514000", "180837.516000", "180837.519000", "180837.534000", "180837.537000", "180837.546000", "180837.549000", "180837.551000", "180837.554000", "180837.556000", "180837.559000", "180837.562000", "180837.564000", "180837.567000", "180837.569000", "180837.572000", "180837.574000", "180857.494000", "180857.497000", "180857.499000", "180857.502000", "180857.504000", "180857.507000", "180857.509000", "180857.512000", "180857.515000", "180857.517000", "180857.519000", "180857.522000", "180857.525000", "180857.527000", "180857.530000", "180857.532000", "180857.535000", "180857.537000", "180857.540000", "180857.542000", "180917.488000", "180917.490000", "180917.493000", "180917.495000", "180917.498000", "180917.500000", "180917.503000", "180917.506000", "180917.508000", "180917.511000", "180917.513000", "180917.516000", "180917.518000", "180917.520000", "180917.528000", "180917.531000", "180917.533000", "180917.536000", "180917.538000", "180917.541000", "180957.506000", "180957.509000", "180957.511000", "180957.514000", "180957.517000", "180957.519000", "180957.522000", "180957.524000", "180957.527000", "180957.529000", "180957.532000", "180957.534000", "180957.537000", "180957.539000", "180957.542000", "180957.544000", "180957.547000", "180957.549000", "180957.552000", "180957.554000", "180957.557000", "180957.559000", "180957.562000", "180957.565000", "180957.567000", "180957.570000", "180957.572000", "181037.512000", "181037.514000", "181037.517000", "181037.520000", "181037.522000", "181037.525000", "181037.527000", "181037.530000", "181037.532000", "181037.535000", "181037.538000", "181037.540000", "181037.543000", "181037.545000", "181037.548000", "181037.559000", "181037.562000", "181037.565000", "181037.567000", "181037.570000", "181037.572000", "181037.575000", "181037.577000", "181037.580000", "181037.582000", "181037.585000", "181037.587000", "181117.504000", "181117.506000", "181117.509000", "181117.512000", "181117.514000", "181117.517000", "181117.519000", "181117.521000", "181117.524000", "181117.527000", "181117.529000", "181117.531000", "181117.534000", "181117.537000", "181117.539000", "181117.542000", "181117.544000", "181117.547000", "181117.549000", "181117.552000", "181117.554000", "181117.557000", "181117.559000", "181117.562000", "181117.564000", "181117.567000", "181117.569000", "181157.529000", "181157.531000", "181157.534000", "181157.537000", "181157.539000", "181157.542000", "181157.544000", "181157.547000", "181157.549000", "181157.552000", "181157.554000", "181157.557000", "181157.560000", "181157.562000", "181157.565000", "181157.567000", "181157.570000", "181157.572000", "181157.575000", "181157.577000", "181157.580000", "181157.582000", "181157.585000", "181157.587000", "181157.590000", "181157.592000", "181157.595000", "181237.507000", "181237.510000", "181237.513000", "181237.515000", "181237.518000", "181237.520000", "181237.523000", "181237.525000", "181237.528000", "181237.530000", "181237.538000", "181237.540000", "181237.543000", "181237.545000", "181237.548000", "181237.550000", "181237.553000", "181237.555000", "181237.558000", "181237.561000", "181237.563000", "181237.566000", "181237.568000", "181237.571000", "181237.573000", "181237.576000", "181317.528000", "181317.531000", "181317.533000", "181317.536000", "181317.538000", "181317.541000", "181317.544000", "181317.546000", "181317.549000", "181317.551000", "181317.554000", "181317.556000", "181317.559000", "181317.562000", "181317.564000", "181317.567000", "181317.569000", "181317.572000", "181317.575000", "181317.577000", "181317.580000", "181317.583000", "181317.585000", "181317.588000", "181317.590000", "181317.593000", "181317.595000", "181357.513000", "181357.515000", "181357.518000", "181357.521000", "181357.523000", "181357.526000", "181357.528000", "181357.531000", "181357.533000", "181357.543000", "181357.546000", "181357.548000", "181357.551000", "181357.553000", "181357.556000", "181357.559000", "181357.561000", "181357.564000", "181357.566000", "181357.569000", "181357.572000", "181357.574000", "181357.577000", "181357.579000", "181357.582000", "181357.585000", "181357.587000", "181437.504000", "181437.506000", "181437.509000", "181437.512000", "181437.514000", "181437.517000", "181437.519000", "181437.522000", "181437.524000", "181437.527000", "181437.529000", "181437.532000", "181437.534000", "181437.537000", "181437.540000", "181437.542000", "181437.545000", "181437.547000", "181437.550000", "181437.552000", "181437.555000", "181437.557000", "181437.560000", "181437.563000", "181437.565000", "181437.568000", "181437.570000", "181517.506000", "181517.508000", "181517.511000", "181517.513000", "181517.516000", "181517.518000", "181517.521000", "181517.523000", "181517.526000", "181517.528000", "181517.531000", "181517.533000", "181517.536000", "181517.538000", "181517.541000", "181517.544000", "181517.551000", "181517.554000", "181517.556000", "181517.559000", "181517.562000", "181517.564000", "181517.581000", "181517.584000", "181517.586000", "181517.589000", "181517.591000", "181557.509000", "181557.512000", "181557.514000", "181557.517000", "181557.520000", "181557.522000", "181557.525000", "181557.527000", "181557.530000", "181557.532000", "181557.535000", "181557.537000", "181557.540000", "181557.542000", "181557.545000", "181557.547000", "181557.550000", "181557.552000", "181557.555000", "181557.558000", "181557.560000", "181557.566000", "181557.568000", "181557.571000", "181557.573000", "181557.576000", "181557.578000", "181637.905000", "181637.908000", "181637.910000", "181637.913000", "181637.915000", "181637.918000", "181637.921000", "181637.923000", "181637.926000", "181637.928000", "181637.931000", "181637.933000", "181637.936000", "181637.938000", "181637.941000", "181637.943000", "181637.946000", "181637.948000", "181637.955000", "181637.957000", "181637.960000", "181637.962000", "181637.965000", "181637.967000", "181637.970000", "181637.972000", "181637.975000", "181717.514000", "181717.517000", "181717.519000", "181717.522000", "181717.524000", "181717.527000", "181717.529000", "181717.532000", "181717.535000", "181717.537000", "181717.540000", "181717.542000", "181717.545000", "181717.547000", "181717.550000", "181717.553000", "181717.555000", "181717.558000", "181717.560000", "181717.563000", "181717.565000", "181717.568000", "181717.570000", "181717.573000", "181717.576000", "181717.578000", "181757.523000", "181757.526000", "181757.528000", "181757.531000", "181757.534000", "181757.536000", "181757.539000", "181757.541000", "181757.544000", "181757.546000", "181757.549000", "181757.551000", "181757.554000", "181757.556000", "181757.559000", "181757.561000", "181757.564000", "181757.566000", "181757.569000", "181757.572000", "181757.574000", "181757.577000", "181757.579000", "181757.582000", "181757.584000", "181757.587000", "181757.589000", "181822.422000", "181822.424000", "181822.427000", "181822.429000", "181822.432000", "181822.435000", "181822.437000", "181822.440000", "181822.442000", "181822.445000", "181822.447000", "181822.450000", "181822.461000", "181822.463000", "181822.466000", "181822.468000", "181822.471000"],
