{
  "AcquisitionMatrixPE": 104,
  "AcquisitionNumber": 1,
  "AcquisitionTime": "16:11:12.317500",
  "BandwidthPerPixelPhaseEncode": 17.17,
  "BaseResolution": 104,
  "BodyPartExamined": "BRAIN",
  "CoilCombinationMethod": "Sum of Squares",
  "ConsistencyInfo": "N4_VE11C_LATEST_20160120",
  "ConversionSoftware": "dcm2niix",
  "ConversionSoftwareVersion": "v1.0.20211006",
  "DerivedVendorReportedEchoSpacing": 0.000560011,
  "DeviceSerialNumber": "167006",
  "DwellTime": 2.1e-06,
  "EchoTime": 0.037,
  "EchoTrainLength": 104,
  "EffectiveEchoSpacing": 0.000560011,
  "FlipAngle": 52,
  "HeudiconvVersion": "0.5.3.post569+g418601f",
  "ImageComments": "Unaliased MB4/PE3/LB",
  "ImageOrientationPatientDICOM": [0.998422, 0.0250942, 0.0502328, -0.0108044, 0.963722, -0.266688],
  "ImageOrientationText": "Tra>Cor(-15.4)>Sag(3.2)",
  "ImageType": [
    "ORIGINAL",
    "PRIMARY",
    "M",
    "MB",
    "ND",
    "MOSAIC"
],
  "ImagingFrequency": 123.259,
  "InPlanePhaseEncodingDirectionDICOM": "COL",
  "InstitutionAddress": "Chemin Queen-Mary 4565,Montreal,District,CA,H3W 1W5",
  "InstitutionName": "IUGM",
  "InstitutionalDepartmentName": "Department",
  "MRAcquisitionType": "2D",
  "MagneticFieldStrength": 3,
  "Manufacturer": "Siemens",
  "ManufacturersModelName": "Prisma_fit",
  "MatrixCoilMode": "SENSE",
  "Modality": "MR",
  "MultibandAccelerationFactor": 4,
  "PartialFourier": 1,
  "PatientPosition": "HFS",
  "PercentPhaseFOV": 100,
  "PercentSampling": 100,
  "PhaseEncodingDirection": "j",
  "PhaseEncodingSteps": 104,
  "PhaseResolution": 1,
  "PixelBandwidth": 2290,
  "ProcedureStepDescription": "games^mario",
  "ProtocolName": "func_task-mario_run-03",
  "PulseSequenceDetails": "%CustomerSeq%\\cmrr_mbep2d_bold",
  "ReceiveCoilActiveElements": "HC1-7;NC1,2",
  "ReceiveCoilName": "HeadNeck_64",
  "ReconMatrixPE": 104,
  "RepetitionTime": 1.49,
  "SAR": 0.0430094,
  "ScanOptions": "FS",
  "ScanningSequence": "EP",
  "SequenceName": "epfid2d1_104",
  "SequenceVariant": "SK\\SS",
  "SeriesDescription": "func_task-mario_run-03",
  "SeriesNumber": 16,
  "ShimSetting": [639, -7211, -8779, 704, 35, -4, 32, -6],
  "SliceThickness": 2,
  "SliceTiming": [0, 0.785, 0.0975, 0.8825, 0.195, 0.98, 0.295, 1.0775, 0.3925, 1.175, 0.49, 1.275, 0.5875, 1.3725, 0.685, 0, 0.785, 0.0975, 0.8825, 0.195, 0.98, 0.295, 1.0775, 0.3925, 1.175, 0.49, 1.275, 0.5875, 1.3725, 0.685, 0, 0.785, 0.0975, 0.8825, 0.195, 0.98, 0.295, 1.0775, 0.3925, 1.175, 0.49, 1.275, 0.5875, 1.3725, 0.685, 0, 0.785, 0.0975, 0.8825, 0.195, 0.98, 0.295, 1.0775, 0.3925, 1.175, 0.49, 1.275, 0.5875, 1.3725, 0.685],
  "SoftwareVersions": "syngo MR E11",
  "SpacingBetweenSlices": 2,
  "StationName": "MRC35049",
  "TaskName": "mario",
  "TotalReadoutTime": 0.0576811,
  "TxRefAmp": 218.659,
  "WipMemBlock": "5e9111d3-1b17-4683-972d-d1042cdef205||Sequence: R016 ve11c/master r/e634e98; Dec 19 2017 11:00:25 by eja",
  "dcmmeta_affine": [
    [-1.9968444108963013, -0.02160884439945221, 0.11020556092262268, 106.73764038085938],
    [-0.05018838495016098, 1.9274449348449707, -0.5314481854438782, -70.68472290039062],
    [0.10046558082103729, 0.5333752036094666, 1.9249461889266968, -64.74240112304688],
    [0.0, 0.0, 0.0, 1.0]
],
  "dcmmeta_reorient_transform": [
    [0.0, -1.0, 0.0, 103.0],
    [1.0, 0.0, 0.0, 0.0],
    [0.0, 0.0, 1.0, 0.0],
    [0.0, 0.0, 0.0, 1.0]
],
  "dcmmeta_shape": [104, 104, 60, 448],
  "dcmmeta_slice_dim": 2,
  "dcmmeta_version": 0.6,
  "global": {
    "const": {
      "AcquisitionMatrix": [104, 0, 0, 104],
      "AngioFlag": "N",
      "BitsAllocated": 16,
      "BitsStored": 16,
      "BodyPartExamined": "BRAIN",
      "Columns": 832,
      "EchoNumbers": 1,
      "EchoTime": 37.0,
      "EchoTrainLength": 104,
      "FlipAngle": 52.0,
      "HighBit": 15,
      "ImageOrientationPatient": [0.99842222940562, 0.02509419337633, 0.05023279095873, -0.0108044219209, 0.96372246250735, -0.2666876069969],
      "ImagePositionPatient": [-823.49769677553, -847.70062661002, 147.77435164589],
      "ImageType": [
        "ORIGINAL",
        "PRIMARY",
        "M",
        "MB",
        "ND",
        "MOSAIC"
],
      "ImagedNucleus": "1H",
      "ImagingFrequency": 123.25886,
      "InPlanePhaseEncodingDirection": "COL",
      "MRAcquisitionType": "2D",
      "MagneticFieldStrength": 3.0,
      "Manufacturer": "SIEMENS",
      "ManufacturerModelName": "Prisma_fit",
      "Modality": "MR",
      "NumberOfAverages": 1.0,
      "NumberOfPhaseEncodingSteps": 104,
      "PercentPhaseFieldOfView": 100.0,
      "PercentSampling": 100.0,
      "PerformedProcedureStepStartTime": "145929.273000",
      "PhotometricInterpretation": "MONOCHROME2",
      "PixelBandwidth": 2290.0,
      "PixelRepresentation": 0,
      "PixelSpacing": [2.0, 2.0],
      "ProtocolName": "func_task-mario_run-03",
      "RepetitionTime": 1490.0,
      "Rows": 832,
      "SAR": 0.04300944483481,
      "SamplesPerPixel": 1,
      "ScanOptions": "FS",
      "ScanningSequence": "EP",
      "SequenceName": "epfid2d1_104",
      "SequenceVariant": [
        "SK",
        "SS"
],
      "SeriesDescription": "func_task-mario_run-03",
      "SeriesNumber": 16,
      "SeriesTime": "161239.696000",
      "SliceLocation": -37.648641113086,
      "SliceThickness": 2.0,
      "SmallestImagePixelValue": 0,
      "SoftwareVersions": "syngo MR E11",
      "SpacingBetweenSlices": 2.000000039188,
      "SpecificCharacterSet": "ISO_IR 100",
      "StudyID": "1",
      "StudyTime": "145929.168000",
      "TransmitCoilName": "Body",
      "VariableFlipAngleFlag": "N",
      "WindowCenterWidthExplanation": "Algo1",
      "dBdt": 0.0},
    "slices": {}
  },
  "time": {
    "samples": {
      "AcquisitionNumber": [1, 2, 3, 4, 5, 6, 7, 8, 9, 10, 11, 12, 13, 14, 15, 16, 17, 18, 19, 20, 21, 22, 23, 24, 25, 26, 27, 28, 29, 30, 31, 32, 33, 34, 35, 36, 37, 38, 39, 40, 41, 42, 43, 44, 45, 46, 47, 48, 49, 50, 51, 52, 53, 54, 55, 56, 57, 58, 59, 60, 61, 62, 63, 64, 65, 66, 67, 68, 69, 70, 71, 72, 73, 74, 75, 76, 77, 78, 79, 80, 81, 82, 83, 84, 85, 86, 87, 88, 89, 90, 91, 92, 93, 94, 95, 96, 97, 98, 99, 100, 101, 102, 103, 104, 105, 106, 107, 108, 109, 110, 111, 112, 113, 114, 115, 116, 117, 118, 119, 120, 121, 122, 123, 124, 125, 126, 127, 128, 129, 130, 131, 132, 133, 134, 135, 136, 137, 138, 139, 140, 141, 142, 143, 144, 145, 146, 147, 148, 149, 150, 151, 152, 153, 154, 155, 156, 157, 158, 159, 160, 161, 162, 163, 164, 165, 166, 167, 168, 169, 170, 171, 172, 173, 174, 175, 176, 177, 178, 179, 180, 181, 182, 183, 184, 185, 186, 187, 188, 189, 190, 191, 192, 193, 194, 195, 196, 197, 198, 199, 200, 201, 202, 203, 204, 205, 206, 207, 208, 209, 210, 211, 212, 213, 214, 215, 216, 217, 218, 219, 220, 221, 222, 223, 224, 225, 226, 227, 228, 229, 230, 231, 232, 233, 234, 235, 236, 237, 238, 239, 240, 241, 242, 243, 244, 245, 246, 247, 248, 249, 250, 251, 252, 253, 254, 255, 256, 257, 258, 259, 260, 261, 262, 263, 264, 265, 266, 267, 268, 269, 270, 271, 272, 273, 274, 275, 276, 277, 278, 279, 280, 281, 282, 283, 284, 285, 286, 287, 288, 289, 290, 291, 292, 293, 294, 295, 296, 297, 298, 299, 300, 301, 302, 303, 304, 305, 306, 307, 308, 309, 310, 311, 312, 313, 314, 315, 316, 317, 318, 319, 320, 321, 322, 323, 324, 325, 326, 327, 328, 329, 330, 331, 332, 333, 334, 335, 336, 337, 338, 339, 340, 341, 342, 343, 344, 345, 346, 347, 348, 349, 350, 351, 352, 353, 354, 355, 356, 357, 358, 359, 360, 361, 362, 363, 364, 365, 366, 367, 368, 369, 370, 371, 372, 373, 374, 375, 376, 377, 378, 379, 380, 381, 382, 383, 384, 385, 386, 387, 388, 389, 390, 391, 392, 393, 394, 395, 396, 397, 398, 399, 400, 401, 402, 403, 404, 405, 406, 407, 408, 409, 410, 411, 412, 413, 414, 415, 416, 417, 418, 419, 420, 421, 422, 423, 424, 425, 426, 427, 428, 429, 430, 431, 432, 433, 434, 435, 436, 437, 438, 439, 440, 441, 442, 443, 444, 445, 446, 447, 448],
      "AcquisitionTime": ["161112.317500", "161113.807500", "161115.297500", "161116.787500", "161118.277500", "161119.767500", "161121.257500", "161122.747500", "161124.237500", "161125.727500", "161127.217500", "161128.707500", "161130.197500", "161131.687500", "161133.177500", "161134.667500", "161136.157500", "161137.647500", "161139.137500", "161140.627500", "161142.117500", "161143.607500", "161145.097500", "161146.587500", "161148.077500", "161149.567500", "161151.057500", "161152.547500", "161154.037500", "161155.527500", "161157.017500", "161158.507500", "161159.997500", "161201.487500", "161202.977500", "161204.467500", "161205.957500", "161207.447500", "161208.937500", "161210.427500", "161211.917500", "161213.407500", "161214.897500", "161216.387500", "161217.877500", "161219.367500", "161220.857500", "161222.347500", "161223.837500", "161225.327500", "161226.817500", "161228.307500", "161229.797500", "161231.287500", "161232.777500", "161234.267500", "161235.757500", "161237.247500", "161238.737500", "161240.227500", "161241.717500", "161243.207500", "161244.697500", "161246.187500", "161247.677500", "161249.167500", "161250.657500", "161252.147500", "161253.637500", "161255.127500", "161256.617500", "161258.107500", "161259.597500", "161301.087500", "161302.577500", "161304.067500", "161305.557500", "161307.047500", "161308.537500", "161310.027500", "161311.517500", "161313.007500", "161314.497500", "161315.987500", "161317.477500", "161318.967500", "161320.457500", "161321.947500", "161323.437500", "161324.927500", "161326.417500", "161327.907500", "161329.397500", "161330.887500", "161332.377500", "161333.867500", "161335.357500", "161336.847500", "161338.337500", "161339.827500", "161341.317500", "161342.807500", "161344.297500", "161345.787500", "161347.277500", "161348.767500", "161350.257500", "161351.747500", "161353.237500", "161354.727500", "161356.217500", "161357.707500", "161359.197500", "161400.687500", "161402.177500", "161403.667500", "161405.157500", "161406.647500", "161408.137500", "161409.627500", "161411.117500", "161412.607500", "161414.097500", "161415.587500", "161417.077500", "161418.567500", "161420.057500", "161421.547500", "161423.037500", "161424.527500", "161426.017500", "161427.507500", "161428.997500", "161430.487500", "161431.977500", "161433.467500", "161434.957500", "161436.447500", "161437.937500", "161439.427500", "161440.917500", "161442.407500", "161443.897500", "161445.387500", "161446.877500", "161448.367500", "161449.857500", "161451.347500", "161452.837500", "161454.327500", "161455.817500", "161457.307500", "161458.797500", "161500.287500", "161501.777500", "161503.267500", "161504.757500", "161506.247500", "161507.737500", "161509.227500", "161510.717500", "161512.207500", "161513.697500", "161515.187500", "161516.677500", "161518.167500", "161519.657500", "161521.147500", "161522.637500", "161524.127500", "161525.617500", "161527.107500", "161528.597500", "161530.087500", "161531.577500", "161533.067500", "161534.557500", "161536.047500", "161537.537500", "161539.027500", "161540.517500", "161542.007500", "161543.497500", "161544.987500", "161546.477500", "161547.967500", "161549.457500", "161550.947500", "161552.437500", "161553.927500", "161555.417500", "161556.907500", "161558.397500", "161559.887500", "161601.377500", "161602.867500", "161604.357500", "161605.847500", "161607.337500", "161608.827500", "161610.317500", "161611.807500", "161613.297500", "161614.787500", "161616.277500", "161617.767500", "161619.257500", "161620.747500", "161622.237500", "161623.727500", "161625.217500", "161626.707500", "161628.197500", "161629.687500", "161631.177500", "161632.667500", "161634.157500", "161635.647500", "161637.137500", "161638.627500", "161640.117500", "161641.607500", "161643.097500", "161644.587500", "161646.077500", "161647.567500", "161649.057500", "161650.547500", "161652.037500", "161653.527500", "161655.017500", "161656.507500", "161657.997500", "161659.487500", "161700.977500", "161702.467500", "161703.957500", "161705.447500", "161706.937500", "161708.427500", "161709.917500", "161711.407500", "161712.897500", "161714.387500", "161715.877500", "161717.367500", "161718.857500", "161720.347500", "161721.837500", "161723.327500", "161724.817500", "161726.307500", "161727.797500", "161729.287500", "161730.777500", "161732.267500", "161733.757500", "161735.247500", "161736.737500", "161738.227500", "161739.717500", "161741.207500", "161742.697500", "161744.187500", "161745.677500", "161747.167500", "161748.657500", "161750.147500", "161751.637500", "161753.127500", "161754.617500", "161756.107500", "161757.597500", "161759.087500", "161800.577500", "161802.067500", "161803.557500", "161805.047500", "161806.537500", "161808.027500", "161809.517500", "161811.007500", "161812.497500", "161813.987500", "161815.477500", "161816.967500", "161818.457500", "161819.947500", "161821.437500", "161822.927500", "161824.417500", "161825.907500", "161827.397500", "161828.887500", "161830.377500", "161831.867500", "161833.357500", "161834.847500", "161836.337500", "161837.827500", "161839.317500", "161840.807500", "161842.297500", "161843.787500", "161845.277500", "161846.767500", "161848.257500", "161849.747500", "161851.237500", "161852.727500", "161854.217500", "161855.707500", "161857.197500", "161858.687500", "161900.177500", "161901.667500", "161903.157500", "161904.647500", "161906.137500", "161907.627500", "161909.117500", "161910.607500", "161912.097500", "161913.587500", "161915.077500", "161916.567500", "161918.057500", "161919.547500", "161921.037500", "161922.527500", "161924.017500", "161925.507500", "161926.997500", "161928.487500", "161929.977500", "161931.467500", "161932.957500", "161934.447500", "161935.937500", "161937.427500", "161938.917500", "161940.407500", "161941.897500", "161943.387500", "161944.877500", "161946.367500", "161947.857500", "161949.347500", "161950.837500", "161952.327500", "161953.817500", "161955.307500", "161956.797500", "161958.287500", "161959.777500", "162001.267500", "162002.757500", "162004.247500", "162005.737500", "162007.227500", "162008.717500", "162010.207500", "162011.697500", "162013.187500", "162014.677500", "162016.167500", "162017.657500", "162019.147500", "162020.637500", "162022.127500", "162023.617500", "162025.107500", "162026.597500", "162028.087500", "162029.577500", "162031.067500", "162032.557500", "162034.047500", "162035.537500", "162037.027500", "162038.517500", "162040.007500", "162041.497500", "162042.987500", "162044.477500", "162045.967500", "162047.457500", "162048.947500", "162050.437500", "162051.927500", "162053.417500", "162054.907500", "162056.397500", "162057.887500", "162059.377500", "162100.867500", "162102.357500", "162103.847500", "162105.337500", "162106.827500", "162108.317500", "162109.807500", "162111.297500", "162112.787500", "162114.277500", "162115.767500", "162117.257500", "162118.747500", "162120.237500", "162121.727500", "162123.217500", "162124.707500", "162126.197500", "162127.687500", "162129.177500", "162130.667500", "162132.157500", "162133.647500", "162135.137500", "162136.627500", "162138.117500", "162139.607500", "162141.097500", "162142.587500", "162144.077500", "162145.567500", "162147.057500", "162148.547500", "162150.037500", "162151.527500", "162153.017500", "162154.507500", "162155.997500", "162157.487500", "162158.977500", "162200.467500", "162201.957500", "162203.447500", "162204.937500", "162206.427500", "162207.917500", "162209.407500", "162210.897500", "162212.387500", "162213.877500", "162215.367500", "162216.857500", "162218.347500"],
      "ContentTime": ["161239.699000", "161239.703000", "161239.707000", "161239.710000", "161239.713000", "161239.717000", "161239.720000", "161239.723000", "161239.727000", "161239.730000", "161239.733000", "161239.737000", "161239.740000", "161239.744000", "161239.747000", "161239.750000", "161239.754000", "161239.757000", "161239.760000", "161239.764000", "161239.767000", "161239.771000", "161239.774000", "161239.777000", "161239.781000", "161239.791000", "161239.794000", "161239.798000", "161239.801000", "161239.804000", "161239.808000", "161239.811000", "161239.814000", "161239.818000", "161239.821000", "161259.660000", "161259.663000", "161259.667000", "161259.672000", "161259.676000", "161259.679000", "161259.683000", "161259.686000", "161259.690000", "161259.693000", "161259.697000", "161259.701000", "161259.704000", "161259.708000", "161259.712000", "161259.716000", "161259.719000", "161259.723000", "161259.726000", "161259.730000", "161319.659000", "161319.663000", "161319.667000", "161319.670000", "161319.674000", "161319.677000", "161319.680000", "161319.684000", "161319.688000", "161319.692000", "161319.695000", "161319.699000", "161319.702000", "161319.706000", "161319.709000", "161319.713000", "161319.716000", "161319.732000", "161319.736000", "161319.739000", "161339.659000", "161339.663000", "161339.667000", "161339.670000", "161339.673000", "161339.677000", "161339.680000", "161339.683000", "161339.687000", "161339.690000", "161339.694000", "161339.697000", "161339.701000", "161339.704000", "161339.707000", "161339.711000", "161339.714000", "161339.718000", "161339.721000", "161339.724000", "161339.728000", "161419.660000", "161419.664000", "161419.667000", "161419.671000", "161419.674000", "161419.678000", "161419.681000", "161419.685000", "161419.688000", "161419.691000", "161419.695000", "161419.698000", "161419.702000", "161419.705000", "161419.708000", "161419.712000", "161419.715000", "161419.719000", "161419.722000", "161419.725000", "161419.729000", "161419.732000", "161419.736000", "161419.739000", "161419.743000", "161419.746000", "161419.749000", "161419.753000", "161419.756000", "161459.659000", "161459.663000", "161459.666000", "161459.670000", "161459.673000", "161459.677000", "161459.680000", "161459.683000", "161459.687000", "161459.690000", "161459.694000", "161459.697000", "161459.700000", "161459.704000", "161459.707000", "161459.710000", "161459.714000", "161459.717000", "161459.721000", "161459.724000", "161459.728000", "161459.731000", "161459.734000", "161459.738000", "161459.741000", "161459.745000", "161459.748000", "161539.659000", "161539.663000", "161539.666000", "161539.670000", "161539.673000", "161539.677000", "161539.680000", "161539.683000", "161539.687000", "161539.690000", "161539.694000", "161539.697000", "161539.701000", "161539.704000", "161539.707000", "161539.711000", "161539.714000", "161539.717000", "161539.721000", "161539.724000", "161539.728000", "161539.731000", "161539.734000", "161539.738000", "161539.741000", "161539.754000", "161539.757000", "161559.659000", "161559.663000", "161559.667000", "161559.670000", "161559.673000", "161559.677000", "161559.680000", "161559.684000", "161559.687000", "161559.690000", "161559.694000", "161559.697000", "161559.701000", "161639.660000", "161639.664000", "161639.668000", "161639.671000", "161639.674000", "161639.678000", "161639.681000", "161639.684000", "161639.688000", "161639.691000", "161639.695000", "161639.698000", "161639.701000", "161639.705000", "161639.708000", "161639.712000", "161639.715000", "161639.719000", "161639.722000", "161639.725000", "161639.729000", "161639.732000", "161639.736000", "161639.739000", "161639.742000", "161639.746000", "161639.749000", "161719.659000", "161719.663000", "161719.666000", "161719.670000", "161719.673000", "161719.677000", "161719.680000", "161719.683000", "161719.687000", "161719.690000", "161719.694000", "161719.697000", "161719.701000", "161719.704000", "161719.707000", "161719.711000", "161719.714000", "161719.718000", "161719.721000", "161719.724000", "161719.728000", "161719.731000", "161719.734000", "161719.738000", "161719.741000", "161719.745000", "161719.748000", "161759.659000", "161759.663000", "161759.667000", "161759.670000", "161759.674000", "161759.677000", "161759.680000", "161759.684000", "161759.687000", "161759.691000", "161759.694000", "161759.697000", "161759.701000", "161759.704000", "161759.708000", "161759.711000", "161759.715000", "161759.718000", "161759.721000", "161759.725000", "161759.728000", "161759.732000", "161759.735000", "161759.738000", "161759.742000", "161759.745000", "161759.749000", "161839.659000", "161839.663000", "161839.666000", "161839.670000", "161839.673000", "161839.677000", "161839.680000", "161839.684000", "161839.687000", "161839.690000", "161839.694000", "161839.697000", "161839.701000", "161839.704000", "161839.708000", "161839.711000", "161839.714000", "161839.718000", "161839.721000", "161839.725000", "161839.728000", "161839.732000", "161839.735000", "161839.738000", "161839.742000", "161839.745000", "161919.659000", "161919.663000", "161919.666000", "161919.670000", "161919.673000", "161919.677000", "161919.680000", "161919.684000", "161919.687000", "161919.690000", "161919.694000", "161919.697000", "161919.701000", "161919.704000", "161919.707000", "161919.711000", "161919.714000", "161919.718000", "161919.721000", "161919.725000", "161919.728000", "161919.731000", "161919.735000", "161919.738000", "161919.742000", "161919.745000", "161919.748000", "161959.659000", "161959.663000", "161959.667000", "161959.670000", "161959.674000", "161959.677000", "161959.681000", "161959.684000", "161959.687000", "161959.691000", "161959.694000", "161959.698000", "161959.701000", "161959.705000", "161959.708000", "161959.711000", "161959.715000", "161959.726000", "161959.730000", "161959.733000", "161959.737000", "161959.740000", "161959.743000", "161959.747000", "161959.750000", "161959.754000", "161959.757000", "162039.659000", "162039.663000", "162039.666000", "162039.670000", "162039.683000", "162039.687000", "162039.690000", "162039.694000", "162039.697000", "162039.700000", "162039.704000", "162039.707000", "162039.711000", "162039.714000", "162039.719000", "162039.723000", "162039.726000", "162039.730000", "162039.733000", "162039.737000", "162039.740000", "162039.743000", "162039.747000", "162039.750000", "162039.754000", "162039.757000", "162039.761000", "162119.660000", "162119.664000", "162119.668000", "162119.671000", "162119.674000", "162119.678000", "162119.681000", "162119.684000", "162119.688000", "162119.692000", "162119.695000", "162119.698000", "162119.702000", "162119.705000", "162119.709000", "162119.712000", "162119.715000", "162119.719000", "162119.722000", "162119.726000", "162119.729000", "162119.733000", "162119.736000", "162119.739000", "162119.743000", "162119.746000", "162119.749000", "162159.659000", "162159.663000", "162159.666000", "162159.670000", "162159.673000", "162159.677000", "162159.680000", "162159.684000", "162159.687000", "162159.691000", "162159.694000", "162159.697000", "162159.701000", "162159.704000", "162159.708000", "162159.711000", "162159.715000", "162159.718000", "162159.721000", "162159.725000", "162159.728000", "162159.731000", "162159.735000", "162159.738000", "162159.742000", "162159.745000", "162159.748000", "162221.402000", "162221.407000", "162221.410000", "162221.414000", "162221.419000", "162221.423000", "162221.427000", "162221.431000", "162221.451000", "162221.455000", "162221.458000", "162221.462000", "162221.465000", "162221.469000"],
