{
  "AcquisitionMatrixPE": 104,
  "AcquisitionNumber": 1,
  "AcquisitionTime": "16:23:42.985000",
  "BandwidthPerPixelPhaseEncode": 17.17,
  "BaseResolution": 104,
  "BodyPartExamined": "BRAIN",
  "CoilCombinationMethod": "Sum of Squares",
  "ConsistencyInfo": "N4_VE11C_LATEST_20160120",
  "ConversionSoftware": "dcm2niix",
  "ConversionSoftwareVersion": "v1.0.20211006",
  "DerivedVendorReportedEchoSpacing": 0.000560011,
  "DeviceSerialNumber": "167006",
  "DwellTime": 2.1e-06,
  "EchoTime": 0.037,
  "EchoTime1": 0.037,
  "EchoTime2": 0.001,
  "EchoTrainLength": 104,
  "EffectiveEchoSpacing": 0.000560011,
  "FlipAngle": 52,
  "HeudiconvVersion": "0.5.3.post569+g418601f",
  "ImageComments": "Unaliased MB4/PE3/LB",
  "ImageOrientationPatientDICOM": [0.998422, 0.0250942, 0.0502328, -0.0108044, 0.963722, -0.266688],
  "ImageOrientationText": "Tra>Cor(-15.4)>Sag(3.2)",
  "ImageType": [
    "ORIGINAL",
    "PRIMARY",
    "P",
    "MB",
    "ND",
    "MOSAIC",
    "PHASE"
],
  "ImagingFrequency": 123.259,
  "InPlanePhaseEncodingDirectionDICOM": "COL",
  "InstitutionAddress": "Chemin Queen-Mary 4565,Montreal,District,CA,H3W 1W5",
  "InstitutionName": "IUGM",
  "InstitutionalDepartmentName": "Department",
  "MRAcquisitionType": "2D",
  "MagneticFieldStrength": 3,
  "Manufacturer": "Siemens",
  "ManufacturersModelName": "Prisma_fit",
  "MatrixCoilMode": "SENSE",
  "Modality": "MR",
  "MultibandAccelerationFactor": 4,
  "PartialFourier": 1,
  "PatientPosition": "HFS",
  "PercentPhaseFOV": 100,
  "PercentSampling": 100,
  "PhaseEncodingDirection": "j",
  "PhaseEncodingSteps": 104,
  "PhaseResolution": 1,
  "PixelBandwidth": 2290,
  "ProcedureStepDescription": "games^mario",
  "ProtocolName": "func_task-mario_run-04",
  "PulseSequenceDetails": "%CustomerSeq%\\cmrr_mbep2d_bold",
  "ReceiveCoilActiveElements": "HC1-7;NC1,2",
  "ReceiveCoilName": "HeadNeck_64",
  "ReconMatrixPE": 104,
  "RepetitionTime": 1.49,
  "SAR": 0.0430094,
  "ScanOptions": "FS",
  "ScanningSequence": "EP",
  "SequenceName": "epfid2d1_104",
  "SequenceVariant": "SK\\SS",
  "SeriesDescription": "func_task-mario_run-04",
  "SeriesNumber": 20,
  "ShimSetting": [639, -7211, -8779, 704, 35, -4, 32, -6],
  "SliceThickness": 2,
  "SliceTiming": [0, 0.785, 0.1, 0.8825, 0.1975, 0.98, 0.295, 1.08, 0.3925, 1.1775, 0.49, 1.275, 0.59, 1.3725, 0.6875, 0, 0.785, 0.1, 0.8825, 0.1975, 0.98, 0.295, 1.08, 0.3925, 1.1775, 0.49, 1.275, 0.59, 1.3725, 0.6875, 0, 0.785, 0.1, 0.8825, 0.1975, 0.98, 0.295, 1.08, 0.3925, 1.1775, 0.49, 1.275, 0.59, 1.3725, 0.6875, 0, 0.785, 0.1, 0.8825, 0.1975, 0.98, 0.295, 1.08, 0.3925, 1.1775, 0.49, 1.275, 0.59, 1.3725, 0.6875],
  "SoftwareVersions": "syngo MR E11",
  "SpacingBetweenSlices": 2,
  "StationName": "MRC35049",
  "TaskName": "mario",
  "TotalReadoutTime": 0.0576811,
  "TxRefAmp": 218.659,
  "WipMemBlock": "fb8d6138-caa1-4f41-bb7c-b6b9dbfbd77b||Sequence: R016 ve11c/master r/e634e98; Dec 19 2017 11:00:25 by eja",
  "dcmmeta_affine": [
    [-1.9968444108963013, -0.02160884439945221, 0.11020556092262268, 106.73764038085938],
    [-0.05018838495016098, 1.9274449348449707, -0.5314481854438782, -70.68472290039062],
    [0.10046558082103729, 0.5333752036094666, 1.9249461889266968, -64.74240112304688],
    [0.0, 0.0, 0.0, 1.0]
],
  "dcmmeta_reorient_transform": [
    [0.0, -1.0, 0.0, 103.0],
    [1.0, 0.0, 0.0, 0.0],
    [0.0, 0.0, 1.0, 0.0],
    [0.0, 0.0, 0.0, 1.0]
],
  "dcmmeta_shape": [104, 104, 60, 426],
  "dcmmeta_slice_dim": 2,
  "dcmmeta_version": 0.6,
  "global": {
    "const": {
      "AcquisitionMatrix": [104, 0, 0, 104],
      "AngioFlag": "N",
      "BitsAllocated": 16,
      "BitsStored": 16,
      "BodyPartExamined": "BRAIN",
      "Columns": 832,
      "EchoNumbers": 1,
      "EchoTime": 37.0,
      "EchoTrainLength": 104,
      "FlipAngle": 52.0,
      "HighBit": 15,
      "ImageOrientationPatient": [0.99842222940562, 0.02509419337633, 0.05023279095873, -0.0108044219209, 0.96372246250735, -0.2666876069969],
      "ImagePositionPatient": [-823.49769677553, -847.70062661002, 147.77435164589],
      "ImageType": [
        "ORIGINAL",
        "PRIMARY",
        "P",
        "MB",
        "ND",
        "MOSAIC"
],
      "ImagedNucleus": "1H",
      "ImagingFrequency": 123.258864,
      "InPlanePhaseEncodingDirection": "COL",
      "LargestImagePixelValue": 4095,
      "MRAcquisitionType": "2D",
      "MagneticFieldStrength": 3.0,
      "Manufacturer": "SIEMENS",
      "ManufacturerModelName": "Prisma_fit",
      "Modality": "MR",
      "NumberOfAverages": 1.0,
      "NumberOfPhaseEncodingSteps": 104,
      "PercentPhaseFieldOfView": 100.0,
      "PercentSampling": 100.0,
      "PerformedProcedureStepStartTime": "145929.273000",
      "PhotometricInterpretation": "MONOCHROME2",
      "PixelBandwidth": 2290.0,
      "PixelRepresentation": 0,
      "PixelSpacing": [2.0, 2.0],
      "ProtocolName": "func_task-mario_run-04",
      "RepetitionTime": 1490.0,
      "RescaleIntercept": -4096.0,
      "RescaleSlope": 2.0,
      "RescaleType": "US",
      "Rows": 832,
      "SAR": 0.04300944483481,
      "SamplesPerPixel": 1,
      "ScanOptions": "FS",
      "ScanningSequence": "EP",
      "SequenceName": "epfid2d1_104",
      "SequenceVariant": [
        "SK",
        "SS"
],
      "SeriesDescription": "func_task-mario_run-04",
      "SeriesNumber": 20,
      "SeriesTime": "162505.394000",
      "SliceLocation": -37.648641113086,
      "SliceThickness": 2.0,
      "SmallestImagePixelValue": 0,
      "SoftwareVersions": "syngo MR E11",
      "SpacingBetweenSlices": 2.000000039188,
      "SpecificCharacterSet": "ISO_IR 100",
      "StudyID": "1",
      "StudyTime": "145929.168000",
      "TransmitCoilName": "Body",
      "VariableFlipAngleFlag": "N",
      "WindowCenterWidthExplanation": "Algo1",
      "dBdt": 0.0},
    "slices": {}
  },
  "time": {
    "samples": {
      "AcquisitionNumber": [1, 2, 3, 4, 5, 6, 7, 8, 9, 10, 11, 12, 13, 14, 15, 16, 17, 18, 19, 20, 21, 22, 23, 24, 25, 26, 27, 28, 29, 30, 31, 32, 33, 34, 35, 36, 37, 38, 39, 40, 41, 42, 43, 44, 45, 46, 47, 48, 49, 50, 51, 52, 53, 54, 55, 56, 57, 58, 59, 60, 61, 62, 63, 64, 65, 66, 67, 68, 69, 70, 71, 72, 73, 74, 75, 76, 77, 78, 79, 80, 81, 82, 83, 84, 85, 86, 87, 88, 89, 90, 91, 92, 93, 94, 95, 96, 97, 98, 99, 100, 101, 102, 103, 104, 105, 106, 107, 108, 109, 110, 111, 112, 113, 114, 115, 116, 117, 118, 119, 120, 121, 122, 123, 124, 125, 126, 127, 128, 129, 130, 131, 132, 133, 134, 135, 136, 137, 138, 139, 140, 141, 142, 143, 144, 145, 146, 147, 148, 149, 150, 151, 152, 153, 154, 155, 156, 157, 158, 159, 160, 161, 162, 163, 164, 165, 166, 167, 168, 169, 170, 171, 172, 173, 174, 175, 176, 177, 178, 179, 180, 181, 182, 183, 184, 185, 186, 187, 188, 189, 190, 191, 192, 193, 194, 195, 196, 197, 198, 199, 200, 201, 202, 203, 204, 205, 206, 207, 208, 209, 210, 211, 212, 213, 214, 215, 216, 217, 218, 219, 220, 221, 222, 223, 224, 225, 226, 227, 228, 229, 230, 231, 232, 233, 234, 235, 236, 237, 238, 239, 240, 241, 242, 243, 244, 245, 246, 247, 248, 249, 250, 251, 252, 253, 254, 255, 256, 257, 258, 259, 260, 261, 262, 263, 264, 265, 266, 267, 268, 269, 270, 271, 272, 273, 274, 275, 276, 277, 278, 279, 280, 281, 282, 283, 284, 285, 286, 287, 288, 289, 290, 291, 292, 293, 294, 295, 296, 297, 298, 299, 300, 301, 302, 303, 304, 305, 306, 307, 308, 309, 310, 311, 312, 313, 314, 315, 316, 317, 318, 319, 320, 321, 322, 323, 324, 325, 326, 327, 328, 329, 330, 331, 332, 333, 334, 335, 336, 337, 338, 339, 340, 341, 342, 343, 344, 345, 346, 347, 348, 349, 350, 351, 352, 353, 354, 355, 356, 357, 358, 359, 360, 361, 362, 363, 364, 365, 366, 367, 368, 369, 370, 371, 372, 373, 374, 375, 376, 377, 378, 379, 380, 381, 382, 383, 384, 385, 386, 387, 388, 389, 390, 391, 392, 393, 394, 395, 396, 397, 398, 399, 400, 401, 402, 403, 404, 405, 406, 407, 408, 409, 410, 411, 412, 413, 414, 415, 416, 417, 418, 419, 420, 421, 422, 423, 424, 425, 426],
      "AcquisitionTime": ["162342.985000", "162344.475000", "162345.965000", "162347.455000", "162348.945000", "162350.435000", "162351.925000", "162353.415000", "162354.905000", "162356.395000", "162357.885000", "162359.375000", "162400.865000", "162402.355000", "162403.845000", "162405.335000", "162406.825000", "162408.315000", "162409.805000", "162411.295000", "162412.785000", "162414.275000", "162415.765000", "162417.255000", "162418.745000", "162420.235000", "162421.725000", "162423.215000", "162424.705000", "162426.195000", "162427.685000", "162429.175000", "162430.665000", "162432.155000", "162433.645000", "162435.135000", "162436.625000", "162438.115000", "162439.605000", "162441.095000", "162442.585000", "162444.075000", "162445.565000", "162447.055000", "162448.545000", "162450.035000", "162451.525000", "162453.015000", "162454.505000", "162455.995000", "162457.485000", "162458.975000", "162500.465000", "162501.955000", "162503.445000", "162504.935000", "162506.425000", "162507.915000", "162509.405000", "162510.895000", "162512.385000", "162513.875000", "162515.365000", "162516.855000", "162518.345000", "162519.835000", "162521.325000", "162522.815000", "162524.305000", "162525.795000", "162527.285000", "162528.775000", "162530.265000", "162531.755000", "162533.245000", "162534.735000", "162536.225000", "162537.715000", "162539.205000", "162540.695000", "162542.185000", "162543.675000", "162545.165000", "162546.655000", "162548.145000", "162549.635000", "162551.125000", "162552.615000", "162554.105000", "162555.595000", "162557.085000", "162558.575000", "162600.065000", "162601.555000", "162603.045000", "162604.535000", "162606.025000", "162607.515000", "162609.005000", "162610.495000", "162611.985000", "162613.475000", "162614.965000", "162616.455000", "162617.945000", "162619.435000", "162620.925000", "162622.415000", "162623.905000", "162625.395000", "162626.885000", "162628.375000", "162629.865000", "162631.355000", "162632.845000", "162634.335000", "162635.825000", "162637.315000", "162638.805000", "162640.295000", "162641.785000", "162643.275000", "162644.765000", "162646.255000", "162647.745000", "162649.235000", "162650.725000", "162652.215000", "162653.705000", "162655.195000", "162656.685000", "162658.175000", "162659.665000", "162701.155000", "162702.645000", "162704.135000", "162705.625000", "162707.115000", "162708.605000", "162710.095000", "162711.585000", "162713.075000", "162714.565000", "162716.055000", "162717.545000", "162719.035000", "162720.525000", "162722.015000", "162723.505000", "162724.995000", "162726.485000", "162727.975000", "162729.465000", "162730.955000", "162732.445000", "162733.935000", "162735.425000", "162736.915000", "162738.405000", "162739.895000", "162741.385000", "162742.875000", "162744.365000", "162745.855000", "162747.345000", "162748.835000", "162750.325000", "162751.815000", "162753.305000", "162754.795000", "162756.285000", "162757.775000", "162759.265000", "162800.755000", "162802.245000", "162803.735000", "162805.225000", "162806.715000", "162808.205000", "162809.695000", "162811.185000", "162812.675000", "162814.165000", "162815.655000", "162817.145000", "162818.635000", "162820.125000", "162821.615000", "162823.105000", "162824.595000", "162826.085000", "162827.575000", "162829.065000", "162830.555000", "162832.045000", "162833.535000", "162835.025000", "162836.515000", "162838.005000", "162839.495000", "162840.985000", "162842.475000", "162843.965000", "162845.455000", "162846.945000", "162848.435000", "162849.925000", "162851.415000", "162852.905000", "162854.395000", "162855.885000", "162857.375000", "162858.865000", "162900.355000", "162901.845000", "162903.335000", "162904.825000", "162906.315000", "162907.805000", "162909.295000", "162910.785000", "162912.275000", "162913.765000", "162915.255000", "162916.745000", "162918.235000", "162919.725000", "162921.215000", "162922.705000", "162924.195000", "162925.685000", "162927.175000", "162928.665000", "162930.155000", "162931.645000", "162933.135000", "162934.625000", "162936.115000", "162937.605000", "162939.095000", "162940.585000", "162942.075000", "162943.565000", "162945.055000", "162946.545000", "162948.035000", "162949.525000", "162951.015000", "162952.505000", "162953.995000", "162955.485000", "162956.975000", "162958.465000", "162959.955000", "163001.445000", "163002.935000", "163004.425000", "163005.915000", "163007.405000", "163008.895000", "163010.385000", "163011.875000", "163013.365000", "163014.855000", "163016.345000", "163017.835000", "163019.325000", "163020.815000", "163022.305000", "163023.795000", "163025.285000", "163026.775000", "163028.265000", "163029.755000", "163031.245000", "163032.735000", "163034.225000", "163035.715000", "163037.205000", "163038.695000", "163040.185000", "163041.675000", "163043.165000", "163044.655000", "163046.145000", "163047.635000", "163049.125000", "163050.615000", "163052.105000", "163053.595000", "163055.085000", "163056.575000", "163058.065000", "163059.555000", "163101.045000", "163102.535000", "163104.025000", "163105.515000", "163107.005000", "163108.495000", "163109.985000", "163111.475000", "163112.965000", "163114.455000", "163115.945000", "163117.435000", "163118.925000", "163120.415000", "163121.905000", "163123.395000", "163124.885000", "163126.375000", "163127.865000", "163129.355000", "163130.845000", "163132.335000", "163133.825000", "163135.315000", "163136.805000", "163138.295000", "163139.785000", "163141.275000", "163142.765000", "163144.255000", "163145.745000", "163147.235000", "163148.725000", "163150.215000", "163151.705000", "163153.195000", "163154.685000", "163156.175000", "163157.665000", "163159.155000", "163200.645000", "163202.135000", "163203.625000", "163205.115000", "163206.605000", "163208.095000", "163209.585000", "163211.075000", "163212.565000", "163214.055000", "163215.545000", "163217.035000", "163218.525000", "163220.015000", "163221.505000", "163222.995000", "163224.485000", "163225.975000", "163227.465000", "163228.955000", "163230.445000", "163231.935000", "163233.425000", "163234.915000", "163236.405000", "163237.895000", "163239.385000", "163240.875000", "163242.365000", "163243.855000", "163245.345000", "163246.835000", "163248.325000", "163249.815000", "163251.305000", "163252.795000", "163254.285000", "163255.775000", "163257.265000", "163258.755000", "163300.245000", "163301.735000", "163303.225000", "163304.715000", "163306.205000", "163307.695000", "163309.185000", "163310.675000", "163312.165000", "163313.655000", "163315.145000", "163316.635000", "163318.125000", "163319.615000", "163321.105000", "163322.595000", "163324.085000", "163325.575000", "163327.065000", "163328.555000", "163330.045000", "163331.535000", "163333.025000", "163334.515000", "163336.005000", "163337.495000", "163338.985000", "163340.475000", "163341.965000", "163343.455000", "163344.945000", "163346.435000", "163347.925000", "163349.415000", "163350.905000", "163352.395000", "163353.885000", "163355.375000", "163356.865000", "163358.355000", "163359.845000", "163401.335000", "163402.825000", "163404.315000", "163405.805000", "163407.295000", "163408.785000", "163410.275000", "163411.765000", "163413.255000", "163414.745000", "163416.235000"],
      "ContentTime": ["162505.396000", "162505.399000", "162505.402000", "162505.405000", "162505.407000", "162505.410000", "162505.412000", "162505.415000", "162505.418000", "162505.420000", "162505.423000", "162505.425000", "162505.428000", "162505.436000", "162505.439000", "162505.441000", "162505.444000", "162505.446000", "162505.449000", "162505.452000", "162505.454000", "162505.457000", "162505.469000", "162505.472000", "162505.474000", "162505.477000", "162505.479000", "162505.482000", "162525.764000", "162525.767000", "162525.770000", "162525.787000", "162525.789000", "162525.792000", "162525.794000", "162525.797000", "162525.800000", "162525.802000", "162525.805000", "162525.807000", "162525.810000", "162525.813000", "162525.815000", "162525.818000", "162525.820000", "162525.823000", "162525.825000", "162525.828000", "162545.337000", "162545.341000", "162545.344000", "162545.346000", "162545.349000", "162545.352000", "162545.355000", "162545.357000", "162545.360000", "162545.362000", "162545.365000", "162545.368000", "162545.370000", "162545.373000", "162545.376000", "162545.378000", "162545.381000", "162545.383000", "162545.386000", "162545.388000", "162605.358000", "162605.361000", "162605.363000", "162605.366000", "162605.368000", "162605.371000", "162605.381000", "162605.383000", "162605.386000", "162605.389000", "162605.391000", "162605.394000", "162605.396000", "162605.399000", "162605.402000", "162605.404000", "162605.407000", "162605.409000", "162605.412000", "162605.414000", "162605.417000", "162645.400000", "162645.403000", "162645.406000", "162645.408000", "162645.411000", "162645.414000", "162645.416000", "162645.419000", "162645.421000", "162645.424000", "162645.427000", "162645.429000", "162645.432000", "162645.434000", "162645.437000", "162645.440000", "162645.442000", "162645.445000", "162645.447000", "162645.450000", "162645.452000", "162645.455000", "162645.458000", "162645.460000", "162645.463000", "162645.465000", "162645.468000", "162645.471000", "162645.473000", "162645.476000", "162645.478000", "162645.481000", "162645.484000", "162725.369000", "162725.371000", "162725.374000", "162725.377000", "162725.379000", "162725.382000", "162725.384000", "162725.387000", "162725.390000", "162725.392000", "162725.395000", "162725.397000", "162725.400000", "162725.402000", "162725.405000", "162725.407000", "162725.410000", "162725.412000", "162725.415000", "162725.418000", "162725.420000", "162725.423000", "162725.425000", "162725.428000", "162725.430000", "162725.433000", "162805.365000", "162805.367000", "162805.370000", "162805.373000", "162805.375000", "162805.378000", "162805.380000", "162805.383000", "162805.386000", "162805.388000", "162805.391000", "162805.393000", "162805.396000", "162805.398000", "162805.401000", "162805.404000", "162805.406000", "162805.410000", "162805.413000", "162805.415000", "162805.418000", "162805.421000", "162805.423000", "162805.426000", "162805.429000", "162805.431000", "162805.434000", "162845.390000", "162845.393000", "162845.396000", "162845.399000", "162845.403000", "162845.405000", "162845.408000", "162845.411000", "162845.415000", "162845.418000", "162845.420000", "162845.423000", "162845.426000", "162845.429000", "162845.432000", "162845.434000", "162845.437000", "162845.440000", "162845.442000", "162845.445000", "162845.448000", "162845.450000", "162845.453000", "162845.455000", "162845.458000", "162845.461000", "162845.463000", "162925.351000", "162925.354000", "162925.357000", "162925.359000", "162925.362000", "162925.364000", "162925.367000", "162925.370000", "162925.372000", "162925.375000", "162925.377000", "162925.380000", "162925.383000", "162925.385000", "162925.388000", "162925.390000", "162925.393000", "162925.396000", "162925.398000", "162925.401000", "162925.403000", "162925.406000", "162925.409000", "162925.411000", "162925.414000", "162925.416000", "162925.419000", "163005.372000", "163005.374000", "163005.377000", "163005.380000", "163005.382000", "163005.385000", "163005.387000", "163005.390000", "163005.393000", "163005.395000", "163005.398000", "163005.400000", "163005.403000", "163005.405000", "163005.408000", "163005.411000", "163005.413000", "163005.416000", "163005.418000", "163005.421000", "163005.424000", "163005.426000", "163005.429000", "163005.431000", "163005.434000", "163005.436000", "163005.439000", "163045.379000", "163045.382000", "163045.385000", "163045.387000", "163045.390000", "163045.393000", "163045.395000", "163045.398000", "163045.400000", "163045.403000", "163045.406000", "163045.408000", "163045.411000", "163045.413000", "163045.416000", "163045.418000", "163045.421000", "163045.424000", "163045.426000", "163045.429000", "163045.431000", "163045.434000", "163045.437000", "163045.439000", "163045.442000", "163045.445000", "163045.447000", "163125.375000", "163125.378000", "163125.381000", "163125.383000", "163125.386000", "163125.388000", "163125.391000", "163125.394000", "163125.396000", "163125.399000", "163125.401000", "163125.404000", "163125.406000", "163125.409000", "163125.411000", "163125.414000", "163125.416000", "163125.419000", "163125.421000", "163125.424000", "163125.427000", "163125.429000", "163125.432000", "163125.434000", "163125.437000", "163125.439000", "163205.379000", "163205.382000", "163205.385000", "163205.387000", "163205.390000", "163205.393000", "163205.395000", "163205.398000", "163205.400000", "163205.403000", "163205.406000", "163205.408000", "163205.411000", "163205.414000", "163205.417000", "163205.420000", "163205.432000", "163205.435000", "163205.438000", "163205.441000", "163205.444000", "163205.447000", "163205.450000", "163205.452000", "163205.455000", "163205.458000", "163205.460000", "163245.364000", "163245.368000", "163245.371000", "163245.374000", "163245.376000", "163245.379000", "163245.381000", "163245.384000", "163245.386000", "163245.389000", "163245.391000", "163245.394000", "163245.397000", "163245.399000", "163245.402000", "163245.404000", "163245.407000", "163245.409000", "163245.412000", "163245.414000", "163245.417000", "163245.419000", "163245.422000", "163245.424000", "163245.427000", "163245.429000", "163245.432000", "163325.371000", "163325.374000", "163325.376000", "163325.379000", "163325.382000", "163325.384000", "163325.387000", "163325.389000", "163325.392000", "163325.394000", "163325.397000", "163325.399000", "163325.402000", "163325.405000", "163325.407000", "163325.410000", "163325.412000", "163325.415000", "163325.417000", "163325.420000", "163325.423000", "163325.425000", "163325.428000", "163325.430000", "163325.433000", "163325.435000", "163325.438000", "163405.368000", "163405.370000", "163405.373000", "163405.376000", "163405.378000", "163405.381000", "163405.383000", "163405.386000", "163405.388000", "163405.391000", "163405.393000", "163405.396000", "163405.398000", "163405.401000", "163405.403000", "163405.406000", "163405.409000", "163405.411000", "163405.414000", "163405.416000", "163405.419000", "163405.421000", "163405.424000", "163405.426000", "163405.429000", "163405.431000", "163405.434000", "163418.641000", "163418.644000", "163418.646000", "163418.649000", "163418.651000", "163418.654000", "163418.656000", "163418.663000", "163418.665000"],
      "InstanceCreationTime": ["162505.396000", "162505.399000", "162505.402000", "162505.405000", "162505.407000", "162505.410000", "162505.412000", "162505.415000", "162505.418000", "162505.420000", "162505.423000", "162505.425000", "162505.428000", "162505.436000", "162505.439000", "162505.441000", "162505.444000", "162505.446000", "162505.449000", "162505.452000", "162505.454000", "162505.457000", "162505.469000", "162505.472000", "162505.474000", "162505.477000", "162505.479000", "162505.482000", "162525.764000", "162525.767000", "162525.770000", "162525.787000", "162525.789000", "162525.792000", "162525.794000", "162525.797000", "162525.800000", "162525.802000", "162525.805000", "162525.807000", "162525.810000", "162525.813000", "162525.815000", "162525.818000", "162525.820000", "162525.823000", "162525.825000", "162525.828000", "162545.337000", "162545.341000", "162545.344000", "162545.346000", "162545.349000", "162545.352000", "162545.355000", "162545.357000", "162545.360000", "162545.362000", "162545.365000", "162545.368000", "162545.370000", "162545.373000", "162545.376000", "162545.378000", "162545.381000", "162545.383000", "162545.386000", "162545.388000", "162605.358000", "162605.361000", "162605.363000", "162605.366000", "162605.368000", "162605.371000", "162605.381000", "162605.383000", "162605.386000", "162605.389000", "162605.391000", "162605.394000", "162605.396000", "162605.399000", "162605.402000", "162605.404000", "162605.407000", "162605.409000", "162605.412000", "162605.414000", "162605.417000", "162645.400000", "162645.403000", "162645.406000", "162645.408000", "162645.411000", "162645.414000", "162645.416000", "162645.419000", "162645.421000", "162645.424000", "162645.427000", "162645.429000", "162645.432000", "162645.434000", "162645.437000", "162645.440000", "162645.442000", "162645.445000", "162645.447000", "162645.450000", "162645.452000", "162645.455000", "162645.458000", "162645.460000", "162645.463000", "162645.465000", "162645.468000", "162645.471000", "162645.473000", "162645.476000", "162645.478000", "162645.481000", "162645.484000", "162725.369000", "162725.371000", "162725.374000", "162725.377000", "162725.379000", "162725.382000", "162725.384000", "162725.387000", "162725.390000", "162725.392000", "162725.395000", "162725.397000", "162725.400000", "162725.402000", "162725.405000", "162725.407000", "162725.410000", "162725.412000", "162725.415000", "162725.418000", "162725.420000", "162725.423000", "162725.425000", "162725.428000", "162725.430000", "162725.433000", "162805.365000", "162805.367000", "162805.370000", "162805.373000", "162805.375000", "162805.378000", "162805.380000", "162805.383000", "162805.386000", "162805.388000", "162805.391000", "162805.393000", "162805.396000", "162805.398000", "162805.401000", "162805.404000", "162805.406000", "162805.410000", "162805.413000", "162805.415000", "162805.418000", "162805.421000", "162805.423000", "162805.426000", "162805.429000", "162805.431000", "162805.434000", "162845.390000", "162845.393000", "162845.396000", "162845.399000", "162845.403000", "162845.405000", "162845.408000", "162845.411000", "162845.415000", "162845.418000", "162845.420000", "162845.423000", "162845.426000", "162845.429000", "162845.432000", "162845.434000", "162845.437000", "162845.440000", "162845.442000", "162845.445000", "162845.448000", "162845.450000", "162845.453000", "162845.455000", "162845.458000", "162845.461000", "162845.463000", "162925.351000", "162925.354000", "162925.357000", "162925.359000", "162925.362000", "162925.364000", "162925.367000", "162925.370000", "162925.372000", "162925.375000", "162925.377000", "162925.380000", "162925.383000", "162925.385000", "162925.388000", "162925.390000", "162925.393000", "162925.396000", "162925.398000", "162925.401000", "162925.403000", "162925.406000", "162925.409000", "162925.411000", "162925.414000", "162925.416000", "162925.419000", "163005.372000", "163005.374000", "163005.377000", "163005.380000", "163005.382000", "163005.385000", "163005.387000", "163005.390000", "163005.393000", "163005.395000", "163005.398000", "163005.400000", "163005.403000", "163005.405000", "163005.408000", "163005.411000", "163005.413000", "163005.416000", "163005.418000", "163005.421000", "163005.424000", "163005.426000", "163005.429000", "163005.431000", "163005.434000", "163005.436000", "163005.439000", "163045.379000", "163045.382000", "163045.385000", "163045.387000", "163045.390000", "163045.393000", "163045.395000", "163045.398000", "163045.400000", "163045.403000", "163045.406000", "163045.408000", "163045.411000", "163045.413000", "163045.416000", "163045.418000", "163045.421000", "163045.424000", "163045.426000", "163045.429000", "163045.431000", "163045.434000", "163045.437000", "163045.439000", "163045.442000", "163045.445000", "163045.447000", "163125.375000", "163125.378000", "163125.381000", "163125.383000", "163125.386000", "163125.388000", "163125.391000", "163125.394000", "163125.396000", "163125.399000", "163125.401000", "163125.404000", "163125.406000", "163125.409000", "163125.411000", "163125.414000", "163125.416000", "163125.419000", "163125.421000", "163125.424000", "163125.427000", "163125.429000", "163125.432000", "163125.434000", "163125.437000", "163125.439000", "163205.379000", "163205.382000", "163205.385000", "163205.387000", "163205.390000", "163205.393000", "163205.395000", "163205.398000", "163205.400000", "163205.403000", "163205.406000", "163205.408000", "163205.411000", "163205.414000", "163205.417000", "163205.420000", "163205.432000", "163205.435000", "163205.438000", "163205.441000", "163205.444000", "163205.447000", "163205.450000", "163205.452000", "163205.455000", "163205.458000", "163205.460000", "163245.364000", "163245.368000", "163245.371000", "163245.374000", "163245.376000", "163245.379000", "163245.381000", "163245.384000", "163245.386000", "163245.389000", "163245.391000", "163245.394000", "163245.397000", "163245.399000", "163245.402000", "163245.404000", "163245.407000", "163245.409000", "163245.412000", "163245.414000", "163245.417000", "163245.419000", "163245.422000", "163245.424000", "163245.427000", "163245.429000", "163245.432000", "163325.371000", "163325.374000", "163325.376000", "163325.379000", "163325.382000", "163325.384000", "163325.387000", "163325.389000", "163325.392000", "163325.394000", "163325.397000", "163325.399000", "163325.402000", "163325.405000", "163325.407000", "163325.410000", "163325.412000", "163325.415000", "163325.417000", "163325.420000", "163325.423000", "163325.425000", "163325.428000", "163325.430000", "163325.433000", "163325.435000", "163325.438000", "163405.368000", "163405.370000", "163405.373000", "163405.376000", "163405.378000", "163405.381000", "163405.383000", "163405.386000", "163405.388000", "163405.391000", "163405.393000", "163405.396000", "163405.398000", "163405.401000", "163405.403000", "163405.406000", "163405.409000", "163405.411000", "163405.414000", "163405.416000", "163405.419000", "163405.421000", "163405.424000", "163405.426000", "163405.429000", "163405.431000", "163405.434000", "163418.641000", "163418.644000", "163418.646000", "163418.649000", "163418.651000", "163418.654000", "163418.656000", "163418.663000", "163418.665000"],
