{
  "AcquisitionMatrixPE": 104,
  "AcquisitionNumber": 1,
  "AcquisitionTime": "16:11:12.317500",
  "BandwidthPerPixelPhaseEncode": 17.17,
  "BaseResolution": 104,
  "BodyPartExamined": "BRAIN",
  "CoilCombinationMethod": "Sum of Squares",
  "ConsistencyInfo": "N4_VE11C_LATEST_20160120",
  "ConversionSoftware": "dcm2niix",
  "ConversionSoftwareVersion": "v1.0.20211006",
  "DerivedVendorReportedEchoSpacing": 0.000560011,
  "DeviceSerialNumber": "167006",
  "DwellTime": 2.1e-06,
  "EchoTime": 0.037,
  "EchoTime1": 0.037,
  "EchoTime2": 0.001,
  "EchoTrainLength": 104,
  "EffectiveEchoSpacing": 0.000560011,
  "FlipAngle": 52,
  "HeudiconvVersion": "0.5.3.post569+g418601f",
  "ImageComments": "Unaliased MB4/PE3/LB",
  "ImageOrientationPatientDICOM": [0.998422, 0.0250942, 0.0502328, -0.0108044, 0.963722, -0.266688],
  "ImageOrientationText": "Tra>Cor(-15.4)>Sag(3.2)",
  "ImageType": [
    "ORIGINAL",
    "PRIMARY",
    "P",
    "MB",
    "ND",
    "MOSAIC",
    "PHASE"
],
  "ImagingFrequency": 123.259,
  "InPlanePhaseEncodingDirectionDICOM": "COL",
  "InstitutionAddress": "Chemin Queen-Mary 4565,Montreal,District,CA,H3W 1W5",
  "InstitutionName": "IUGM",
  "InstitutionalDepartmentName": "Department",
  "MRAcquisitionType": "2D",
  "MagneticFieldStrength": 3,
  "Manufacturer": "Siemens",
  "ManufacturersModelName": "Prisma_fit",
  "MatrixCoilMode": "SENSE",
  "Modality": "MR",
  "MultibandAccelerationFactor": 4,
  "PartialFourier": 1,
  "PatientPosition": "HFS",
  "PercentPhaseFOV": 100,
  "PercentSampling": 100,
  "PhaseEncodingDirection": "j",
  "PhaseEncodingSteps": 104,
  "PhaseResolution": 1,
  "PixelBandwidth": 2290,
  "ProcedureStepDescription": "games^mario",
  "ProtocolName": "func_task-mario_run-03",
  "PulseSequenceDetails": "%CustomerSeq%\\cmrr_mbep2d_bold",
  "ReceiveCoilActiveElements": "HC1-7;NC1,2",
  "ReceiveCoilName": "HeadNeck_64",
  "ReconMatrixPE": 104,
  "RepetitionTime": 1.49,
  "SAR": 0.0430094,
  "ScanOptions": "FS",
  "ScanningSequence": "EP",
  "SequenceName": "epfid2d1_104",
  "SequenceVariant": "SK\\SS",
  "SeriesDescription": "func_task-mario_run-03",
  "SeriesNumber": 17,
  "ShimSetting": [639, -7211, -8779, 704, 35, -4, 32, -6],
  "SliceThickness": 2,
  "SliceTiming": [0, 0.785, 0.0975, 0.8825, 0.195, 0.98, 0.295, 1.0775, 0.3925, 1.175, 0.49, 1.275, 0.5875, 1.3725, 0.685, 0, 0.785, 0.0975, 0.8825, 0.195, 0.98, 0.295, 1.0775, 0.3925, 1.175, 0.49, 1.275, 0.5875, 1.3725, 0.685, 0, 0.785, 0.0975, 0.8825, 0.195, 0.98, 0.295, 1.0775, 0.3925, 1.175, 0.49, 1.275, 0.5875, 1.3725, 0.685, 0, 0.785, 0.0975, 0.8825, 0.195, 0.98, 0.295, 1.0775, 0.3925, 1.175, 0.49, 1.275, 0.5875, 1.3725, 0.685],
  "SoftwareVersions": "syngo MR E11",
  "SpacingBetweenSlices": 2,
  "StationName": "MRC35049",
  "TaskName": "mario",
  "TotalReadoutTime": 0.0576811,
  "TxRefAmp": 218.659,
  "WipMemBlock": "5e9111d3-1b17-4683-972d-d1042cdef205||Sequence: R016 ve11c/master r/e634e98; Dec 19 2017 11:00:25 by eja",
  "dcmmeta_affine": [
    [-1.9968444108963013, -0.02160884439945221, 0.11020556092262268, 106.73764038085938],
    [-0.05018838495016098, 1.9274449348449707, -0.5314481854438782, -70.68472290039062],
    [0.10046558082103729, 0.5333752036094666, 1.9249461889266968, -64.74240112304688],
    [0.0, 0.0, 0.0, 1.0]
],
  "dcmmeta_reorient_transform": [
    [0.0, -1.0, 0.0, 103.0],
    [1.0, 0.0, 0.0, 0.0],
    [0.0, 0.0, 1.0, 0.0],
    [0.0, 0.0, 0.0, 1.0]
],
  "dcmmeta_shape": [104, 104, 60, 448],
  "dcmmeta_slice_dim": 2,
  "dcmmeta_version": 0.6,
  "global": {
    "const": {
      "AcquisitionMatrix": [104, 0, 0, 104],
      "AngioFlag": "N",
      "BitsAllocated": 16,
      "BitsStored": 16,
      "BodyPartExamined": "BRAIN",
      "Columns": 832,
      "EchoNumbers": 1,
      "EchoTime": 37.0,
      "EchoTrainLength": 104,
      "FlipAngle": 52.0,
      "HighBit": 15,
      "ImageOrientationPatient": [0.99842222940562, 0.02509419337633, 0.05023279095873, -0.0108044219209, 0.96372246250735, -0.2666876069969],
      "ImagePositionPatient": [-823.49769677553, -847.70062661002, 147.77435164589],
      "ImageType": [
        "ORIGINAL",
        "PRIMARY",
        "P",
        "MB",
        "ND",
        "MOSAIC"
],
      "ImagedNucleus": "1H",
      "ImagingFrequency": 123.25886,
      "InPlanePhaseEncodingDirection": "COL",
      "LargestImagePixelValue": 4095,
      "MRAcquisitionType": "2D",
      "MagneticFieldStrength": 3.0,
      "Manufacturer": "SIEMENS",
      "ManufacturerModelName": "Prisma_fit",
      "Modality": "MR",
      "NumberOfAverages": 1.0,
      "NumberOfPhaseEncodingSteps": 104,
      "PercentPhaseFieldOfView": 100.0,
      "PercentSampling": 100.0,
      "PerformedProcedureStepStartTime": "145929.273000",
      "PhotometricInterpretation": "MONOCHROME2",
      "PixelBandwidth": 2290.0,
      "PixelRepresentation": 0,
      "PixelSpacing": [2.0, 2.0],
      "ProtocolName": "func_task-mario_run-03",
      "RepetitionTime": 1490.0,
      "RescaleIntercept": -4096.0,
      "RescaleSlope": 2.0,
      "RescaleType": "US",
      "Rows": 832,
      "SAR": 0.04300944483481,
      "SamplesPerPixel": 1,
      "ScanOptions": "FS",
      "ScanningSequence": "EP",
      "SequenceName": "epfid2d1_104",
      "SequenceVariant": [
        "SK",
        "SS"
],
      "SeriesDescription": "func_task-mario_run-03",
      "SeriesNumber": 17,
      "SeriesTime": "161239.872000",
      "SliceLocation": -37.648641113086,
      "SliceThickness": 2.0,
      "SmallestImagePixelValue": 0,
      "SoftwareVersions": "syngo MR E11",
      "SpacingBetweenSlices": 2.000000039188,
      "SpecificCharacterSet": "ISO_IR 100",
      "StudyID": "1",
      "StudyTime": "145929.168000",
      "TransmitCoilName": "Body",
      "VariableFlipAngleFlag": "N",
      "WindowCenterWidthExplanation": "Algo1",
      "dBdt": 0.0},
    "slices": {}
  },
  "time": {
    "samples": {
      "AcquisitionNumber": [1, 2, 3, 4, 5, 6, 7, 8, 9, 10, 11, 12, 13, 14, 15, 16, 17, 18, 19, 20, 21, 22, 23, 24, 25, 26, 27, 28, 29, 30, 31, 32, 33, 34, 35, 36, 37, 38, 39, 40, 41, 42, 43, 44, 45, 46, 47, 48, 49, 50, 51, 52, 53, 54, 55, 56, 57, 58, 59, 60, 61, 62, 63, 64, 65, 66, 67, 68, 69, 70, 71, 72, 73, 74, 75, 76, 77, 78, 79, 80, 81, 82, 83, 84, 85, 86, 87, 88, 89, 90, 91, 92, 93, 94, 95, 96, 97, 98, 99, 100, 101, 102, 103, 104, 105, 106, 107, 108, 109, 110, 111, 112, 113, 114, 115, 116, 117, 118, 119, 120, 121, 122, 123, 124, 125, 126, 127, 128, 129, 130, 131, 132, 133, 134, 135, 136, 137, 138, 139, 140, 141, 142, 143, 144, 145, 146, 147, 148, 149, 150, 151, 152, 153, 154, 155, 156, 157, 158, 159, 160, 161, 162, 163, 164, 165, 166, 167, 168, 169, 170, 171, 172, 173, 174, 175, 176, 177, 178, 179, 180, 181, 182, 183, 184, 185, 186, 187, 188, 189, 190, 191, 192, 193, 194, 195, 196, 197, 198, 199, 200, 201, 202, 203, 204, 205, 206, 207, 208, 209, 210, 211, 212, 213, 214, 215, 216, 217, 218, 219, 220, 221, 222, 223, 224, 225, 226, 227, 228, 229, 230, 231, 232, 233, 234, 235, 236, 237, 238, 239, 240, 241, 242, 243, 244, 245, 246, 247, 248, 249, 250, 251, 252, 253, 254, 255, 256, 257, 258, 259, 260, 261, 262, 263, 264, 265, 266, 267, 268, 269, 270, 271, 272, 273, 274, 275, 276, 277, 278, 279, 280, 281, 282, 283, 284, 285, 286, 287, 288, 289, 290, 291, 292, 293, 294, 295, 296, 297, 298, 299, 300, 301, 302, 303, 304, 305, 306, 307, 308, 309, 310, 311, 312, 313, 314, 315, 316, 317, 318, 319, 320, 321, 322, 323, 324, 325, 326, 327, 328, 329, 330, 331, 332, 333, 334, 335, 336, 337, 338, 339, 340, 341, 342, 343, 344, 345, 346, 347, 348, 349, 350, 351, 352, 353, 354, 355, 356, 357, 358, 359, 360, 361, 362, 363, 364, 365, 366, 367, 368, 369, 370, 371, 372, 373, 374, 375, 376, 377, 378, 379, 380, 381, 382, 383, 384, 385, 386, 387, 388, 389, 390, 391, 392, 393, 394, 395, 396, 397, 398, 399, 400, 401, 402, 403, 404, 405, 406, 407, 408, 409, 410, 411, 412, 413, 414, 415, 416, 417, 418, 419, 420, 421, 422, 423, 424, 425, 426, 427, 428, 429, 430, 431, 432, 433, 434, 435, 436, 437, 438, 439, 440, 441, 442, 443, 444, 445, 446, 447, 448],
      "AcquisitionTime": ["161112.317500", "161113.807500", "161115.297500", "161116.787500", "161118.277500", "161119.767500", "161121.257500", "161122.747500", "161124.237500", "161125.727500", "161127.217500", "161128.707500", "161130.197500", "161131.687500", "161133.177500", "161134.667500", "161136.157500", "161137.647500", "161139.137500", "161140.627500", "161142.117500", "161143.607500", "161145.097500", "161146.587500", "161148.077500", "161149.567500", "161151.057500", "161152.547500", "161154.037500", "161155.527500", "161157.017500", "161158.507500", "161159.997500", "161201.487500", "161202.977500", "161204.467500", "161205.957500", "161207.447500", "161208.937500", "161210.427500", "161211.917500", "161213.407500", "161214.897500", "161216.387500", "161217.877500", "161219.367500", "161220.857500", "161222.347500", "161223.837500", "161225.327500", "161226.817500", "161228.307500", "161229.797500", "161231.287500", "161232.777500", "161234.267500", "161235.757500", "161237.247500", "161238.737500", "161240.227500", "161241.717500", "161243.207500", "161244.697500", "161246.187500", "161247.677500", "161249.167500", "161250.657500", "161252.147500", "161253.637500", "161255.127500", "161256.617500", "161258.107500", "161259.597500", "161301.087500", "161302.577500", "161304.067500", "161305.557500", "161307.047500", "161308.537500", "161310.027500", "161311.517500", "161313.007500", "161314.497500", "161315.987500", "161317.477500", "161318.967500", "161320.457500", "161321.947500", "161323.437500", "161324.927500", "161326.417500", "161327.907500", "161329.397500", "161330.887500", "161332.377500", "161333.867500", "161335.357500", "161336.847500", "161338.337500", "161339.827500", "161341.317500", "161342.807500", "161344.297500", "161345.787500", "161347.277500", "161348.767500", "161350.257500", "161351.747500", "161353.237500", "161354.727500", "161356.217500", "161357.707500", "161359.197500", "161400.687500", "161402.177500", "161403.667500", "161405.157500", "161406.647500", "161408.137500", "161409.627500", "161411.117500", "161412.607500", "161414.097500", "161415.587500", "161417.077500", "161418.567500", "161420.057500", "161421.547500", "161423.037500", "161424.527500", "161426.017500", "161427.507500", "161428.997500", "161430.487500", "161431.977500", "161433.467500", "161434.957500", "161436.447500", "161437.937500", "161439.427500", "161440.917500", "161442.407500", "161443.897500", "161445.387500", "161446.877500", "161448.367500", "161449.857500", "161451.347500", "161452.837500", "161454.327500", "161455.817500", "161457.307500", "161458.797500", "161500.287500", "161501.777500", "161503.267500", "161504.757500", "161506.247500", "161507.737500", "161509.227500", "161510.717500", "161512.207500", "161513.697500", "161515.187500", "161516.677500", "161518.167500", "161519.657500", "161521.147500", "161522.637500", "161524.127500", "161525.617500", "161527.107500", "161528.597500", "161530.087500", "161531.577500", "161533.067500", "161534.557500", "161536.047500", "161537.537500", "161539.027500", "161540.517500", "161542.007500", "161543.497500", "161544.987500", "161546.477500", "161547.967500", "161549.457500", "161550.947500", "161552.437500", "161553.927500", "161555.417500", "161556.907500", "161558.397500", "161559.887500", "161601.377500", "161602.867500", "161604.357500", "161605.847500", "161607.337500", "161608.827500", "161610.317500", "161611.807500", "161613.297500", "161614.787500", "161616.277500", "161617.767500", "161619.257500", "161620.747500", "161622.237500", "161623.727500", "161625.217500", "161626.707500", "161628.197500", "161629.687500", "161631.177500", "161632.667500", "161634.157500", "161635.647500", "161637.137500", "161638.627500", "161640.117500", "161641.607500", "161643.097500", "161644.587500", "161646.077500", "161647.567500", "161649.057500", "161650.547500", "161652.037500", "161653.527500", "161655.017500", "161656.507500", "161657.997500", "161659.487500", "161700.977500", "161702.467500", "161703.957500", "161705.447500", "161706.937500", "161708.427500", "161709.917500", "161711.407500", "161712.897500", "161714.387500", "161715.877500", "161717.367500", "161718.857500", "161720.347500", "161721.837500", "161723.327500", "161724.817500", "161726.307500", "161727.797500", "161729.287500", "161730.777500", "161732.267500", "161733.757500", "161735.247500", "161736.737500", "161738.227500", "161739.717500", "161741.207500", "161742.697500", "161744.187500", "161745.677500", "161747.167500", "161748.657500", "161750.147500", "161751.637500", "161753.127500", "161754.617500", "161756.107500", "161757.597500", "161759.087500", "161800.577500", "161802.067500", "161803.557500", "161805.047500", "161806.537500", "161808.027500", "161809.517500", "161811.007500", "161812.497500", "161813.987500", "161815.477500", "161816.967500", "161818.457500", "161819.947500", "161821.437500", "161822.927500", "161824.417500", "161825.907500", "161827.397500", "161828.887500", "161830.377500", "161831.867500", "161833.357500", "161834.847500", "161836.337500", "161837.827500", "161839.317500", "161840.807500", "161842.297500", "161843.787500", "161845.277500", "161846.767500", "161848.257500", "161849.747500", "161851.237500", "161852.727500", "161854.217500", "161855.707500", "161857.197500", "161858.687500", "161900.177500", "161901.667500", "161903.157500", "161904.647500", "161906.137500", "161907.627500", "161909.117500", "161910.607500", "161912.097500", "161913.587500", "161915.077500", "161916.567500", "161918.057500", "161919.547500", "161921.037500", "161922.527500", "161924.017500", "161925.507500", "161926.997500", "161928.487500", "161929.977500", "161931.467500", "161932.957500", "161934.447500", "161935.937500", "161937.427500", "161938.917500", "161940.407500", "161941.897500", "161943.387500", "161944.877500", "161946.367500", "161947.857500", "161949.347500", "161950.837500", "161952.327500", "161953.817500", "161955.307500", "161956.797500", "161958.287500", "161959.777500", "162001.267500", "162002.757500", "162004.247500", "162005.737500", "162007.227500", "162008.717500", "162010.207500", "162011.697500", "162013.187500", "162014.677500", "162016.167500", "162017.657500", "162019.147500", "162020.637500", "162022.127500", "162023.617500", "162025.107500", "162026.597500", "162028.087500", "162029.577500", "162031.067500", "162032.557500", "162034.047500", "162035.537500", "162037.027500", "162038.517500", "162040.007500", "162041.497500", "162042.987500", "162044.477500", "162045.967500", "162047.457500", "162048.947500", "162050.437500", "162051.927500", "162053.417500", "162054.907500", "162056.397500", "162057.887500", "162059.377500", "162100.867500", "162102.357500", "162103.847500", "162105.337500", "162106.827500", "162108.317500", "162109.807500", "162111.297500", "162112.787500", "162114.277500", "162115.767500", "162117.257500", "162118.747500", "162120.237500", "162121.727500", "162123.217500", "162124.707500", "162126.197500", "162127.687500", "162129.177500", "162130.667500", "162132.157500", "162133.647500", "162135.137500", "162136.627500", "162138.117500", "162139.607500", "162141.097500", "162142.587500", "162144.077500", "162145.567500", "162147.057500", "162148.547500", "162150.037500", "162151.527500", "162153.017500", "162154.507500", "162155.997500", "162157.487500", "162158.977500", "162200.467500", "162201.957500", "162203.447500", "162204.937500", "162206.427500", "162207.917500", "162209.407500", "162210.897500", "162212.387500", "162213.877500", "162215.367500", "162216.857500", "162218.347500"],
      "ContentTime": ["161239.874000", "161239.877000", "161239.879000", "161239.882000", "161239.884000", "161239.887000", "161239.890000", "161239.892000", "161239.896000", "161239.898000", "161239.901000", "161239.903000", "161239.906000", "161239.908000", "161239.911000", "161239.914000", "161239.916000", "161239.919000", "161239.921000", "161239.924000", "161239.926000", "161239.929000", "161239.931000", "161239.934000", "161239.936000", "161239.939000", "161239.941000", "161239.944000", "161239.946000", "161239.949000", "161239.951000", "161239.954000", "161239.956000", "161239.959000", "161239.961000", "161259.769000", "161259.870000", "161259.873000", "161259.876000", "161259.878000", "161259.881000", "161259.883000", "161259.886000", "161259.888000", "161259.891000", "161259.894000", "161259.896000", "161259.899000", "161259.901000", "161259.904000", "161259.906000", "161259.909000", "161259.911000", "161259.914000", "161259.917000", "161320.201000", "161320.204000", "161320.206000", "161320.209000", "161320.211000", "161320.214000", "161320.217000", "161320.219000", "161320.222000", "161320.224000", "161320.227000", "161320.230000", "161320.232000", "161320.235000", "161320.237000", "161320.240000", "161320.243000", "161320.245000", "161320.248000", "161320.250000", "161339.806000", "161339.809000", "161339.811000", "161339.814000", "161339.816000", "161339.819000", "161339.822000", "161339.824000", "161339.827000", "161339.829000", "161339.832000", "161339.834000", "161339.837000", "161339.840000", "161339.842000", "161339.845000", "161339.848000", "161339.850000", "161339.853000", "161339.855000", "161339.858000", "161419.804000", "161419.807000", "161419.809000", "161419.812000", "161419.814000", "161419.817000", "161419.819000", "161419.822000", "161419.824000", "161419.827000", "161419.830000", "161419.832000", "161419.835000", "161419.837000", "161419.840000", "161419.842000", "161419.845000", "161419.847000", "161419.850000", "161419.852000", "161419.855000", "161419.858000", "161419.860000", "161419.866000", "161419.869000", "161419.871000", "161419.874000", "161419.876000", "161419.879000", "161459.794000", "161459.796000", "161459.799000", "161459.802000", "161459.804000", "161459.807000", "161459.809000", "161459.812000", "161459.814000", "161459.817000", "161459.819000", "161459.822000", "161459.825000", "161459.827000", "161459.830000", "161459.832000", "161459.835000", "161459.837000", "161459.840000", "161459.842000", "161459.845000", "161459.847000", "161459.850000", "161459.852000", "161459.855000", "161459.858000", "161459.860000", "161539.796000", "161539.798000", "161539.801000", "161539.803000", "161539.806000", "161539.808000", "161539.811000", "161539.813000", "161539.816000", "161539.819000", "161539.821000", "161539.824000", "161539.826000", "161539.829000", "161539.831000", "161539.834000", "161539.836000", "161539.839000", "161539.841000", "161539.844000", "161539.847000", "161539.849000", "161539.852000", "161539.854000", "161539.857000", "161539.859000", "161539.862000", "161559.736000", "161559.739000", "161559.742000", "161559.744000", "161559.747000", "161559.749000", "161559.752000", "161559.754000", "161559.757000", "161559.760000", "161559.762000", "161559.765000", "161559.767000", "161639.797000", "161639.799000", "161639.802000", "161639.804000", "161639.807000", "161639.809000", "161639.812000", "161639.815000", "161639.817000", "161639.820000", "161639.822000", "161639.825000", "161639.827000", "161639.830000", "161639.832000", "161639.835000", "161639.837000", "161639.840000", "161639.842000", "161639.845000", "161639.848000", "161639.850000", "161639.853000", "161639.855000", "161639.858000", "161639.860000", "161639.863000", "161719.800000", "161719.803000", "161719.805000", "161719.808000", "161719.810000", "161719.813000", "161719.815000", "161719.818000", "161719.820000", "161719.823000", "161719.826000", "161719.828000", "161719.831000", "161719.833000", "161719.836000", "161719.838000", "161719.841000", "161719.843000", "161719.846000", "161719.849000", "161719.851000", "161719.854000", "161719.856000", "161719.859000", "161719.861000", "161719.864000", "161719.866000", "161759.875000", "161759.878000", "161759.880000", "161759.883000", "161759.885000", "161759.888000", "161759.890000", "161759.893000", "161759.896000", "161759.898000", "161759.901000", "161759.903000", "161759.906000", "161759.908000", "161759.911000", "161759.914000", "161759.916000", "161759.919000", "161759.921000", "161759.924000", "161759.926000", "161759.940000", "161759.942000", "161759.945000", "161759.947000", "161759.950000", "161759.952000", "161839.809000", "161839.812000", "161839.814000", "161839.817000", "161839.819000", "161839.822000", "161839.824000", "161839.827000", "161839.830000", "161839.832000", "161839.835000", "161839.837000", "161839.840000", "161839.843000", "161839.845000", "161839.848000", "161839.850000", "161839.853000", "161839.855000", "161839.858000", "161839.860000", "161839.871000", "161839.873000", "161839.876000", "161839.878000", "161839.881000", "161919.806000", "161919.809000", "161919.811000", "161919.814000", "161919.824000", "161919.826000", "161919.829000", "161919.831000", "161919.834000", "161919.836000", "161919.839000", "161919.842000", "161919.844000", "161919.847000", "161919.849000", "161919.852000", "161919.855000", "161919.857000", "161919.860000", "161919.862000", "161919.865000", "161919.868000", "161919.871000", "161919.874000", "161919.876000", "161919.879000", "161919.881000", "161959.835000", "161959.840000", "161959.843000", "161959.846000", "161959.848000", "161959.851000", "161959.853000", "161959.856000", "161959.858000", "161959.861000", "161959.863000", "161959.866000", "161959.869000", "161959.871000", "161959.874000", "161959.876000", "161959.879000", "161959.881000", "161959.884000", "161959.887000", "161959.889000", "161959.892000", "161959.903000", "161959.905000", "161959.908000", "161959.910000", "161959.913000", "162039.839000", "162039.842000", "162039.844000", "162039.847000", "162039.857000", "162039.859000", "162039.862000", "162039.864000", "162039.867000", "162039.870000", "162039.872000", "162039.875000", "162039.878000", "162039.880000", "162039.883000", "162039.885000", "162039.888000", "162039.890000", "162039.893000", "162039.896000", "162039.899000", "162039.901000", "162039.904000", "162039.907000", "162039.909000", "162039.912000", "162039.914000", "162119.802000", "162119.804000", "162119.807000", "162119.810000", "162119.812000", "162119.815000", "162119.817000", "162119.820000", "162119.823000", "162119.825000", "162119.828000", "162119.830000", "162119.833000", "162119.836000", "162119.838000", "162119.841000", "162119.844000", "162119.846000", "162119.849000", "162119.851000", "162119.854000", "162119.856000", "162119.859000", "162119.862000", "162119.864000", "162119.867000", "162119.869000", "162159.804000", "162159.807000", "162159.810000", "162159.812000", "162159.815000", "162159.817000", "162159.820000", "162159.823000", "162159.825000", "162159.828000", "162159.830000", "162159.833000", "162159.835000", "162159.838000", "162159.841000", "162159.843000", "162159.846000", "162159.848000", "162159.851000", "162159.854000", "162159.856000", "162159.859000", "162159.861000", "162159.864000", "162159.866000", "162159.869000", "162159.872000", "162221.508000", "162221.511000", "162221.514000", "162221.516000", "162221.519000", "162221.522000", "162221.524000", "162221.527000", "162221.530000", "162221.532000", "162221.535000", "162221.538000", "162221.540000", "162221.543000"],
