{
  "AcquisitionMatrixPE": 104,
  "AcquisitionNumber": 1,
  "AcquisitionTime": "13:42:10.790000",
  "BandwidthPerPixelPhaseEncode": 17.17,
  "BaseResolution": 104,
  "BodyPartExamined": "BRAIN",
  "CoilCombinationMethod": "Sum of Squares",
  "ConsistencyInfo": "N4_VE11C_LATEST_20160120",
  "ConversionSoftware": "dcm2niix",
  "ConversionSoftwareVersion": "v1.0.20211006",
  "DerivedVendorReportedEchoSpacing": 0.000560011,
  "DeviceSerialNumber": "167006",
  "DwellTime": 2.1e-06,
  "EchoTime": 0.037,
  "EchoTrainLength": 104,
  "EffectiveEchoSpacing": 0.000560011,
  "FlipAngle": 52,
  "HeudiconvVersion": "0.5.3.post569+g418601f",
  "ImageComments": "Unaliased MB4/PE3/LB",
  "ImageOrientationPatientDICOM": [0.999739, 0.00107337, 0.0228181, 0.00401324, 0.975106, -0.221703],
  "ImageOrientationText": "Tra>Cor(-12.8)>Sag(1.3)",
  "ImageType": [
    "ORIGINAL",
    "PRIMARY",
    "M",
    "MB",
    "ND",
    "MOSAIC"
],
  "ImagingFrequency": 123.259,
  "InPlanePhaseEncodingDirectionDICOM": "COL",
  "InstitutionAddress": "Chemin Queen-Mary 4565,Montreal,District,CA,H3W 1W5",
  "InstitutionName": "IUGM",
  "InstitutionalDepartmentName": "Department",
  "MRAcquisitionType": "2D",
  "MagneticFieldStrength": 3,
  "Manufacturer": "Siemens",
  "ManufacturersModelName": "Prisma_fit",
  "MatrixCoilMode": "SENSE",
  "Modality": "MR",
  "MultibandAccelerationFactor": 4,
  "PartialFourier": 1,
  "PatientPosition": "HFS",
  "PercentPhaseFOV": 100,
  "PercentSampling": 100,
  "PhaseEncodingDirection": "j",
  "PhaseEncodingSteps": 104,
  "PhaseResolution": 1,
  "PixelBandwidth": 2290,
  "ProcedureStepDescription": "games^mario",
  "ProtocolName": "func_task-mario_run-01",
  "PulseSequenceDetails": "%CustomerSeq%\\cmrr_mbep2d_bold",
  "ReceiveCoilActiveElements": "HC1-7;NC1,2",
  "ReceiveCoilName": "HeadNeck_64",
  "ReconMatrixPE": 104,
  "RepetitionTime": 1.49,
  "SAR": 0.0344407,
  "ScanOptions": "FS",
  "ScanningSequence": "EP",
  "SequenceName": "epfid2d1_104",
  "SequenceVariant": "SK\\SS",
  "SeriesDescription": "func_task-mario_run-01",
  "SeriesNumber": 10,
  "ShimSetting": [636, -7223, -8770, 753, 39, -28, 73, 0],
  "SliceThickness": 2,
  "SliceTiming": [0, 0.7825, 0.0975, 0.8825, 0.195, 0.98, 0.2925, 1.0775, 0.3925, 1.175, 0.49, 1.2725, 0.5875, 1.3725, 0.685, 0, 0.7825, 0.0975, 0.8825, 0.195, 0.98, 0.2925, 1.0775, 0.3925, 1.175, 0.49, 1.2725, 0.5875, 1.3725, 0.685, 0, 0.7825, 0.0975, 0.8825, 0.195, 0.98, 0.2925, 1.0775, 0.3925, 1.175, 0.49, 1.2725, 0.5875, 1.3725, 0.685, 0, 0.7825, 0.0975, 0.8825, 0.195, 0.98, 0.2925, 1.0775, 0.3925, 1.175, 0.49, 1.2725, 0.5875, 1.3725, 0.685],
  "SoftwareVersions": "syngo MR E11",
  "SpacingBetweenSlices": 2,
  "StationName": "MRC35049",
  "TaskName": "mario",
  "TotalReadoutTime": 0.0576811,
  "TxRefAmp": 207.499,
  "WipMemBlock": "e9922559-4701-4648-9a9a-47721ec05ec9||Sequence: R016 ve11c/master r/e634e98; Dec 19 2017 11:00:25 by eja",
  "dcmmeta_affine": [
    [-1.9994781017303467, 0.0080264862626791, 0.04497609660029411, 107.69956970214844],
    [-0.0021467332262545824, 1.950212001800537, -0.443473219871521, -76.26214599609375],
    [0.04563622921705246, 0.44340580701828003, 1.9496943950653076, -57.22793960571289],
    [0.0, 0.0, 0.0, 1.0]
],
  "dcmmeta_reorient_transform": [
    [0.0, -1.0, 0.0, 103.0],
    [1.0, 0.0, 0.0, 0.0],
    [0.0, 0.0, 1.0, 0.0],
    [0.0, 0.0, 0.0, 1.0]
],
  "dcmmeta_shape": [104, 104, 60, 476],
  "dcmmeta_slice_dim": 2,
  "dcmmeta_version": 0.6,
  "global": {
    "const": {
      "AcquisitionMatrix": [104, 0, 0, 104],
      "AngioFlag": "N",
      "BitsAllocated": 16,
      "BitsStored": 16,
      "BodyPartExamined": "BRAIN",
      "Columns": 832,
      "EchoNumbers": 1,
      "EchoTime": 37.0,
      "EchoTrainLength": 104,
      "FlipAngle": 52.0,
      "HighBit": 15,
      "ImageOrientationPatient": [0.99973905671717, 0.00107336662879, 0.02281811469746, 0.00401324323537, 0.97510600298849, -0.2217029021338],
      "ImagePositionPatient": [-839.25797236789, -835.26827165439, 133.23098180059],
      "ImageType": [
        "ORIGINAL",
        "PRIMARY",
        "M",
        "MB",
        "ND",
        "MOSAIC"
],
      "ImagedNucleus": "1H",
      "ImagingFrequency": 123.258827,
      "InPlanePhaseEncodingDirection": "COL",
      "MRAcquisitionType": "2D",
      "MagneticFieldStrength": 3.0,
      "Manufacturer": "SIEMENS",
      "ManufacturerModelName": "Prisma_fit",
      "Modality": "MR",
      "NumberOfAverages": 1.0,
      "NumberOfPhaseEncodingSteps": 104,
      "PercentPhaseFieldOfView": 100.0,
      "PercentSampling": 100.0,
      "PerformedProcedureStepStartTime": "133652.636000",
      "PhotometricInterpretation": "MONOCHROME2",
      "PixelBandwidth": 2290.0,
      "PixelRepresentation": 0,
      "PixelSpacing": [2.0, 2.0],
      "ProtocolName": "func_task-mario_run-01",
      "RepetitionTime": 1490.0,
      "Rows": 832,
      "SAR": 0.03444067182026,
      "SamplesPerPixel": 1,
      "ScanOptions": "FS",
      "ScanningSequence": "EP",
      "SequenceName": "epfid2d1_104",
      "SequenceVariant": [
        "SK",
        "SS"
],
      "SeriesDescription": "func_task-mario_run-01",
      "SeriesNumber": 10,
      "SeriesTime": "134333.212000",
      "SliceLocation": -36.456436986462,
      "SliceThickness": 2.0,
      "SmallestImagePixelValue": 0,
      "SoftwareVersions": "syngo MR E11",
      "SpacingBetweenSlices": 1.999999928449,
      "SpecificCharacterSet": "ISO_IR 100",
      "StudyID": "1",
      "StudyTime": "133652.490000",
      "TransmitCoilName": "Body",
      "VariableFlipAngleFlag": "N",
      "WindowCenterWidthExplanation": "Algo1",
      "dBdt": 0.0},
    "slices": {}
  },
  "time": {
    "samples": {
      "AcquisitionNumber": [1, 2, 3, 4, 5, 6, 7, 8, 9, 10, 11, 12, 13, 14, 15, 16, 17, 18, 19, 20, 21, 22, 23, 24, 25, 26, 27, 28, 29, 30, 31, 32, 33, 34, 35, 36, 37, 38, 39, 40, 41, 42, 43, 44, 45, 46, 47, 48, 49, 50, 51, 52, 53, 54, 55, 56, 57, 58, 59, 60, 61, 62, 63, 64, 65, 66, 67, 68, 69, 70, 71, 72, 73, 74, 75, 76, 77, 78, 79, 80, 81, 82, 83, 84, 85, 86, 87, 88, 89, 90, 91, 92, 93, 94, 95, 96, 97, 98, 99, 100, 101, 102, 103, 104, 105, 106, 107, 108, 109, 110, 111, 112, 113, 114, 115, 116, 117, 118, 119, 120, 121, 122, 123, 124, 125, 126, 127, 128, 129, 130, 131, 132, 133, 134, 135, 136, 137, 138, 139, 140, 141, 142, 143, 144, 145, 146, 147, 148, 149, 150, 151, 152, 153, 154, 155, 156, 157, 158, 159, 160, 161, 162, 163, 164, 165, 166, 167, 168, 169, 170, 171, 172, 173, 174, 175, 176, 177, 178, 179, 180, 181, 182, 183, 184, 185, 186, 187, 188, 189, 190, 191, 192, 193, 194, 195, 196, 197, 198, 199, 200, 201, 202, 203, 204, 205, 206, 207, 208, 209, 210, 211, 212, 213, 214, 215, 216, 217, 218, 219, 220, 221, 222, 223, 224, 225, 226, 227, 228, 229, 230, 231, 232, 233, 234, 235, 236, 237, 238, 239, 240, 241, 242, 243, 244, 245, 246, 247, 248, 249, 250, 251, 252, 253, 254, 255, 256, 257, 258, 259, 260, 261, 262, 263, 264, 265, 266, 267, 268, 269, 270, 271, 272, 273, 274, 275, 276, 277, 278, 279, 280, 281, 282, 283, 284, 285, 286, 287, 288, 289, 290, 291, 292, 293, 294, 295, 296, 297, 298, 299, 300, 301, 302, 303, 304, 305, 306, 307, 308, 309, 310, 311, 312, 313, 314, 315, 316, 317, 318, 319, 320, 321, 322, 323, 324, 325, 326, 327, 328, 329, 330, 331, 332, 333, 334, 335, 336, 337, 338, 339, 340, 341, 342, 343, 344, 345, 346, 347, 348, 349, 350, 351, 352, 353, 354, 355, 356, 357, 358, 359, 360, 361, 362, 363, 364, 365, 366, 367, 368, 369, 370, 371, 372, 373, 374, 375, 376, 377, 378, 379, 380, 381, 382, 383, 384, 385, 386, 387, 388, 389, 390, 391, 392, 393, 394, 395, 396, 397, 398, 399, 400, 401, 402, 403, 404, 405, 406, 407, 408, 409, 410, 411, 412, 413, 414, 415, 416, 417, 418, 419, 420, 421, 422, 423, 424, 425, 426, 427, 428, 429, 430, 431, 432, 433, 434, 435, 436, 437, 438, 439, 440, 441, 442, 443, 444, 445, 446, 447, 448, 449, 450, 451, 452, 453, 454, 455, 456, 457, 458, 459, 460, 461, 462, 463, 464, 465, 466, 467, 468, 469, 470, 471, 472, 473, 474, 475, 476],
      "AcquisitionTime": ["134210.790000", "134212.280000", "134213.770000", "134215.260000", "134216.750000", "134218.240000", "134219.730000", "134221.220000", "134222.710000", "134224.200000", "134225.690000", "134227.180000", "134228.670000", "134230.160000", "134231.650000", "134233.140000", "134234.630000", "134236.120000", "134237.610000", "134239.100000", "134240.590000", "134242.080000", "134243.570000", "134245.060000", "134246.550000", "134248.040000", "134249.530000", "134251.020000", "134252.510000", "134254.000000", "134255.490000", "134256.980000", "134258.470000", "134259.960000", "134301.450000", "134302.940000", "134304.430000", "134305.920000", "134307.410000", "134308.900000", "134310.390000", "134311.880000", "134313.370000", "134314.860000", "134316.350000", "134317.840000", "134319.330000", "134320.820000", "134322.310000", "134323.800000", "134325.290000", "134326.780000", "134328.270000", "134329.760000", "134331.250000", "134332.740000", "134334.230000", "134335.720000", "134337.210000", "134338.700000", "134340.190000", "134341.680000", "134343.170000", "134344.660000", "134346.150000", "134347.640000", "134349.130000", "134350.620000", "134352.110000", "134353.600000", "134355.090000", "134356.580000", "134358.070000", "134359.560000", "134401.050000", "134402.540000", "134404.030000", "134405.520000", "134407.010000", "134408.500000", "134409.990000", "134411.480000", "134412.970000", "134414.460000", "134415.950000", "134417.440000", "134418.930000", "134420.420000", "134421.910000", "134423.400000", "134424.890000", "134426.380000", "134427.870000", "134429.360000", "134430.850000", "134432.340000", "134433.830000", "134435.320000", "134436.810000", "134438.300000", "134439.790000", "134441.280000", "134442.770000", "134444.260000", "134445.750000", "134447.240000", "134448.730000", "134450.220000", "134451.710000", "134453.200000", "134454.690000", "134456.180000", "134457.670000", "134459.160000", "134500.650000", "134502.140000", "134503.630000", "134505.120000", "134506.610000", "134508.100000", "134509.590000", "134511.080000", "134512.570000", "134514.060000", "134515.550000", "134517.040000", "134518.530000", "134520.020000", "134521.510000", "134523.000000", "134524.490000", "134525.980000", "134527.470000", "134528.960000", "134530.450000", "134531.940000", "134533.430000", "134534.920000", "134536.410000", "134537.900000", "134539.390000", "134540.880000", "134542.370000", "134543.860000", "134545.350000", "134546.840000", "134548.330000", "134549.820000", "134551.310000", "134552.800000", "134554.290000", "134555.780000", "134557.270000", "134558.760000", "134600.250000", "134601.740000", "134603.230000", "134604.720000", "134606.210000", "134607.700000", "134609.190000", "134610.680000", "134612.170000", "134613.660000", "134615.150000", "134616.640000", "134618.130000", "134619.620000", "134621.110000", "134622.600000", "134624.090000", "134625.580000", "134627.070000", "134628.560000", "134630.050000", "134631.540000", "134633.030000", "134634.520000", "134636.010000", "134637.500000", "134638.990000", "134640.480000", "134641.970000", "134643.460000", "134644.950000", "134646.440000", "134647.930000", "134649.420000", "134650.910000", "134652.400000", "134653.890000", "134655.380000", "134656.870000", "134658.360000", "134659.850000", "134701.340000", "134702.830000", "134704.320000", "134705.810000", "134707.300000", "134708.790000", "134710.280000", "134711.770000", "134713.260000", "134714.750000", "134716.240000", "134717.730000", "134719.220000", "134720.710000", "134722.200000", "134723.690000", "134725.180000", "134726.670000", "134728.160000", "134729.650000", "134731.140000", "134732.630000", "134734.120000", "134735.610000", "134737.100000", "134738.590000", "134740.080000", "134741.570000", "134743.060000", "134744.550000", "134746.040000", "134747.530000", "134749.020000", "134750.510000", "134752.000000", "134753.490000", "134754.980000", "134756.470000", "134757.960000", "134759.450000", "134800.940000", "134802.430000", "134803.920000", "134805.410000", "134806.900000", "134808.390000", "134809.880000", "134811.370000", "134812.860000", "134814.350000", "134815.840000", "134817.330000", "134818.820000", "134820.310000", "134821.800000", "134823.290000", "134824.780000", "134826.270000", "134827.760000", "134829.250000", "134830.740000", "134832.230000", "134833.720000", "134835.210000", "134836.700000", "134838.190000", "134839.680000", "134841.170000", "134842.660000", "134844.150000", "134845.640000", "134847.130000", "134848.620000", "134850.110000", "134851.600000", "134853.090000", "134854.580000", "134856.070000", "134857.560000", "134859.050000", "134900.540000", "134902.030000", "134903.520000", "134905.010000", "134906.500000", "134907.990000", "134909.480000", "134910.970000", "134912.460000", "134913.950000", "134915.440000", "134916.930000", "134918.420000", "134919.910000", "134921.400000", "134922.890000", "134924.380000", "134925.870000", "134927.360000", "134928.850000", "134930.340000", "134931.830000", "134933.320000", "134934.810000", "134936.300000", "134937.790000", "134939.280000", "134940.770000", "134942.260000", "134943.750000", "134945.240000", "134946.730000", "134948.220000", "134949.710000", "134951.200000", "134952.690000", "134954.180000", "134955.670000", "134957.160000", "134958.650000", "135000.140000", "135001.630000", "135003.120000", "135004.610000", "135006.100000", "135007.590000", "135009.080000", "135010.570000", "135012.060000", "135013.550000", "135015.040000", "135016.530000", "135018.020000", "135019.510000", "135021.000000", "135022.490000", "135023.980000", "135025.470000", "135026.960000", "135028.450000", "135029.940000", "135031.430000", "135032.920000", "135034.410000", "135035.900000", "135037.390000", "135038.880000", "135040.370000", "135041.860000", "135043.350000", "135044.840000", "135046.330000", "135047.820000", "135049.310000", "135050.800000", "135052.290000", "135053.780000", "135055.270000", "135056.760000", "135058.250000", "135059.740000", "135101.230000", "135102.720000", "135104.210000", "135105.700000", "135107.190000", "135108.680000", "135110.170000", "135111.660000", "135113.150000", "135114.640000", "135116.130000", "135117.620000", "135119.110000", "135120.600000", "135122.090000", "135123.580000", "135125.070000", "135126.560000", "135128.050000", "135129.540000", "135131.030000", "135132.520000", "135134.010000", "135135.500000", "135136.990000", "135138.480000", "135139.970000", "135141.460000", "135142.950000", "135144.440000", "135145.930000", "135147.420000", "135148.910000", "135150.400000", "135151.890000", "135153.380000", "135154.870000", "135156.360000", "135157.850000", "135159.340000", "135200.830000", "135202.320000", "135203.810000", "135205.300000", "135206.790000", "135208.280000", "135209.770000", "135211.260000", "135212.750000", "135214.240000", "135215.730000", "135217.220000", "135218.710000", "135220.200000", "135221.690000", "135223.180000", "135224.670000", "135226.160000", "135227.650000", "135229.140000", "135230.630000", "135232.120000", "135233.610000", "135235.100000", "135236.590000", "135238.080000", "135239.570000", "135241.060000", "135242.550000", "135244.040000", "135245.530000", "135247.020000", "135248.510000", "135250.000000", "135251.490000", "135252.980000", "135254.470000", "135255.960000", "135257.450000", "135258.940000", "135300.430000", "135301.920000", "135303.410000", "135304.900000", "135306.390000", "135307.880000", "135309.370000", "135310.860000", "135312.350000", "135313.840000", "135315.330000", "135316.820000", "135318.310000", "135319.800000", "135321.290000", "135322.780000", "135324.270000", "135325.760000", "135327.250000", "135328.740000", "135330.230000", "135331.720000", "135333.210000", "135334.700000", "135336.190000", "135337.680000", "135339.170000", "135340.660000", "135342.150000", "135343.640000", "135345.130000", "135346.620000", "135348.110000", "135349.600000", "135351.090000", "135352.580000", "135354.070000", "135355.560000", "135357.050000", "135358.540000"],
      "ContentTime": ["134333.215000", "134333.219000", "134333.222000", "134333.225000", "134333.229000", "134333.233000", "134333.237000", "134333.241000", "134333.244000", "134333.248000", "134333.251000", "134333.255000", "134333.258000", "134333.262000", "134333.265000", "134333.268000", "134333.272000", "134333.275000", "134333.279000", "134333.282000", "134333.286000", "134333.289000", "134333.293000", "134333.296000", "134333.300000", "134333.303000", "134353.163000", "134353.167000", "134353.171000", "134353.174000", "134353.177000", "134353.181000", "134353.185000", "134353.188000", "134353.191000", "134353.195000", "134353.201000", "134353.204000", "134353.208000", "134353.211000", "134353.215000", "134353.218000", "134353.222000", "134353.225000", "134353.228000", "134353.232000", "134413.163000", "134413.167000", "134413.171000", "134413.174000", "134413.177000", "134413.181000", "134413.184000", "134413.188000", "134413.191000", "134413.194000", "134413.198000", "134413.201000", "134413.205000", "134413.208000", "134413.212000", "134413.215000", "134413.218000", "134413.222000", "134413.225000", "134413.229000", "134433.163000", "134433.167000", "134433.171000", "134433.174000", "134433.177000", "134433.181000", "134433.184000", "134433.188000", "134433.191000", "134433.195000", "134433.198000", "134433.201000", "134433.205000", "134433.208000", "134433.212000", "134433.215000", "134433.219000", "134433.222000", "134433.226000", "134433.229000", "134453.163000", "134453.167000", "134453.171000", "134453.174000", "134453.177000", "134453.181000", "134453.184000", "134453.188000", "134453.191000", "134453.195000", "134453.198000", "134453.202000", "134453.205000", "134453.208000", "134453.212000", "134453.215000", "134453.219000", "134453.222000", "134453.225000", "134453.229000", "134533.164000", "134533.168000", "134533.172000", "134533.175000", "134533.179000", "134533.182000", "134533.186000", "134533.189000", "134533.202000", "134533.206000", "134533.209000", "134533.213000", "134533.216000", "134533.220000", "134533.224000", "134533.227000", "134533.231000", "134533.234000", "134533.238000", "134533.241000", "134533.244000", "134533.248000", "134533.251000", "134533.255000", "134533.258000", "134533.262000", "134533.265000", "134533.269000", "134533.272000", "134613.163000", "134613.167000", "134613.171000", "134613.174000", "134613.178000", "134613.181000", "134613.185000", "134613.188000", "134613.192000", "134613.195000", "134613.198000", "134613.202000", "134613.205000", "134613.209000", "134613.212000", "134613.216000", "134613.219000", "134613.223000", "134613.226000", "134613.229000", "134613.233000", "134613.236000", "134613.240000", "134613.243000", "134613.247000", "134613.250000", "134613.254000", "134653.163000", "134653.167000", "134653.179000", "134653.182000", "134653.185000", "134653.189000", "134653.192000", "134653.196000", "134653.199000", "134653.203000", "134653.206000", "134653.210000", "134653.213000", "134653.217000", "134653.220000", "134653.224000", "134653.227000", "134653.230000", "134653.234000", "134653.237000", "134653.241000", "134653.244000", "134653.248000", "134653.251000", "134653.255000", "134653.258000", "134653.262000", "134733.164000", "134733.168000", "134733.172000", "134733.175000", "134733.179000", "134733.182000", "134733.186000", "134733.189000", "134733.202000", "134733.206000", "134733.209000", "134733.212000", "134733.216000", "134733.219000", "134733.223000", "134733.226000", "134733.230000", "134733.233000", "134733.237000", "134733.240000", "134733.244000", "134733.247000", "134733.251000", "134733.254000", "134733.258000", "134733.261000", "134813.164000", "134813.169000", "134813.172000", "134813.176000", "134813.179000", "134813.192000", "134813.201000", "134813.204000", "134813.208000", "134813.211000", "134813.215000", "134813.218000", "134813.222000", "134813.225000", "134813.229000", "134813.232000", "134813.236000", "134813.239000", "134813.243000", "134813.246000", "134813.250000", "134813.253000", "134813.257000", "134813.260000", "134813.263000", "134813.267000", "134813.270000", "134853.163000", "134853.167000", "134853.171000", "134853.175000", "134853.178000", "134853.182000", "134853.185000", "134853.189000", "134853.192000", "134853.196000", "134853.199000", "134853.203000", "134853.206000", "134853.209000", "134853.213000", "134853.216000", "134853.220000", "134853.223000", "134853.227000", "134853.245000", "134853.249000", "134853.252000", "134853.256000", "134853.270000", "134853.273000", "134853.276000", "134853.280000", "134933.163000", "134933.167000", "134933.170000", "134933.174000", "134933.178000", "134933.181000", "134933.184000", "134933.188000", "134933.191000", "134933.195000", "134933.198000", "134933.202000", "134933.205000", "134933.209000", "134933.212000", "134933.215000", "134933.219000", "134933.222000", "134933.226000", "134933.229000", "134933.233000", "134933.236000", "134933.240000", "134933.243000", "134933.247000", "134933.250000", "134933.253000", "135013.165000", "135013.169000", "135013.172000", "135013.176000", "135013.188000", "135013.192000", "135013.195000", "135013.199000", "135013.202000", "135013.206000", "135013.209000", "135013.213000", "135013.216000", "135013.220000", "135013.223000", "135013.227000", "135013.230000", "135013.233000", "135013.237000", "135013.240000", "135013.244000", "135013.247000", "135013.251000", "135013.254000", "135013.258000", "135013.261000", "135013.265000", "135053.163000", "135053.167000", "135053.171000", "135053.174000", "135053.178000", "135053.181000", "135053.185000", "135053.188000", "135053.196000", "135053.200000", "135053.203000", "135053.207000", "135053.210000", "135053.214000", "135053.217000", "135053.221000", "135053.224000", "135053.228000", "135053.231000", "135053.234000", "135053.238000", "135053.241000", "135053.245000", "135053.248000", "135053.252000", "135053.255000", "135053.259000", "135133.163000", "135133.167000", "135133.171000", "135133.175000", "135133.178000", "135133.181000", "135133.185000", "135133.189000", "135133.192000", "135133.196000", "135133.199000", "135133.202000", "135133.206000", "135133.209000", "135133.213000", "135133.216000", "135133.220000", "135133.223000", "135133.227000", "135133.230000", "135133.234000", "135133.237000", "135133.241000", "135133.244000", "135133.248000", "135133.257000", "135133.260000", "135213.165000", "135213.168000", "135213.172000", "135213.179000", "135213.183000", "135213.186000", "135213.190000", "135213.193000", "135213.197000", "135213.200000", "135213.204000", "135213.207000", "135213.211000", "135213.214000", "135213.218000", "135213.221000", "135213.225000", "135213.228000", "135213.232000", "135213.235000", "135213.239000", "135213.243000", "135213.247000", "135213.250000", "135213.253000", "135213.257000", "135253.164000", "135253.168000", "135253.172000", "135253.175000", "135253.179000", "135253.182000", "135253.186000", "135253.189000", "135253.193000", "135253.206000", "135253.209000", "135253.212000", "135253.216000", "135253.219000", "135253.223000", "135253.226000", "135253.230000", "135253.233000", "135253.237000", "135253.240000", "135253.244000", "135253.247000", "135253.250000", "135253.254000", "135253.257000", "135253.261000", "135253.264000", "135333.163000", "135333.167000", "135333.171000", "135333.174000", "135333.178000", "135333.194000", "135333.198000", "135333.201000", "135333.204000", "135333.208000", "135333.211000", "135333.215000", "135333.218000", "135333.222000", "135333.225000", "135333.229000", "135333.232000", "135333.235000", "135333.239000", "135333.242000", "135333.246000", "135333.249000", "135333.253000", "135333.256000", "135333.260000", "135333.263000", "135333.267000", "135402.051000", "135402.055000", "135402.058000", "135402.061000", "135402.065000", "135402.069000", "135402.072000", "135402.075000", "135402.079000", "135402.083000", "135402.086000", "135402.089000", "135402.093000", "135402.096000", "135402.100000", "135402.103000", "135402.107000", "135402.110000", "135402.114000"],
