{
  "AcquisitionMatrixPE": 104,
  "AcquisitionNumber": 1,
  "AcquisitionTime": "13:55:54.295000",
  "BandwidthPerPixelPhaseEncode": 17.17,
  "BaseResolution": 104,
  "BodyPartExamined": "BRAIN",
  "CoilCombinationMethod": "Sum of Squares",
  "ConsistencyInfo": "N4_VE11C_LATEST_20160120",
  "ConversionSoftware": "dcm2niix",
  "ConversionSoftwareVersion": "v1.0.20211006",
  "DerivedVendorReportedEchoSpacing": 0.000560011,
  "DeviceSerialNumber": "167006",
  "DwellTime": 2.1e-06,
  "EchoTime": 0.037,
  "EchoTime1": 0.037,
  "EchoTime2": 0.001,
  "EchoTrainLength": 104,
  "EffectiveEchoSpacing": 0.000560011,
  "FlipAngle": 52,
  "HeudiconvVersion": "0.5.3.post569+g418601f",
  "ImageComments": "Unaliased MB4/PE3/LB",
  "ImageOrientationPatientDICOM": [0.999739, 0.00107337, 0.0228181, 0.00401324, 0.975106, -0.221703],
  "ImageOrientationText": "Tra>Cor(-12.8)>Sag(1.3)",
  "ImageType": [
    "ORIGINAL",
    "PRIMARY",
    "P",
    "MB",
    "ND",
    "MOSAIC",
    "PHASE"
],
  "ImagingFrequency": 123.259,
  "InPlanePhaseEncodingDirectionDICOM": "COL",
  "InstitutionAddress": "Chemin Queen-Mary 4565,Montreal,District,CA,H3W 1W5",
  "InstitutionName": "IUGM",
  "InstitutionalDepartmentName": "Department",
  "MRAcquisitionType": "2D",
  "MagneticFieldStrength": 3,
  "Manufacturer": "Siemens",
  "ManufacturersModelName": "Prisma_fit",
  "MatrixCoilMode": "SENSE",
  "Modality": "MR",
  "MultibandAccelerationFactor": 4,
  "PartialFourier": 1,
  "PatientPosition": "HFS",
  "PercentPhaseFOV": 100,
  "PercentSampling": 100,
  "PhaseEncodingDirection": "j",
  "PhaseEncodingSteps": 104,
  "PhaseResolution": 1,
  "PixelBandwidth": 2290,
  "ProcedureStepDescription": "games^mario",
  "ProtocolName": "func_task-mario_run-02",
  "PulseSequenceDetails": "%CustomerSeq%\\cmrr_mbep2d_bold",
  "ReceiveCoilActiveElements": "HC1-7;NC1,2",
  "ReceiveCoilName": "HeadNeck_64",
  "ReconMatrixPE": 104,
  "RepetitionTime": 1.49,
  "SAR": 0.0344407,
  "ScanOptions": "FS",
  "ScanningSequence": "EP",
  "SequenceName": "epfid2d1_104",
  "SequenceVariant": "SK\\SS",
  "SeriesDescription": "func_task-mario_run-02",
  "SeriesNumber": 14,
  "ShimSetting": [636, -7223, -8770, 753, 39, -28, 73, 0],
  "SliceThickness": 2,
  "SliceTiming": [0, 0.7825, 0.0975, 0.8825, 0.195, 0.98, 0.295, 1.0775, 0.3925, 1.175, 0.49, 1.2725, 0.5875, 1.3725, 0.685, 0, 0.7825, 0.0975, 0.8825, 0.195, 0.98, 0.295, 1.0775, 0.3925, 1.175, 0.49, 1.2725, 0.5875, 1.3725, 0.685, 0, 0.7825, 0.0975, 0.8825, 0.195, 0.98, 0.295, 1.0775, 0.3925, 1.175, 0.49, 1.2725, 0.5875, 1.3725, 0.685, 0, 0.7825, 0.0975, 0.8825, 0.195, 0.98, 0.295, 1.0775, 0.3925, 1.175, 0.49, 1.2725, 0.5875, 1.3725, 0.685],
  "SoftwareVersions": "syngo MR E11",
  "SpacingBetweenSlices": 2,
  "StationName": "MRC35049",
  "TaskName": "mario",
  "TotalReadoutTime": 0.0576811,
  "TxRefAmp": 207.499,
  "WipMemBlock": "67b68770-f9d7-4b2e-a8f6-202745ea3bfe||Sequence: R016 ve11c/master r/e634e98; Dec 19 2017 11:00:25 by eja",
  "dcmmeta_affine": [
    [-1.9994781017303467, 0.0080264862626791, 0.04497609660029411, 107.69956970214844],
    [-0.0021467332262545824, 1.950212001800537, -0.443473219871521, -76.26214599609375],
    [0.04563622921705246, 0.44340580701828003, 1.9496943950653076, -57.22793960571289],
    [0.0, 0.0, 0.0, 1.0]
],
  "dcmmeta_reorient_transform": [
    [0.0, -1.0, 0.0, 103.0],
    [1.0, 0.0, 0.0, 0.0],
    [0.0, 0.0, 1.0, 0.0],
    [0.0, 0.0, 0.0, 1.0]
],
  "dcmmeta_shape": [104, 104, 60, 506],
  "dcmmeta_slice_dim": 2,
  "dcmmeta_version": 0.6,
  "global": {
    "const": {
      "AcquisitionMatrix": [104, 0, 0, 104],
      "AngioFlag": "N",
      "BitsAllocated": 16,
      "BitsStored": 16,
      "BodyPartExamined": "BRAIN",
      "Columns": 832,
      "EchoNumbers": 1,
      "EchoTime": 37.0,
      "EchoTrainLength": 104,
      "FlipAngle": 52.0,
      "HighBit": 15,
      "ImageOrientationPatient": [0.99973905671717, 0.00107336662879, 0.02281811469746, 0.00401324323537, 0.97510600298849, -0.2217029021338],
      "ImagePositionPatient": [-839.25797236789, -835.26827165439, 133.23098180059],
      "ImageType": [
        "ORIGINAL",
        "PRIMARY",
        "P",
        "MB",
        "ND",
        "MOSAIC"
],
      "ImagedNucleus": "1H",
      "ImagingFrequency": 123.258839,
      "InPlanePhaseEncodingDirection": "COL",
      "LargestImagePixelValue": 4095,
      "MRAcquisitionType": "2D",
      "MagneticFieldStrength": 3.0,
      "Manufacturer": "SIEMENS",
      "ManufacturerModelName": "Prisma_fit",
      "Modality": "MR",
      "NumberOfAverages": 1.0,
      "NumberOfPhaseEncodingSteps": 104,
      "PercentPhaseFieldOfView": 100.0,
      "PercentSampling": 100.0,
      "PerformedProcedureStepStartTime": "133652.636000",
      "PhotometricInterpretation": "MONOCHROME2",
      "PixelBandwidth": 2290.0,
      "PixelRepresentation": 0,
      "PixelSpacing": [2.0, 2.0],
      "ProtocolName": "func_task-mario_run-02",
      "RepetitionTime": 1490.0,
      "RescaleIntercept": -4096.0,
      "RescaleSlope": 2.0,
      "RescaleType": "US",
      "Rows": 832,
      "SAR": 0.03444067182026,
      "SamplesPerPixel": 1,
      "ScanOptions": "FS",
      "ScanningSequence": "EP",
      "SequenceName": "epfid2d1_104",
      "SequenceVariant": [
        "SK",
        "SS"
],
      "SeriesDescription": "func_task-mario_run-02",
      "SeriesNumber": 14,
      "SeriesTime": "135718.067000",
      "SliceLocation": -36.456436986462,
      "SliceThickness": 2.0,
      "SmallestImagePixelValue": 0,
      "SoftwareVersions": "syngo MR E11",
      "SpacingBetweenSlices": 1.999999928449,
      "SpecificCharacterSet": "ISO_IR 100",
      "StudyID": "1",
      "StudyTime": "133652.490000",
      "TransmitCoilName": "Body",
      "VariableFlipAngleFlag": "N",
      "WindowCenterWidthExplanation": "Algo1",
      "dBdt": 0.0},
    "slices": {}
  },
  "time": {
    "samples": {
      "AcquisitionNumber": [1, 2, 3, 4, 5, 6, 7, 8, 9, 10, 11, 12, 13, 14, 15, 16, 17, 18, 19, 20, 21, 22, 23, 24, 25, 26, 27, 28, 29, 30, 31, 32, 33, 34, 35, 36, 37, 38, 39, 40, 41, 42, 43, 44, 45, 46, 47, 48, 49, 50, 51, 52, 53, 54, 55, 56, 57, 58, 59, 60, 61, 62, 63, 64, 65, 66, 67, 68, 69, 70, 71, 72, 73, 74, 75, 76, 77, 78, 79, 80, 81, 82, 83, 84, 85, 86, 87, 88, 89, 90, 91, 92, 93, 94, 95, 96, 97, 98, 99, 100, 101, 102, 103, 104, 105, 106, 107, 108, 109, 110, 111, 112, 113, 114, 115, 116, 117, 118, 119, 120, 121, 122, 123, 124, 125, 126, 127, 128, 129, 130, 131, 132, 133, 134, 135, 136, 137, 138, 139, 140, 141, 142, 143, 144, 145, 146, 147, 148, 149, 150, 151, 152, 153, 154, 155, 156, 157, 158, 159, 160, 161, 162, 163, 164, 165, 166, 167, 168, 169, 170, 171, 172, 173, 174, 175, 176, 177, 178, 179, 180, 181, 182, 183, 184, 185, 186, 187, 188, 189, 190, 191, 192, 193, 194, 195, 196, 197, 198, 199, 200, 201, 202, 203, 204, 205, 206, 207, 208, 209, 210, 211, 212, 213, 214, 215, 216, 217, 218, 219, 220, 221, 222, 223, 224, 225, 226, 227, 228, 229, 230, 231, 232, 233, 234, 235, 236, 237, 238, 239, 240, 241, 242, 243, 244, 245, 246, 247, 248, 249, 250, 251, 252, 253, 254, 255, 256, 257, 258, 259, 260, 261, 262, 263, 264, 265, 266, 267, 268, 269, 270, 271, 272, 273, 274, 275, 276, 277, 278, 279, 280, 281, 282, 283, 284, 285, 286, 287, 288, 289, 290, 291, 292, 293, 294, 295, 296, 297, 298, 299, 300, 301, 302, 303, 304, 305, 306, 307, 308, 309, 310, 311, 312, 313, 314, 315, 316, 317, 318, 319, 320, 321, 322, 323, 324, 325, 326, 327, 328, 329, 330, 331, 332, 333, 334, 335, 336, 337, 338, 339, 340, 341, 342, 343, 344, 345, 346, 347, 348, 349, 350, 351, 352, 353, 354, 355, 356, 357, 358, 359, 360, 361, 362, 363, 364, 365, 366, 367, 368, 369, 370, 371, 372, 373, 374, 375, 376, 377, 378, 379, 380, 381, 382, 383, 384, 385, 386, 387, 388, 389, 390, 391, 392, 393, 394, 395, 396, 397, 398, 399, 400, 401, 402, 403, 404, 405, 406, 407, 408, 409, 410, 411, 412, 413, 414, 415, 416, 417, 418, 419, 420, 421, 422, 423, 424, 425, 426, 427, 428, 429, 430, 431, 432, 433, 434, 435, 436, 437, 438, 439, 440, 441, 442, 443, 444, 445, 446, 447, 448, 449, 450, 451, 452, 453, 454, 455, 456, 457, 458, 459, 460, 461, 462, 463, 464, 465, 466, 467, 468, 469, 470, 471, 472, 473, 474, 475, 476, 477, 478, 479, 480, 481, 482, 483, 484, 485, 486, 487, 488, 489, 490, 491, 492, 493, 494, 495, 496, 497, 498, 499, 500, 501, 502, 503, 504, 505, 506],
      "AcquisitionTime": ["135554.295000", "135555.785000", "135557.275000", "135558.765000", "135600.255000", "135601.745000", "135603.235000", "135604.725000", "135606.215000", "135607.705000", "135609.195000", "135610.685000", "135612.175000", "135613.665000", "135615.155000", "135616.645000", "135618.135000", "135619.625000", "135621.115000", "135622.605000", "135624.095000", "135625.585000", "135627.075000", "135628.565000", "135630.055000", "135631.545000", "135633.035000", "135634.525000", "135636.015000", "135637.505000", "135638.995000", "135640.485000", "135641.975000", "135643.465000", "135644.955000", "135646.445000", "135647.935000", "135649.425000", "135650.915000", "135652.405000", "135653.895000", "135655.385000", "135656.875000", "135658.365000", "135659.855000", "135701.345000", "135702.835000", "135704.325000", "135705.815000", "135707.305000", "135708.795000", "135710.285000", "135711.775000", "135713.265000", "135714.755000", "135716.245000", "135717.735000", "135719.225000", "135720.715000", "135722.205000", "135723.695000", "135725.185000", "135726.675000", "135728.165000", "135729.655000", "135731.145000", "135732.635000", "135734.125000", "135735.615000", "135737.105000", "135738.595000", "135740.085000", "135741.575000", "135743.065000", "135744.555000", "135746.045000", "135747.535000", "135749.025000", "135750.515000", "135752.005000", "135753.495000", "135754.985000", "135756.475000", "135757.965000", "135759.455000", "135800.945000", "135802.435000", "135803.925000", "135805.415000", "135806.905000", "135808.395000", "135809.885000", "135811.375000", "135812.865000", "135814.355000", "135815.845000", "135817.335000", "135818.825000", "135820.315000", "135821.805000", "135823.295000", "135824.785000", "135826.275000", "135827.765000", "135829.255000", "135830.745000", "135832.235000", "135833.725000", "135835.215000", "135836.705000", "135838.195000", "135839.685000", "135841.175000", "135842.665000", "135844.155000", "135845.645000", "135847.135000", "135848.625000", "135850.115000", "135851.605000", "135853.095000", "135854.585000", "135856.075000", "135857.565000", "135859.055000", "135900.545000", "135902.035000", "135903.525000", "135905.015000", "135906.505000", "135907.995000", "135909.485000", "135910.975000", "135912.465000", "135913.955000", "135915.445000", "135916.935000", "135918.425000", "135919.915000", "135921.405000", "135922.895000", "135924.385000", "135925.875000", "135927.365000", "135928.855000", "135930.345000", "135931.835000", "135933.325000", "135934.815000", "135936.305000", "135937.795000", "135939.285000", "135940.775000", "135942.265000", "135943.755000", "135945.245000", "135946.735000", "135948.225000", "135949.715000", "135951.205000", "135952.695000", "135954.185000", "135955.675000", "135957.165000", "135958.655000", "140000.145000", "140001.635000", "140003.125000", "140004.615000", "140006.105000", "140007.595000", "140009.085000", "140010.575000", "140012.065000", "140013.555000", "140015.045000", "140016.535000", "140018.025000", "140019.515000", "140021.005000", "140022.495000", "140023.985000", "140025.475000", "140026.965000", "140028.455000", "140029.945000", "140031.435000", "140032.925000", "140034.415000", "140035.905000", "140037.395000", "140038.885000", "140040.375000", "140041.865000", "140043.355000", "140044.845000", "140046.335000", "140047.825000", "140049.315000", "140050.805000", "140052.295000", "140053.785000", "140055.275000", "140056.765000", "140058.255000", "140059.745000", "140101.235000", "140102.725000", "140104.215000", "140105.705000", "140107.195000", "140108.685000", "140110.175000", "140111.665000", "140113.155000", "140114.645000", "140116.135000", "140117.625000", "140119.115000", "140120.605000", "140122.095000", "140123.585000", "140125.075000", "140126.565000", "140128.055000", "140129.545000", "140131.035000", "140132.525000", "140134.015000", "140135.505000", "140136.995000", "140138.485000", "140139.975000", "140141.465000", "140142.955000", "140144.445000", "140145.935000", "140147.425000", "140148.915000", "140150.405000", "140151.895000", "140153.385000", "140154.875000", "140156.365000", "140157.855000", "140159.345000", "140200.835000", "140202.325000", "140203.815000", "140205.305000", "140206.795000", "140208.285000", "140209.775000", "140211.265000", "140212.755000", "140214.245000", "140215.735000", "140217.225000", "140218.715000", "140220.205000", "140221.695000", "140223.185000", "140224.675000", "140226.165000", "140227.655000", "140229.145000", "140230.635000", "140232.125000", "140233.615000", "140235.105000", "140236.595000", "140238.085000", "140239.575000", "140241.065000", "140242.555000", "140244.045000", "140245.535000", "140247.025000", "140248.515000", "140250.005000", "140251.495000", "140252.985000", "140254.475000", "140255.965000", "140257.455000", "140258.945000", "140300.435000", "140301.925000", "140303.415000", "140304.905000", "140306.395000", "140307.885000", "140309.375000", "140310.865000", "140312.355000", "140313.845000", "140315.335000", "140316.825000", "140318.315000", "140319.805000", "140321.295000", "140322.785000", "140324.275000", "140325.765000", "140327.255000", "140328.745000", "140330.235000", "140331.725000", "140333.215000", "140334.705000", "140336.195000", "140337.685000", "140339.175000", "140340.665000", "140342.155000", "140343.645000", "140345.135000", "140346.625000", "140348.115000", "140349.605000", "140351.095000", "140352.585000", "140354.075000", "140355.565000", "140357.055000", "140358.545000", "140400.035000", "140401.525000", "140403.015000", "140404.505000", "140405.995000", "140407.485000", "140408.975000", "140410.465000", "140411.955000", "140413.445000", "140414.935000", "140416.425000", "140417.915000", "140419.405000", "140420.895000", "140422.385000", "140423.875000", "140425.365000", "140426.855000", "140428.345000", "140429.835000", "140431.325000", "140432.815000", "140434.305000", "140435.795000", "140437.285000", "140438.775000", "140440.265000", "140441.755000", "140443.245000", "140444.735000", "140446.225000", "140447.715000", "140449.205000", "140450.695000", "140452.185000", "140453.675000", "140455.165000", "140456.655000", "140458.145000", "140459.635000", "140501.125000", "140502.615000", "140504.105000", "140505.595000", "140507.085000", "140508.575000", "140510.065000", "140511.555000", "140513.045000", "140514.535000", "140516.025000", "140517.515000", "140519.005000", "140520.495000", "140521.985000", "140523.475000", "140524.965000", "140526.455000", "140527.945000", "140529.435000", "140530.925000", "140532.415000", "140533.905000", "140535.395000", "140536.885000", "140538.375000", "140539.865000", "140541.355000", "140542.845000", "140544.335000", "140545.825000", "140547.315000", "140548.805000", "140550.295000", "140551.785000", "140553.275000", "140554.765000", "140556.255000", "140557.745000", "140559.235000", "140600.725000", "140602.215000", "140603.705000", "140605.195000", "140606.685000", "140608.175000", "140609.665000", "140611.155000", "140612.645000", "140614.135000", "140615.625000", "140617.115000", "140618.605000", "140620.095000", "140621.585000", "140623.075000", "140624.565000", "140626.055000", "140627.545000", "140629.035000", "140630.525000", "140632.015000", "140633.505000", "140634.995000", "140636.485000", "140637.975000", "140639.465000", "140640.955000", "140642.445000", "140643.935000", "140645.425000", "140646.915000", "140648.405000", "140649.895000", "140651.385000", "140652.875000", "140654.365000", "140655.855000", "140657.345000", "140658.835000", "140700.325000", "140701.815000", "140703.305000", "140704.795000", "140706.285000", "140707.775000", "140709.265000", "140710.755000", "140712.245000", "140713.735000", "140715.225000", "140716.715000", "140718.205000", "140719.695000", "140721.185000", "140722.675000", "140724.165000", "140725.655000", "140727.145000", "140728.635000", "140730.125000", "140731.615000", "140733.105000", "140734.595000", "140736.085000", "140737.575000", "140739.065000", "140740.555000", "140742.045000", "140743.535000", "140745.025000", "140746.515000", "140748.005000", "140749.495000", "140750.985000", "140752.475000", "140753.965000", "140755.455000", "140756.945000", "140758.435000", "140759.925000", "140801.415000", "140802.905000", "140804.395000", "140805.885000", "140807.375000", "140808.865000", "140810.355000", "140811.845000", "140813.335000", "140814.825000", "140816.315000", "140817.805000", "140819.295000", "140820.785000", "140822.275000", "140823.765000", "140825.255000", "140826.745000"],
      "ContentTime": ["135718.069000", "135718.072000", "135718.084000", "135718.087000", "135718.089000", "135718.092000", "135718.095000", "135718.097000", "135718.100000", "135718.102000", "135718.105000", "135718.108000", "135718.110000", "135718.113000", "135718.115000", "135718.118000", "135718.121000", "135718.123000", "135718.126000", "135718.128000", "135718.131000", "135718.134000", "135718.136000", "135718.139000", "135718.141000", "135718.144000", "135718.147000", "135718.149000", "135718.152000", "135718.154000", "135718.157000", "135737.963000", "135737.966000", "135737.969000", "135737.971000", "135737.982000", "135737.985000", "135737.988000", "135737.990000", "135737.993000", "135737.995000", "135737.998000", "135738.002000", "135738.004000", "135738.007000", "135738.010000", "135738.012000", "135738.015000", "135738.017000", "135738.020000", "135738.023000", "135738.025000", "135757.951000", "135757.954000", "135757.956000", "135757.959000", "135757.962000", "135757.964000", "135757.967000", "135757.969000", "135757.972000", "135757.975000", "135757.977000", "135757.980000", "135757.982000", "135757.985000", "135757.988000", "135757.990000", "135757.993000", "135757.996000", "135757.998000", "135758.002000", "135817.990000", "135817.993000", "135817.995000", "135817.998000", "135818.001000", "135818.004000", "135818.007000", "135818.009000", "135818.012000", "135818.015000", "135818.017000", "135818.020000", "135818.023000", "135818.026000", "135818.028000", "135818.031000", "135818.033000", "135818.036000", "135818.039000", "135818.041000", "135858.005000", "135858.008000", "135858.015000", "135858.018000", "135858.020000", "135858.023000", "135858.025000", "135858.028000", "135858.031000", "135858.033000", "135858.036000", "135858.038000", "135858.041000", "135858.043000", "135858.046000", "135858.049000", "135858.051000", "135858.054000", "135858.056000", "135858.059000", "135858.061000", "135858.064000", "135858.067000", "135858.069000", "135858.072000", "135858.075000", "135858.078000", "135858.080000", "135858.083000", "135858.085000", "135937.984000", "135937.987000", "135937.989000", "135937.992000", "135937.995000", "135937.997000", "135938.001000", "135938.003000", "135938.006000", "135938.009000", "135938.011000", "135938.014000", "135938.017000", "135938.019000", "135938.022000", "135938.025000", "135938.027000", "135938.037000", "135938.040000", "135938.043000", "135938.045000", "135938.048000", "135938.050000", "135938.053000", "135938.056000", "135938.058000", "135938.061000", "135957.919000", "135957.921000", "135957.924000", "135957.927000", "135957.929000", "135957.932000", "135957.935000", "135957.937000", "135957.940000", "135957.951000", "135957.954000", "135957.956000", "135957.959000", "135957.961000", "140037.989000", "140037.992000", "140037.995000", "140037.997000", "140038.001000", "140038.004000", "140038.007000", "140038.009000", "140038.012000", "140038.015000", "140038.017000", "140038.020000", "140038.022000", "140038.025000", "140038.027000", "140038.030000", "140038.033000", "140038.035000", "140038.038000", "140038.041000", "140038.043000", "140038.046000", "140038.049000", "140038.051000", "140038.054000", "140038.056000", "140038.060000", "140118.004000", "140118.007000", "140118.010000", "140118.012000", "140118.018000", "140118.021000", "140118.030000", "140118.033000", "140118.035000", "140118.038000", "140118.040000", "140118.043000", "140118.046000", "140118.048000", "140118.051000", "140118.054000", "140118.056000", "140118.059000", "140118.061000", "140118.064000", "140118.066000", "140118.069000", "140118.072000", "140118.074000", "140118.077000", "140118.079000", "140158.011000", "140158.014000", "140158.017000", "140158.019000", "140158.022000", "140158.025000", "140158.027000", "140158.030000", "140158.033000", "140158.036000", "140158.039000", "140158.041000", "140158.044000", "140158.047000", "140158.049000", "140158.052000", "140158.055000", "140158.057000", "140158.060000", "140158.062000", "140158.065000", "140158.068000", "140158.070000", "140158.073000", "140158.075000", "140158.078000", "140158.081000", "140237.979000", "140237.982000", "140237.984000", "140237.987000", "140237.990000", "140237.992000", "140237.995000", "140237.998000", "140238.001000", "140238.004000", "140238.007000", "140238.009000", "140238.012000", "140238.014000", "140238.017000", "140238.020000", "140238.022000", "140238.025000", "140238.027000", "140238.030000", "140238.033000", "140238.035000", "140238.038000", "140238.040000", "140238.043000", "140238.046000", "140238.048000", "140317.976000", "140317.979000", "140317.982000", "140317.985000", "140317.987000", "140317.990000", "140317.992000", "140317.995000", "140317.998000", "140318.001000", "140318.004000", "140318.007000", "140318.009000", "140318.012000", "140318.014000", "140318.017000", "140318.020000", "140318.022000", "140318.025000", "140318.028000", "140318.030000", "140318.033000", "140318.035000", "140318.038000", "140318.041000", "140318.043000", "140318.046000", "140357.984000", "140357.987000", "140357.990000", "140357.992000", "140357.995000", "140357.998000", "140358.001000", "140358.004000", "140358.007000", "140358.009000", "140358.012000", "140358.015000", "140358.017000", "140358.020000", "140358.023000", "140358.025000", "140358.028000", "140358.030000", "140358.033000", "140358.036000", "140358.038000", "140358.041000", "140358.043000", "140358.046000", "140358.049000", "140358.051000", "140358.054000", "140438.004000", "140438.007000", "140438.010000", "140438.013000", "140438.015000", "140438.018000", "140438.021000", "140438.023000", "140438.026000", "140438.028000", "140438.031000", "140438.034000", "140438.036000", "140438.039000", "140438.042000", "140438.044000", "140438.047000", "140438.049000", "140438.052000", "140438.055000", "140438.057000", "140438.060000", "140438.063000", "140438.065000", "140438.068000", "140438.070000", "140438.073000", "140518.390000", "140518.393000", "140518.395000", "140518.398000", "140518.400000", "140518.403000", "140518.406000", "140518.408000", "140518.411000", "140518.414000", "140518.416000", "140518.419000", "140518.421000", "140518.424000", "140518.427000", "140518.429000", "140518.432000", "140518.435000", "140518.437000", "140518.440000", "140518.442000", "140518.445000", "140518.448000", "140518.450000", "140518.453000", "140518.456000", "140557.991000", "140557.994000", "140557.997000", "140558.000000", "140558.003000", "140558.006000", "140558.008000", "140558.011000", "140558.013000", "140558.016000", "140558.019000", "140558.021000", "140558.024000", "140558.027000", "140558.029000", "140558.032000", "140558.035000", "140558.038000", "140558.040000", "140558.043000", "140558.045000", "140558.048000", "140558.051000", "140558.055000", "140558.058000", "140558.061000", "140558.063000", "140638.005000", "140638.008000", "140638.011000", "140638.044000", "140638.051000", "140638.054000", "140638.059000", "140638.062000", "140638.064000", "140638.070000", "140638.073000", "140638.083000", "140638.088000", "140638.091000", "140638.101000", "140638.104000", "140638.107000", "140638.109000", "140638.112000", "140638.115000", "140638.117000", "140638.120000", "140638.122000", "140638.125000", "140638.128000", "140638.130000", "140638.133000", "140717.979000", "140717.982000", "140717.984000", "140717.987000", "140717.990000", "140717.992000", "140717.995000", "140717.998000", "140718.001000", "140718.004000", "140718.007000", "140718.009000", "140718.012000", "140718.015000", "140718.017000", "140718.020000", "140718.022000", "140718.025000", "140718.027000", "140718.030000", "140718.033000", "140718.035000", "140718.038000", "140718.040000", "140718.043000", "140718.046000", "140718.048000", "140757.977000", "140757.980000", "140757.982000", "140757.985000", "140757.988000", "140757.990000", "140757.993000", "140757.996000", "140757.998000", "140758.002000", "140758.005000", "140758.007000", "140758.010000", "140758.013000", "140758.015000", "140758.018000", "140758.020000", "140758.023000", "140758.026000", "140758.028000", "140758.031000", "140758.033000", "140758.036000", "140758.043000", "140758.045000", "140758.048000", "140758.051000", "140829.098000", "140829.101000", "140829.104000", "140829.107000", "140829.109000", "140829.112000", "140829.114000", "140829.117000", "140829.120000", "140829.122000", "140829.125000", "140829.128000", "140829.130000", "140829.133000", "140829.136000", "140829.138000", "140829.141000", "140829.144000", "140829.146000", "140829.149000", "140829.151000"],
