{
  "AcquisitionMatrixPE": 104,
  "AcquisitionNumber": 1,
  "AcquisitionTime": "14:10:11.812500",
  "BandwidthPerPixelPhaseEncode": 17.17,
  "BaseResolution": 104,
  "BodyPartExamined": "BRAIN",
  "CoilCombinationMethod": "Sum of Squares",
  "ConsistencyInfo": "N4_VE11C_LATEST_20160120",
  "ConversionSoftware": "dcm2niix",
  "ConversionSoftwareVersion": "v1.0.20211006",
  "DerivedVendorReportedEchoSpacing": 0.000560011,
  "DeviceSerialNumber": "167006",
  "DwellTime": 2.1e-06,
  "EchoTime": 0.037,
  "EchoTime1": 0.037,
  "EchoTime2": 0.001,
  "EchoTrainLength": 104,
  "EffectiveEchoSpacing": 0.000560011,
  "FlipAngle": 52,
  "HeudiconvVersion": "0.5.3.post569+g418601f",
  "ImageComments": "Unaliased MB4/PE3/LB",
  "ImageOrientationPatientDICOM": [0.999739, 0.00107337, 0.0228181, 0.00401324, 0.975106, -0.221703],
  "ImageOrientationText": "Tra>Cor(-12.8)>Sag(1.3)",
  "ImageType": [
    "ORIGINAL",
    "PRIMARY",
    "P",
    "MB",
    "ND",
    "MOSAIC",
    "PHASE"
],
  "ImagingFrequency": 123.259,
  "InPlanePhaseEncodingDirectionDICOM": "COL",
  "InstitutionAddress": "Chemin Queen-Mary 4565,Montreal,District,CA,H3W 1W5",
  "InstitutionName": "IUGM",
  "InstitutionalDepartmentName": "Department",
  "MRAcquisitionType": "2D",
  "MagneticFieldStrength": 3,
  "Manufacturer": "Siemens",
  "ManufacturersModelName": "Prisma_fit",
  "MatrixCoilMode": "SENSE",
  "Modality": "MR",
  "MultibandAccelerationFactor": 4,
  "PartialFourier": 1,
  "PatientPosition": "HFS",
  "PercentPhaseFOV": 100,
  "PercentSampling": 100,
  "PhaseEncodingDirection": "j",
  "PhaseEncodingSteps": 104,
  "PhaseResolution": 1,
  "PixelBandwidth": 2290,
  "ProcedureStepDescription": "games^mario",
  "ProtocolName": "func_task-mario_run-03",
  "PulseSequenceDetails": "%CustomerSeq%\\cmrr_mbep2d_bold",
  "ReceiveCoilActiveElements": "HC1-7;NC1,2",
  "ReceiveCoilName": "HeadNeck_64",
  "ReconMatrixPE": 104,
  "RepetitionTime": 1.49,
  "SAR": 0.0344407,
  "ScanOptions": "FS",
  "ScanningSequence": "EP",
  "SequenceName": "epfid2d1_104",
  "SequenceVariant": "SK\\SS",
  "SeriesDescription": "func_task-mario_run-03",
  "SeriesNumber": 17,
  "ShimSetting": [636, -7223, -8770, 753, 39, -28, 73, 0],
  "SliceThickness": 2,
  "SliceTiming": [0, 0.785, 0.0975, 0.8825, 0.1975, 0.98, 0.295, 1.0775, 0.3925, 1.1775, 0.49, 1.275, 0.5875, 1.3725, 0.6875, 0, 0.785, 0.0975, 0.8825, 0.1975, 0.98, 0.295, 1.0775, 0.3925, 1.1775, 0.49, 1.275, 0.5875, 1.3725, 0.6875, 0, 0.785, 0.0975, 0.8825, 0.1975, 0.98, 0.295, 1.0775, 0.3925, 1.1775, 0.49, 1.275, 0.5875, 1.3725, 0.6875, 0, 0.785, 0.0975, 0.8825, 0.1975, 0.98, 0.295, 1.0775, 0.3925, 1.1775, 0.49, 1.275, 0.5875, 1.3725, 0.6875],
  "SoftwareVersions": "syngo MR E11",
  "SpacingBetweenSlices": 2,
  "StationName": "MRC35049",
  "TaskName": "mario",
  "TotalReadoutTime": 0.0576811,
  "TxRefAmp": 207.499,
  "WipMemBlock": "1c157dec-4926-4d95-8311-cc4e8329c4ff||Sequence: R016 ve11c/master r/e634e98; Dec 19 2017 11:00:25 by eja",
  "dcmmeta_affine": [
    [-1.9994781017303467, 0.0080264862626791, 0.04497609660029411, 107.69956970214844],
    [-0.0021467332262545824, 1.950212001800537, -0.443473219871521, -76.26214599609375],
    [0.04563622921705246, 0.44340580701828003, 1.9496943950653076, -57.22793960571289],
    [0.0, 0.0, 0.0, 1.0]
],
  "dcmmeta_reorient_transform": [
    [0.0, -1.0, 0.0, 103.0],
    [1.0, 0.0, 0.0, 0.0],
    [0.0, 0.0, 1.0, 0.0],
    [0.0, 0.0, 0.0, 1.0]
],
  "dcmmeta_shape": [104, 104, 60, 430],
  "dcmmeta_slice_dim": 2,
  "dcmmeta_version": 0.6,
  "global": {
    "const": {
      "AcquisitionMatrix": [104, 0, 0, 104],
      "AngioFlag": "N",
      "BitsAllocated": 16,
      "BitsStored": 16,
      "BodyPartExamined": "BRAIN",
      "Columns": 832,
      "EchoNumbers": 1,
      "EchoTime": 37.0,
      "EchoTrainLength": 104,
      "FlipAngle": 52.0,
      "HighBit": 15,
      "ImageOrientationPatient": [0.99973905671717, 0.00107336662879, 0.02281811469746, 0.00401324323537, 0.97510600298849, -0.2217029021338],
      "ImagePositionPatient": [-839.25797236789, -835.26827165439, 133.23098180059],
      "ImageType": [
        "ORIGINAL",
        "PRIMARY",
        "P",
        "MB",
        "ND",
        "MOSAIC"
],
      "ImagedNucleus": "1H",
      "ImagingFrequency": 123.258844,
      "InPlanePhaseEncodingDirection": "COL",
      "LargestImagePixelValue": 4095,
      "MRAcquisitionType": "2D",
      "MagneticFieldStrength": 3.0,
      "Manufacturer": "SIEMENS",
      "ManufacturerModelName": "Prisma_fit",
      "Modality": "MR",
      "NumberOfAverages": 1.0,
      "NumberOfPhaseEncodingSteps": 104,
      "PercentPhaseFieldOfView": 100.0,
      "PercentSampling": 100.0,
      "PerformedProcedureStepStartTime": "133652.636000",
      "PhotometricInterpretation": "MONOCHROME2",
      "PixelBandwidth": 2290.0,
      "PixelRepresentation": 0,
      "PixelSpacing": [2.0, 2.0],
      "ProtocolName": "func_task-mario_run-03",
      "RepetitionTime": 1490.0,
      "RescaleIntercept": -4096.0,
      "RescaleSlope": 2.0,
      "RescaleType": "US",
      "Rows": 832,
      "SAR": 0.03444067182026,
      "SamplesPerPixel": 1,
      "ScanOptions": "FS",
      "ScanningSequence": "EP",
      "SequenceName": "epfid2d1_104",
      "SequenceVariant": [
        "SK",
        "SS"
],
      "SeriesDescription": "func_task-mario_run-03",
      "SeriesNumber": 17,
      "SeriesTime": "141117.823000",
      "SliceLocation": -36.456436986462,
      "SliceThickness": 2.0,
      "SmallestImagePixelValue": 0,
      "SoftwareVersions": "syngo MR E11",
      "SpacingBetweenSlices": 1.999999928449,
      "SpecificCharacterSet": "ISO_IR 100",
      "StudyID": "1",
      "StudyTime": "133652.490000",
      "TransmitCoilName": "Body",
      "VariableFlipAngleFlag": "N",
      "WindowCenterWidthExplanation": "Algo1",
      "dBdt": 0.0},
    "slices": {}
  },
  "time": {
    "samples": {
      "AcquisitionNumber": [1, 2, 3, 4, 5, 6, 7, 8, 9, 10, 11, 12, 13, 14, 15, 16, 17, 18, 19, 20, 21, 22, 23, 24, 25, 26, 27, 28, 29, 30, 31, 32, 33, 34, 35, 36, 37, 38, 39, 40, 41, 42, 43, 44, 45, 46, 47, 48, 49, 50, 51, 52, 53, 54, 55, 56, 57, 58, 59, 60, 61, 62, 63, 64, 65, 66, 67, 68, 69, 70, 71, 72, 73, 74, 75, 76, 77, 78, 79, 80, 81, 82, 83, 84, 85, 86, 87, 88, 89, 90, 91, 92, 93, 94, 95, 96, 97, 98, 99, 100, 101, 102, 103, 104, 105, 106, 107, 108, 109, 110, 111, 112, 113, 114, 115, 116, 117, 118, 119, 120, 121, 122, 123, 124, 125, 126, 127, 128, 129, 130, 131, 132, 133, 134, 135, 136, 137, 138, 139, 140, 141, 142, 143, 144, 145, 146, 147, 148, 149, 150, 151, 152, 153, 154, 155, 156, 157, 158, 159, 160, 161, 162, 163, 164, 165, 166, 167, 168, 169, 170, 171, 172, 173, 174, 175, 176, 177, 178, 179, 180, 181, 182, 183, 184, 185, 186, 187, 188, 189, 190, 191, 192, 193, 194, 195, 196, 197, 198, 199, 200, 201, 202, 203, 204, 205, 206, 207, 208, 209, 210, 211, 212, 213, 214, 215, 216, 217, 218, 219, 220, 221, 222, 223, 224, 225, 226, 227, 228, 229, 230, 231, 232, 233, 234, 235, 236, 237, 238, 239, 240, 241, 242, 243, 244, 245, 246, 247, 248, 249, 250, 251, 252, 253, 254, 255, 256, 257, 258, 259, 260, 261, 262, 263, 264, 265, 266, 267, 268, 269, 270, 271, 272, 273, 274, 275, 276, 277, 278, 279, 280, 281, 282, 283, 284, 285, 286, 287, 288, 289, 290, 291, 292, 293, 294, 295, 296, 297, 298, 299, 300, 301, 302, 303, 304, 305, 306, 307, 308, 309, 310, 311, 312, 313, 314, 315, 316, 317, 318, 319, 320, 321, 322, 323, 324, 325, 326, 327, 328, 329, 330, 331, 332, 333, 334, 335, 336, 337, 338, 339, 340, 341, 342, 343, 344, 345, 346, 347, 348, 349, 350, 351, 352, 353, 354, 355, 356, 357, 358, 359, 360, 361, 362, 363, 364, 365, 366, 367, 368, 369, 370, 371, 372, 373, 374, 375, 376, 377, 378, 379, 380, 381, 382, 383, 384, 385, 386, 387, 388, 389, 390, 391, 392, 393, 394, 395, 396, 397, 398, 399, 400, 401, 402, 403, 404, 405, 406, 407, 408, 409, 410, 411, 412, 413, 414, 415, 416, 417, 418, 419, 420, 421, 422, 423, 424, 425, 426, 427, 428, 429, 430],
      "AcquisitionTime": ["141011.812500", "141013.302500", "141014.792500", "141016.282500", "141017.772500", "141019.262500", "141020.752500", "141022.242500", "141023.732500", "141025.222500", "141026.712500", "141028.202500", "141029.692500", "141031.182500", "141032.672500", "141034.162500", "141035.652500", "141037.142500", "141038.632500", "141040.122500", "141041.612500", "141043.102500", "141044.592500", "141046.082500", "141047.572500", "141049.062500", "141050.552500", "141052.042500", "141053.532500", "141055.022500", "141056.512500", "141058.002500", "141059.492500", "141100.982500", "141102.472500", "141103.962500", "141105.452500", "141106.942500", "141108.432500", "141109.922500", "141111.412500", "141112.902500", "141114.392500", "141115.882500", "141117.372500", "141118.862500", "141120.352500", "141121.842500", "141123.332500", "141124.822500", "141126.312500", "141127.802500", "141129.292500", "141130.782500", "141132.272500", "141133.762500", "141135.252500", "141136.742500", "141138.232500", "141139.722500", "141141.212500", "141142.702500", "141144.192500", "141145.682500", "141147.172500", "141148.662500", "141150.152500", "141151.642500", "141153.132500", "141154.622500", "141156.112500", "141157.602500", "141159.092500", "141200.582500", "141202.072500", "141203.562500", "141205.052500", "141206.542500", "141208.032500", "141209.522500", "141211.012500", "141212.502500", "141213.992500", "141215.482500", "141216.972500", "141218.462500", "141219.952500", "141221.442500", "141222.932500", "141224.422500", "141225.912500", "141227.402500", "141228.892500", "141230.382500", "141231.872500", "141233.362500", "141234.852500", "141236.342500", "141237.832500", "141239.322500", "141240.812500", "141242.302500", "141243.792500", "141245.282500", "141246.772500", "141248.262500", "141249.752500", "141251.242500", "141252.732500", "141254.222500", "141255.712500", "141257.202500", "141258.692500", "141300.182500", "141301.672500", "141303.162500", "141304.652500", "141306.142500", "141307.632500", "141309.122500", "141310.612500", "141312.102500", "141313.592500", "141315.082500", "141316.572500", "141318.062500", "141319.552500", "141321.042500", "141322.532500", "141324.022500", "141325.512500", "141327.002500", "141328.492500", "141329.982500", "141331.472500", "141332.962500", "141334.452500", "141335.942500", "141337.432500", "141338.922500", "141340.412500", "141341.902500", "141343.392500", "141344.882500", "141346.372500", "141347.862500", "141349.352500", "141350.842500", "141352.332500", "141353.822500", "141355.312500", "141356.802500", "141358.292500", "141359.782500", "141401.272500", "141402.762500", "141404.252500", "141405.742500", "141407.232500", "141408.722500", "141410.212500", "141411.702500", "141413.192500", "141414.682500", "141416.172500", "141417.662500", "141419.152500", "141420.642500", "141422.132500", "141423.622500", "141425.112500", "141426.602500", "141428.092500", "141429.582500", "141431.072500", "141432.562500", "141434.052500", "141435.542500", "141437.032500", "141438.522500", "141440.012500", "141441.502500", "141442.992500", "141444.482500", "141445.972500", "141447.462500", "141448.952500", "141450.442500", "141451.932500", "141453.422500", "141454.912500", "141456.402500", "141457.892500", "141459.382500", "141500.872500", "141502.362500", "141503.852500", "141505.342500", "141506.832500", "141508.322500", "141509.812500", "141511.302500", "141512.792500", "141514.282500", "141515.772500", "141517.262500", "141518.752500", "141520.242500", "141521.732500", "141523.222500", "141524.712500", "141526.202500", "141527.692500", "141529.182500", "141530.672500", "141532.162500", "141533.652500", "141535.142500", "141536.632500", "141538.122500", "141539.612500", "141541.102500", "141542.592500", "141544.082500", "141545.572500", "141547.062500", "141548.552500", "141550.042500", "141551.532500", "141553.022500", "141554.512500", "141556.002500", "141557.492500", "141558.982500", "141600.472500", "141601.962500", "141603.452500", "141604.942500", "141606.432500", "141607.922500", "141609.412500", "141610.902500", "141612.392500", "141613.882500", "141615.372500", "141616.862500", "141618.352500", "141619.842500", "141621.332500", "141622.822500", "141624.312500", "141625.802500", "141627.292500", "141628.782500", "141630.272500", "141631.762500", "141633.252500", "141634.742500", "141636.232500", "141637.722500", "141639.212500", "141640.702500", "141642.192500", "141643.682500", "141645.172500", "141646.662500", "141648.152500", "141649.642500", "141651.132500", "141652.622500", "141654.112500", "141655.602500", "141657.092500", "141658.582500", "141700.072500", "141701.562500", "141703.052500", "141704.542500", "141706.032500", "141707.522500", "141709.012500", "141710.502500", "141711.992500", "141713.482500", "141714.972500", "141716.462500", "141717.952500", "141719.442500", "141720.932500", "141722.422500", "141723.912500", "141725.402500", "141726.892500", "141728.382500", "141729.872500", "141731.362500", "141732.852500", "141734.342500", "141735.832500", "141737.322500", "141738.812500", "141740.302500", "141741.792500", "141743.282500", "141744.772500", "141746.262500", "141747.752500", "141749.242500", "141750.732500", "141752.222500", "141753.712500", "141755.202500", "141756.692500", "141758.182500", "141759.672500", "141801.162500", "141802.652500", "141804.142500", "141805.632500", "141807.122500", "141808.612500", "141810.102500", "141811.592500", "141813.082500", "141814.572500", "141816.062500", "141817.552500", "141819.042500", "141820.532500", "141822.022500", "141823.512500", "141825.002500", "141826.492500", "141827.982500", "141829.472500", "141830.962500", "141832.452500", "141833.942500", "141835.432500", "141836.922500", "141838.412500", "141839.902500", "141841.392500", "141842.882500", "141844.372500", "141845.862500", "141847.352500", "141848.842500", "141850.332500", "141851.822500", "141853.312500", "141854.802500", "141856.292500", "141857.782500", "141859.272500", "141900.762500", "141902.252500", "141903.742500", "141905.232500", "141906.722500", "141908.212500", "141909.702500", "141911.192500", "141912.682500", "141914.172500", "141915.662500", "141917.152500", "141918.642500", "141920.132500", "141921.622500", "141923.112500", "141924.602500", "141926.092500", "141927.582500", "141929.072500", "141930.562500", "141932.052500", "141933.542500", "141935.032500", "141936.522500", "141938.012500", "141939.502500", "141940.992500", "141942.482500", "141943.972500", "141945.462500", "141946.952500", "141948.442500", "141949.932500", "141951.422500", "141952.912500", "141954.402500", "141955.892500", "141957.382500", "141958.872500", "142000.362500", "142001.852500", "142003.342500", "142004.832500", "142006.322500", "142007.812500", "142009.302500", "142010.792500", "142012.282500", "142013.772500", "142015.262500", "142016.752500", "142018.242500", "142019.732500", "142021.222500", "142022.712500", "142024.202500", "142025.692500", "142027.182500", "142028.672500", "142030.162500", "142031.652500", "142033.142500", "142034.632500", "142036.122500", "142037.612500", "142039.102500", "142040.592500", "142042.082500", "142043.572500", "142045.062500", "142046.552500", "142048.042500", "142049.532500", "142051.022500"],
      "ContentTime": ["141117.825000", "141117.828000", "141117.831000", "141117.833000", "141117.836000", "141117.839000", "141117.841000", "141117.844000", "141117.846000", "141137.818000", "141137.821000", "141137.823000", "141137.826000", "141137.828000", "141137.831000", "141137.834000", "141137.836000", "141137.844000", "141137.847000", "141137.850000", "141137.852000", "141137.855000", "141137.857000", "141137.860000", "141137.863000", "141137.865000", "141137.868000", "141137.870000", "141137.873000", "141157.862000", "141157.865000", "141157.867000", "141157.870000", "141157.872000", "141157.875000", "141157.878000", "141157.881000", "141157.883000", "141157.886000", "141157.889000", "141157.891000", "141157.894000", "141157.896000", "141157.899000", "141157.901000", "141157.904000", "141157.907000", "141157.909000", "141157.912000", "141217.839000", "141217.842000", "141217.851000", "141217.854000", "141217.856000", "141217.859000", "141217.862000", "141217.864000", "141217.867000", "141217.869000", "141217.872000", "141217.875000", "141217.877000", "141217.880000", "141217.882000", "141217.885000", "141217.888000", "141217.890000", "141217.893000", "141217.895000", "141237.821000", "141237.824000", "141237.827000", "141237.829000", "141237.832000", "141237.834000", "141237.842000", "141237.845000", "141237.848000", "141237.851000", "141237.853000", "141237.856000", "141237.859000", "141237.861000", "141237.864000", "141237.866000", "141237.869000", "141237.872000", "141237.874000", "141237.877000", "141237.893000", "141257.820000", "141257.823000", "141257.825000", "141257.836000", "141257.839000", "141257.841000", "141257.844000", "141257.851000", "141257.854000", "141257.857000", "141257.859000", "141257.862000", "141257.864000", "141257.867000", "141257.870000", "141257.872000", "141257.875000", "141257.877000", "141257.880000", "141257.882000", "141337.856000", "141337.859000", "141337.862000", "141337.864000", "141337.873000", "141337.875000", "141337.878000", "141337.880000", "141337.883000", "141337.886000", "141337.888000", "141337.891000", "141337.894000", "141337.896000", "141337.899000", "141337.901000", "141337.904000", "141337.907000", "141337.909000", "141337.912000", "141337.915000", "141337.917000", "141337.920000", "141337.922000", "141337.925000", "141337.928000", "141337.930000", "141337.933000", "141417.847000", "141417.850000", "141417.853000", "141417.855000", "141417.858000", "141417.860000", "141417.863000", "141417.866000", "141417.868000", "141417.871000", "141417.874000", "141417.876000", "141417.879000", "141417.882000", "141417.884000", "141417.887000", "141417.889000", "141417.892000", "141417.895000", "141417.898000", "141417.900000", "141417.903000", "141417.906000", "141417.908000", "141417.911000", "141417.913000", "141457.857000", "141457.860000", "141457.863000", "141457.865000", "141457.868000", "141457.870000", "141457.873000", "141457.876000", "141457.878000", "141457.881000", "141457.884000", "141457.886000", "141457.889000", "141457.891000", "141457.894000", "141457.897000", "141457.899000", "141457.902000", "141457.906000", "141457.909000", "141457.911000", "141457.914000", "141457.917000", "141457.919000", "141457.922000", "141457.925000", "141457.927000", "141537.842000", "141537.845000", "141537.848000", "141537.850000", "141537.853000", "141537.856000", "141537.858000", "141537.861000", "141537.863000", "141537.873000", "141537.881000", "141537.884000", "141537.887000", "141537.889000", "141537.892000", "141537.894000", "141537.897000", "141537.900000", "141537.903000", "141537.905000", "141537.908000", "141537.910000", "141537.913000", "141537.916000", "141537.919000", "141537.921000", "141537.924000", "141617.849000", "141617.852000", "141617.855000", "141617.866000", "141617.869000", "141617.872000", "141617.874000", "141617.877000", "141617.879000", "141617.882000", "141617.885000", "141617.887000", "141617.890000", "141617.892000", "141617.895000", "141617.898000", "141617.900000", "141617.903000", "141617.906000", "141617.908000", "141617.911000", "141617.913000", "141617.916000", "141617.919000", "141617.921000", "141617.924000", "141617.927000", "141658.280000", "141658.283000", "141658.286000", "141658.289000", "141658.291000", "141658.294000", "141658.296000", "141658.299000", "141658.302000", "141658.319000", "141658.322000", "141658.325000", "141658.327000", "141658.330000", "141658.332000", "141658.335000", "141658.338000", "141658.340000", "141658.343000", "141658.346000", "141658.348000", "141658.351000", "141658.353000", "141658.356000", "141658.359000", "141658.361000", "141658.364000", "141737.842000", "141737.845000", "141737.848000", "141737.850000", "141737.853000", "141737.856000", "141737.858000", "141737.861000", "141737.863000", "141737.866000", "141737.869000", "141737.871000", "141737.874000", "141737.877000", "141737.886000", "141737.889000", "141737.891000", "141737.894000", "141737.897000", "141737.899000", "141737.902000", "141737.904000", "141737.907000", "141737.910000", "141737.912000", "141737.915000", "141737.918000", "141817.850000", "141817.853000", "141817.855000", "141817.858000", "141817.861000", "141817.863000", "141817.866000", "141817.869000", "141817.871000", "141817.874000", "141817.877000", "141817.879000", "141817.882000", "141817.885000", "141817.887000", "141817.890000", "141817.892000", "141817.895000", "141817.898000", "141817.900000", "141817.903000", "141817.906000", "141817.908000", "141817.911000", "141817.914000", "141817.916000", "141857.841000", "141857.844000", "141857.846000", "141857.849000", "141857.852000", "141857.854000", "141857.857000", "141857.860000", "141857.862000", "141857.865000", "141857.867000", "141857.870000", "141857.873000", "141857.875000", "141857.878000", "141857.881000", "141857.883000", "141857.886000", "141857.888000", "141857.891000", "141857.894000", "141857.896000", "141857.899000", "141857.902000", "141857.904000", "141857.907000", "141857.910000", "141937.861000", "141937.864000", "141937.867000", "141937.869000", "141937.872000", "141937.875000", "141937.877000", "141937.880000", "141937.883000", "141937.885000", "141937.888000", "141937.891000", "141937.893000", "141937.896000", "141937.898000", "141937.901000", "141937.903000", "141937.906000", "141937.909000", "141937.911000", "141937.914000", "141937.917000", "141937.919000", "141937.922000", "141937.925000", "141937.927000", "141937.930000", "141957.787000", "141957.790000", "141957.793000", "141957.796000", "141957.799000", "141957.802000", "141957.804000", "141957.807000", "141957.810000", "141957.819000", "141957.822000", "141957.825000", "141957.828000", "141957.831000", "142037.845000", "142037.848000", "142037.851000", "142037.853000", "142037.865000", "142037.875000", "142037.877000", "142037.880000", "142037.883000", "142037.885000", "142037.888000", "142037.890000", "142037.893000", "142037.896000", "142037.898000", "142037.901000", "142037.904000", "142037.906000", "142037.909000", "142037.911000", "142037.914000", "142037.917000", "142037.919000", "142037.922000", "142037.925000", "142037.927000", "142052.961000", "142052.964000", "142052.967000", "142052.970000", "142052.972000", "142052.975000", "142052.977000", "142052.980000", "142052.983000", "142052.985000", "142052.988000"],
      "InstanceCreationTime": ["141117.825000", "141117.828000", "141117.831000", "141117.833000", "141117.836000", "141117.839000", "141117.841000", "141117.844000", "141117.846000", "141137.818000", "141137.821000", "141137.823000", "141137.826000", "141137.828000", "141137.831000", "141137.834000", "141137.836000", "141137.844000", "141137.847000", "141137.850000", "141137.852000", "141137.855000", "141137.857000", "141137.860000", "141137.863000", "141137.865000", "141137.868000", "141137.870000", "141137.873000", "141157.862000", "141157.865000", "141157.867000", "141157.870000", "141157.872000", "141157.875000", "141157.878000", "141157.881000", "141157.883000", "141157.886000", "141157.889000", "141157.891000", "141157.894000", "141157.896000", "141157.899000", "141157.901000", "141157.904000", "141157.907000", "141157.909000", "141157.912000", "141217.839000", "141217.842000", "141217.851000", "141217.854000", "141217.856000", "141217.859000", "141217.862000", "141217.864000", "141217.867000", "141217.869000", "141217.872000", "141217.875000", "141217.877000", "141217.880000", "141217.882000", "141217.885000", "141217.888000", "141217.890000", "141217.893000", "141217.895000", "141237.821000", "141237.824000", "141237.827000", "141237.829000", "141237.832000", "141237.834000", "141237.842000", "141237.845000", "141237.848000", "141237.851000", "141237.853000", "141237.856000", "141237.859000", "141237.861000", "141237.864000", "141237.866000", "141237.869000", "141237.872000", "141237.874000", "141237.877000", "141237.893000", "141257.820000", "141257.823000", "141257.825000", "141257.836000", "141257.839000", "141257.841000", "141257.844000", "141257.851000", "141257.854000", "141257.857000", "141257.859000", "141257.862000", "141257.864000", "141257.867000", "141257.870000", "141257.872000", "141257.875000", "141257.877000", "141257.880000", "141257.882000", "141337.856000", "141337.859000", "141337.862000", "141337.864000", "141337.873000", "141337.875000", "141337.878000", "141337.880000", "141337.883000", "141337.886000", "141337.888000", "141337.891000", "141337.894000", "141337.896000", "141337.899000", "141337.901000", "141337.904000", "141337.907000", "141337.909000", "141337.912000", "141337.915000", "141337.917000", "141337.920000", "141337.922000", "141337.925000", "141337.928000", "141337.930000", "141337.933000", "141417.847000", "141417.850000", "141417.853000", "141417.855000", "141417.858000", "141417.860000", "141417.863000", "141417.866000", "141417.868000", "141417.871000", "141417.874000", "141417.876000", "141417.879000", "141417.882000", "141417.884000", "141417.887000", "141417.889000", "141417.892000", "141417.895000", "141417.898000", "141417.900000", "141417.903000", "141417.906000", "141417.908000", "141417.911000", "141417.913000", "141457.857000", "141457.860000", "141457.863000", "141457.865000", "141457.868000", "141457.870000", "141457.873000", "141457.876000", "141457.878000", "141457.881000", "141457.884000", "141457.886000", "141457.889000", "141457.891000", "141457.894000", "141457.897000", "141457.899000", "141457.902000", "141457.906000", "141457.909000", "141457.911000", "141457.914000", "141457.917000", "141457.919000", "141457.922000", "141457.925000", "141457.927000", "141537.842000", "141537.845000", "141537.848000", "141537.850000", "141537.853000", "141537.856000", "141537.858000", "141537.861000", "141537.863000", "141537.873000", "141537.881000", "141537.884000", "141537.887000", "141537.889000", "141537.892000", "141537.894000", "141537.897000", "141537.900000", "141537.903000", "141537.905000", "141537.908000", "141537.910000", "141537.913000", "141537.916000", "141537.919000", "141537.921000", "141537.924000", "141617.849000", "141617.852000", "141617.855000", "141617.866000", "141617.869000", "141617.872000", "141617.874000", "141617.877000", "141617.879000", "141617.882000", "141617.885000", "141617.887000", "141617.890000", "141617.892000", "141617.895000", "141617.898000", "141617.900000", "141617.903000", "141617.906000", "141617.908000", "141617.911000", "141617.913000", "141617.916000", "141617.919000", "141617.921000", "141617.924000", "141617.927000", "141658.280000", "141658.283000", "141658.286000", "141658.289000", "141658.291000", "141658.294000", "141658.296000", "141658.299000", "141658.302000", "141658.319000", "141658.322000", "141658.325000", "141658.327000", "141658.330000", "141658.332000", "141658.335000", "141658.338000", "141658.340000", "141658.343000", "141658.346000", "141658.348000", "141658.351000", "141658.353000", "141658.356000", "141658.359000", "141658.361000", "141658.364000", "141737.842000", "141737.845000", "141737.848000", "141737.850000", "141737.853000", "141737.856000", "141737.858000", "141737.861000", "141737.863000", "141737.866000", "141737.869000", "141737.871000", "141737.874000", "141737.877000", "141737.886000", "141737.889000", "141737.891000", "141737.894000", "141737.897000", "141737.899000", "141737.902000", "141737.904000", "141737.907000", "141737.910000", "141737.912000", "141737.915000", "141737.918000", "141817.850000", "141817.853000", "141817.855000", "141817.858000", "141817.861000", "141817.863000", "141817.866000", "141817.869000", "141817.871000", "141817.874000", "141817.877000", "141817.879000", "141817.882000", "141817.885000", "141817.887000", "141817.890000", "141817.892000", "141817.895000", "141817.898000", "141817.900000", "141817.903000", "141817.906000", "141817.908000", "141817.911000", "141817.914000", "141817.916000", "141857.841000", "141857.844000", "141857.846000", "141857.849000", "141857.852000", "141857.854000", "141857.857000", "141857.860000", "141857.862000", "141857.865000", "141857.867000", "141857.870000", "141857.873000", "141857.875000", "141857.878000", "141857.881000", "141857.883000", "141857.886000", "141857.888000", "141857.891000", "141857.894000", "141857.896000", "141857.899000", "141857.902000", "141857.904000", "141857.907000", "141857.910000", "141937.861000", "141937.864000", "141937.867000", "141937.869000", "141937.872000", "141937.875000", "141937.877000", "141937.880000", "141937.883000", "141937.885000", "141937.888000", "141937.891000", "141937.893000", "141937.896000", "141937.898000", "141937.901000", "141937.903000", "141937.906000", "141937.909000", "141937.911000", "141937.914000", "141937.917000", "141937.919000", "141937.922000", "141937.925000", "141937.927000", "141937.930000", "141957.787000", "141957.790000", "141957.793000", "141957.796000", "141957.799000", "141957.802000", "141957.804000", "141957.807000", "141957.810000", "141957.819000", "141957.822000", "141957.825000", "141957.828000", "141957.831000", "142037.845000", "142037.848000", "142037.851000", "142037.853000", "142037.865000", "142037.875000", "142037.877000", "142037.880000", "142037.883000", "142037.885000", "142037.888000", "142037.890000", "142037.893000", "142037.896000", "142037.898000", "142037.901000", "142037.904000", "142037.906000", "142037.909000", "142037.911000", "142037.914000", "142037.917000", "142037.919000", "142037.922000", "142037.925000", "142037.927000", "142052.961000", "142052.964000", "142052.967000", "142052.970000", "142052.972000", "142052.975000", "142052.977000", "142052.980000", "142052.983000", "142052.985000", "142052.988000"],
