{
  "AcquisitionMatrixPE": 104,
  "AcquisitionNumber": 1,
  "AcquisitionTime": "13:55:54.295000",
  "BandwidthPerPixelPhaseEncode": 17.17,
  "BaseResolution": 104,
  "BodyPartExamined": "BRAIN",
  "CoilCombinationMethod": "Sum of Squares",
  "ConsistencyInfo": "N4_VE11C_LATEST_20160120",
  "ConversionSoftware": "dcm2niix",
  "ConversionSoftwareVersion": "v1.0.20211006",
  "DerivedVendorReportedEchoSpacing": 0.000560011,
  "DeviceSerialNumber": "167006",
  "DwellTime": 2.1e-06,
  "EchoTime": 0.037,
  "EchoTrainLength": 104,
  "EffectiveEchoSpacing": 0.000560011,
  "FlipAngle": 52,
  "HeudiconvVersion": "0.5.3.post569+g418601f",
  "ImageComments": "Unaliased MB4/PE3/LB",
  "ImageOrientationPatientDICOM": [0.999739, 0.00107337, 0.0228181, 0.00401324, 0.975106, -0.221703],
  "ImageOrientationText": "Tra>Cor(-12.8)>Sag(1.3)",
  "ImageType": [
    "ORIGINAL",
    "PRIMARY",
    "M",
    "MB",
    "ND",
    "MOSAIC"
],
  "ImagingFrequency": 123.259,
  "InPlanePhaseEncodingDirectionDICOM": "COL",
  "InstitutionAddress": "Chemin Queen-Mary 4565,Montreal,District,CA,H3W 1W5",
  "InstitutionName": "IUGM",
  "InstitutionalDepartmentName": "Department",
  "MRAcquisitionType": "2D",
  "MagneticFieldStrength": 3,
  "Manufacturer": "Siemens",
  "ManufacturersModelName": "Prisma_fit",
  "MatrixCoilMode": "SENSE",
  "Modality": "MR",
  "MultibandAccelerationFactor": 4,
  "PartialFourier": 1,
  "PatientPosition": "HFS",
  "PercentPhaseFOV": 100,
  "PercentSampling": 100,
  "PhaseEncodingDirection": "j",
  "PhaseEncodingSteps": 104,
  "PhaseResolution": 1,
  "PixelBandwidth": 2290,
  "ProcedureStepDescription": "games^mario",
  "ProtocolName": "func_task-mario_run-02",
  "PulseSequenceDetails": "%CustomerSeq%\\cmrr_mbep2d_bold",
  "ReceiveCoilActiveElements": "HC1-7;NC1,2",
  "ReceiveCoilName": "HeadNeck_64",
  "ReconMatrixPE": 104,
  "RepetitionTime": 1.49,
  "SAR": 0.0344407,
  "ScanOptions": "FS",
  "ScanningSequence": "EP",
  "SequenceName": "epfid2d1_104",
  "SequenceVariant": "SK\\SS",
  "SeriesDescription": "func_task-mario_run-02",
  "SeriesNumber": 13,
  "ShimSetting": [636, -7223, -8770, 753, 39, -28, 73, 0],
  "SliceThickness": 2,
  "SliceTiming": [0, 0.7825, 0.0975, 0.8825, 0.195, 0.98, 0.295, 1.0775, 0.3925, 1.175, 0.49, 1.2725, 0.5875, 1.3725, 0.685, 0, 0.7825, 0.0975, 0.8825, 0.195, 0.98, 0.295, 1.0775, 0.3925, 1.175, 0.49, 1.2725, 0.5875, 1.3725, 0.685, 0, 0.7825, 0.0975, 0.8825, 0.195, 0.98, 0.295, 1.0775, 0.3925, 1.175, 0.49, 1.2725, 0.5875, 1.3725, 0.685, 0, 0.7825, 0.0975, 0.8825, 0.195, 0.98, 0.295, 1.0775, 0.3925, 1.175, 0.49, 1.2725, 0.5875, 1.3725, 0.685],
  "SoftwareVersions": "syngo MR E11",
  "SpacingBetweenSlices": 2,
  "StationName": "MRC35049",
  "TaskName": "mario",
  "TotalReadoutTime": 0.0576811,
  "TxRefAmp": 207.499,
  "WipMemBlock": "67b68770-f9d7-4b2e-a8f6-202745ea3bfe||Sequence: R016 ve11c/master r/e634e98; Dec 19 2017 11:00:25 by eja",
  "dcmmeta_affine": [
    [-1.9994781017303467, 0.0080264862626791, 0.04497609660029411, 107.69956970214844],
    [-0.0021467332262545824, 1.950212001800537, -0.443473219871521, -76.26214599609375],
    [0.04563622921705246, 0.44340580701828003, 1.9496943950653076, -57.22793960571289],
    [0.0, 0.0, 0.0, 1.0]
],
  "dcmmeta_reorient_transform": [
    [0.0, -1.0, 0.0, 103.0],
    [1.0, 0.0, 0.0, 0.0],
    [0.0, 0.0, 1.0, 0.0],
    [0.0, 0.0, 0.0, 1.0]
],
  "dcmmeta_shape": [104, 104, 60, 506],
  "dcmmeta_slice_dim": 2,
  "dcmmeta_version": 0.6,
  "global": {
    "const": {
      "AcquisitionMatrix": [104, 0, 0, 104],
      "AngioFlag": "N",
      "BitsAllocated": 16,
      "BitsStored": 16,
      "BodyPartExamined": "BRAIN",
      "Columns": 832,
      "EchoNumbers": 1,
      "EchoTime": 37.0,
      "EchoTrainLength": 104,
      "FlipAngle": 52.0,
      "HighBit": 15,
      "ImageOrientationPatient": [0.99973905671717, 0.00107336662879, 0.02281811469746, 0.00401324323537, 0.97510600298849, -0.2217029021338],
      "ImagePositionPatient": [-839.25797236789, -835.26827165439, 133.23098180059],
      "ImageType": [
        "ORIGINAL",
        "PRIMARY",
        "M",
        "MB",
        "ND",
        "MOSAIC"
],
      "ImagedNucleus": "1H",
      "ImagingFrequency": 123.258839,
      "InPlanePhaseEncodingDirection": "COL",
      "MRAcquisitionType": "2D",
      "MagneticFieldStrength": 3.0,
      "Manufacturer": "SIEMENS",
      "ManufacturerModelName": "Prisma_fit",
      "Modality": "MR",
      "NumberOfAverages": 1.0,
      "NumberOfPhaseEncodingSteps": 104,
      "PercentPhaseFieldOfView": 100.0,
      "PercentSampling": 100.0,
      "PerformedProcedureStepStartTime": "133652.636000",
      "PhotometricInterpretation": "MONOCHROME2",
      "PixelBandwidth": 2290.0,
      "PixelRepresentation": 0,
      "PixelSpacing": [2.0, 2.0],
      "ProtocolName": "func_task-mario_run-02",
      "RepetitionTime": 1490.0,
      "Rows": 832,
      "SAR": 0.03444067182026,
      "SamplesPerPixel": 1,
      "ScanOptions": "FS",
      "ScanningSequence": "EP",
      "SequenceName": "epfid2d1_104",
      "SequenceVariant": [
        "SK",
        "SS"
],
      "SeriesDescription": "func_task-mario_run-02",
      "SeriesNumber": 13,
      "SeriesTime": "135717.874000",
      "SliceLocation": -36.456436986462,
      "SliceThickness": 2.0,
      "SmallestImagePixelValue": 0,
      "SoftwareVersions": "syngo MR E11",
      "SpacingBetweenSlices": 1.999999928449,
      "SpecificCharacterSet": "ISO_IR 100",
      "StudyID": "1",
      "StudyTime": "133652.490000",
      "TransmitCoilName": "Body",
      "VariableFlipAngleFlag": "N",
      "WindowCenterWidthExplanation": "Algo1",
      "dBdt": 0.0},
    "slices": {}
  },
  "time": {
    "samples": {
      "AcquisitionNumber": [1, 2, 3, 4, 5, 6, 7, 8, 9, 10, 11, 12, 13, 14, 15, 16, 17, 18, 19, 20, 21, 22, 23, 24, 25, 26, 27, 28, 29, 30, 31, 32, 33, 34, 35, 36, 37, 38, 39, 40, 41, 42, 43, 44, 45, 46, 47, 48, 49, 50, 51, 52, 53, 54, 55, 56, 57, 58, 59, 60, 61, 62, 63, 64, 65, 66, 67, 68, 69, 70, 71, 72, 73, 74, 75, 76, 77, 78, 79, 80, 81, 82, 83, 84, 85, 86, 87, 88, 89, 90, 91, 92, 93, 94, 95, 96, 97, 98, 99, 100, 101, 102, 103, 104, 105, 106, 107, 108, 109, 110, 111, 112, 113, 114, 115, 116, 117, 118, 119, 120, 121, 122, 123, 124, 125, 126, 127, 128, 129, 130, 131, 132, 133, 134, 135, 136, 137, 138, 139, 140, 141, 142, 143, 144, 145, 146, 147, 148, 149, 150, 151, 152, 153, 154, 155, 156, 157, 158, 159, 160, 161, 162, 163, 164, 165, 166, 167, 168, 169, 170, 171, 172, 173, 174, 175, 176, 177, 178, 179, 180, 181, 182, 183, 184, 185, 186, 187, 188, 189, 190, 191, 192, 193, 194, 195, 196, 197, 198, 199, 200, 201, 202, 203, 204, 205, 206, 207, 208, 209, 210, 211, 212, 213, 214, 215, 216, 217, 218, 219, 220, 221, 222, 223, 224, 225, 226, 227, 228, 229, 230, 231, 232, 233, 234, 235, 236, 237, 238, 239, 240, 241, 242, 243, 244, 245, 246, 247, 248, 249, 250, 251, 252, 253, 254, 255, 256, 257, 258, 259, 260, 261, 262, 263, 264, 265, 266, 267, 268, 269, 270, 271, 272, 273, 274, 275, 276, 277, 278, 279, 280, 281, 282, 283, 284, 285, 286, 287, 288, 289, 290, 291, 292, 293, 294, 295, 296, 297, 298, 299, 300, 301, 302, 303, 304, 305, 306, 307, 308, 309, 310, 311, 312, 313, 314, 315, 316, 317, 318, 319, 320, 321, 322, 323, 324, 325, 326, 327, 328, 329, 330, 331, 332, 333, 334, 335, 336, 337, 338, 339, 340, 341, 342, 343, 344, 345, 346, 347, 348, 349, 350, 351, 352, 353, 354, 355, 356, 357, 358, 359, 360, 361, 362, 363, 364, 365, 366, 367, 368, 369, 370, 371, 372, 373, 374, 375, 376, 377, 378, 379, 380, 381, 382, 383, 384, 385, 386, 387, 388, 389, 390, 391, 392, 393, 394, 395, 396, 397, 398, 399, 400, 401, 402, 403, 404, 405, 406, 407, 408, 409, 410, 411, 412, 413, 414, 415, 416, 417, 418, 419, 420, 421, 422, 423, 424, 425, 426, 427, 428, 429, 430, 431, 432, 433, 434, 435, 436, 437, 438, 439, 440, 441, 442, 443, 444, 445, 446, 447, 448, 449, 450, 451, 452, 453, 454, 455, 456, 457, 458, 459, 460, 461, 462, 463, 464, 465, 466, 467, 468, 469, 470, 471, 472, 473, 474, 475, 476, 477, 478, 479, 480, 481, 482, 483, 484, 485, 486, 487, 488, 489, 490, 491, 492, 493, 494, 495, 496, 497, 498, 499, 500, 501, 502, 503, 504, 505, 506],
      "AcquisitionTime": ["135554.295000", "135555.785000", "135557.275000", "135558.765000", "135600.255000", "135601.745000", "135603.235000", "135604.725000", "135606.215000", "135607.705000", "135609.195000", "135610.685000", "135612.175000", "135613.665000", "135615.155000", "135616.645000", "135618.135000", "135619.625000", "135621.115000", "135622.605000", "135624.095000", "135625.585000", "135627.075000", "135628.565000", "135630.055000", "135631.545000", "135633.035000", "135634.525000", "135636.015000", "135637.505000", "135638.995000", "135640.485000", "135641.975000", "135643.465000", "135644.955000", "135646.445000", "135647.935000", "135649.425000", "135650.915000", "135652.405000", "135653.895000", "135655.385000", "135656.875000", "135658.365000", "135659.855000", "135701.345000", "135702.835000", "135704.325000", "135705.815000", "135707.305000", "135708.795000", "135710.285000", "135711.775000", "135713.265000", "135714.755000", "135716.245000", "135717.735000", "135719.225000", "135720.715000", "135722.205000", "135723.695000", "135725.185000", "135726.675000", "135728.165000", "135729.655000", "135731.145000", "135732.635000", "135734.125000", "135735.615000", "135737.105000", "135738.595000", "135740.085000", "135741.575000", "135743.065000", "135744.555000", "135746.045000", "135747.535000", "135749.025000", "135750.515000", "135752.005000", "135753.495000", "135754.985000", "135756.475000", "135757.965000", "135759.455000", "135800.945000", "135802.435000", "135803.925000", "135805.415000", "135806.905000", "135808.395000", "135809.885000", "135811.375000", "135812.865000", "135814.355000", "135815.845000", "135817.335000", "135818.825000", "135820.315000", "135821.805000", "135823.295000", "135824.785000", "135826.275000", "135827.765000", "135829.255000", "135830.745000", "135832.235000", "135833.725000", "135835.215000", "135836.705000", "135838.195000", "135839.685000", "135841.175000", "135842.665000", "135844.155000", "135845.645000", "135847.135000", "135848.625000", "135850.115000", "135851.605000", "135853.095000", "135854.585000", "135856.075000", "135857.565000", "135859.055000", "135900.545000", "135902.035000", "135903.525000", "135905.015000", "135906.505000", "135907.995000", "135909.485000", "135910.975000", "135912.465000", "135913.955000", "135915.445000", "135916.935000", "135918.425000", "135919.915000", "135921.405000", "135922.895000", "135924.385000", "135925.875000", "135927.365000", "135928.855000", "135930.345000", "135931.835000", "135933.325000", "135934.815000", "135936.305000", "135937.795000", "135939.285000", "135940.775000", "135942.265000", "135943.755000", "135945.245000", "135946.735000", "135948.225000", "135949.715000", "135951.205000", "135952.695000", "135954.185000", "135955.675000", "135957.165000", "135958.655000", "140000.145000", "140001.635000", "140003.125000", "140004.615000", "140006.105000", "140007.595000", "140009.085000", "140010.575000", "140012.065000", "140013.555000", "140015.045000", "140016.535000", "140018.025000", "140019.515000", "140021.005000", "140022.495000", "140023.985000", "140025.475000", "140026.965000", "140028.455000", "140029.945000", "140031.435000", "140032.925000", "140034.415000", "140035.905000", "140037.395000", "140038.885000", "140040.375000", "140041.865000", "140043.355000", "140044.845000", "140046.335000", "140047.825000", "140049.315000", "140050.805000", "140052.295000", "140053.785000", "140055.275000", "140056.765000", "140058.255000", "140059.745000", "140101.235000", "140102.725000", "140104.215000", "140105.705000", "140107.195000", "140108.685000", "140110.175000", "140111.665000", "140113.155000", "140114.645000", "140116.135000", "140117.625000", "140119.115000", "140120.605000", "140122.095000", "140123.585000", "140125.075000", "140126.565000", "140128.055000", "140129.545000", "140131.035000", "140132.525000", "140134.015000", "140135.505000", "140136.995000", "140138.485000", "140139.975000", "140141.465000", "140142.955000", "140144.445000", "140145.935000", "140147.425000", "140148.915000", "140150.405000", "140151.895000", "140153.385000", "140154.875000", "140156.365000", "140157.855000", "140159.345000", "140200.835000", "140202.325000", "140203.815000", "140205.305000", "140206.795000", "140208.285000", "140209.775000", "140211.265000", "140212.755000", "140214.245000", "140215.735000", "140217.225000", "140218.715000", "140220.205000", "140221.695000", "140223.185000", "140224.675000", "140226.165000", "140227.655000", "140229.145000", "140230.635000", "140232.125000", "140233.615000", "140235.105000", "140236.595000", "140238.085000", "140239.575000", "140241.065000", "140242.555000", "140244.045000", "140245.535000", "140247.025000", "140248.515000", "140250.005000", "140251.495000", "140252.985000", "140254.475000", "140255.965000", "140257.455000", "140258.945000", "140300.435000", "140301.925000", "140303.415000", "140304.905000", "140306.395000", "140307.885000", "140309.375000", "140310.865000", "140312.355000", "140313.845000", "140315.335000", "140316.825000", "140318.315000", "140319.805000", "140321.295000", "140322.785000", "140324.275000", "140325.765000", "140327.255000", "140328.745000", "140330.235000", "140331.725000", "140333.215000", "140334.705000", "140336.195000", "140337.685000", "140339.175000", "140340.665000", "140342.155000", "140343.645000", "140345.135000", "140346.625000", "140348.115000", "140349.605000", "140351.095000", "140352.585000", "140354.075000", "140355.565000", "140357.055000", "140358.545000", "140400.035000", "140401.525000", "140403.015000", "140404.505000", "140405.995000", "140407.485000", "140408.975000", "140410.465000", "140411.955000", "140413.445000", "140414.935000", "140416.425000", "140417.915000", "140419.405000", "140420.895000", "140422.385000", "140423.875000", "140425.365000", "140426.855000", "140428.345000", "140429.835000", "140431.325000", "140432.815000", "140434.305000", "140435.795000", "140437.285000", "140438.775000", "140440.265000", "140441.755000", "140443.245000", "140444.735000", "140446.225000", "140447.715000", "140449.205000", "140450.695000", "140452.185000", "140453.675000", "140455.165000", "140456.655000", "140458.145000", "140459.635000", "140501.125000", "140502.615000", "140504.105000", "140505.595000", "140507.085000", "140508.575000", "140510.065000", "140511.555000", "140513.045000", "140514.535000", "140516.025000", "140517.515000", "140519.005000", "140520.495000", "140521.985000", "140523.475000", "140524.965000", "140526.455000", "140527.945000", "140529.435000", "140530.925000", "140532.415000", "140533.905000", "140535.395000", "140536.885000", "140538.375000", "140539.865000", "140541.355000", "140542.845000", "140544.335000", "140545.825000", "140547.315000", "140548.805000", "140550.295000", "140551.785000", "140553.275000", "140554.765000", "140556.255000", "140557.745000", "140559.235000", "140600.725000", "140602.215000", "140603.705000", "140605.195000", "140606.685000", "140608.175000", "140609.665000", "140611.155000", "140612.645000", "140614.135000", "140615.625000", "140617.115000", "140618.605000", "140620.095000", "140621.585000", "140623.075000", "140624.565000", "140626.055000", "140627.545000", "140629.035000", "140630.525000", "140632.015000", "140633.505000", "140634.995000", "140636.485000", "140637.975000", "140639.465000", "140640.955000", "140642.445000", "140643.935000", "140645.425000", "140646.915000", "140648.405000", "140649.895000", "140651.385000", "140652.875000", "140654.365000", "140655.855000", "140657.345000", "140658.835000", "140700.325000", "140701.815000", "140703.305000", "140704.795000", "140706.285000", "140707.775000", "140709.265000", "140710.755000", "140712.245000", "140713.735000", "140715.225000", "140716.715000", "140718.205000", "140719.695000", "140721.185000", "140722.675000", "140724.165000", "140725.655000", "140727.145000", "140728.635000", "140730.125000", "140731.615000", "140733.105000", "140734.595000", "140736.085000", "140737.575000", "140739.065000", "140740.555000", "140742.045000", "140743.535000", "140745.025000", "140746.515000", "140748.005000", "140749.495000", "140750.985000", "140752.475000", "140753.965000", "140755.455000", "140756.945000", "140758.435000", "140759.925000", "140801.415000", "140802.905000", "140804.395000", "140805.885000", "140807.375000", "140808.865000", "140810.355000", "140811.845000", "140813.335000", "140814.825000", "140816.315000", "140817.805000", "140819.295000", "140820.785000", "140822.275000", "140823.765000", "140825.255000", "140826.745000"],
      "ContentTime": ["135717.877000", "135717.881000", "135717.885000", "135717.888000", "135717.892000", "135717.895000", "135717.899000", "135717.905000", "135717.909000", "135717.940000", "135717.944000", "135717.947000", "135717.951000", "135717.954000", "135717.958000", "135717.961000", "135717.964000", "135717.968000", "135717.971000", "135717.975000", "135717.978000", "135717.982000", "135717.985000", "135717.989000", "135717.992000", "135717.995000", "135718.000000", "135718.003000", "135718.009000", "135718.012000", "135718.016000", "135737.840000", "135737.844000", "135737.848000", "135737.851000", "135737.854000", "135737.858000", "135737.861000", "135737.871000", "135737.875000", "135737.878000", "135737.882000", "135737.885000", "135737.888000", "135737.892000", "135737.895000", "135737.899000", "135737.902000", "135737.906000", "135737.909000", "135737.912000", "135737.916000", "135757.839000", "135757.843000", "135757.846000", "135757.850000", "135757.853000", "135757.857000", "135757.860000", "135757.863000", "135757.867000", "135757.870000", "135757.874000", "135757.877000", "135757.881000", "135757.884000", "135757.887000", "135757.891000", "135757.902000", "135757.905000", "135757.909000", "135757.912000", "135817.839000", "135817.843000", "135817.846000", "135817.850000", "135817.853000", "135817.857000", "135817.860000", "135817.879000", "135817.883000", "135817.887000", "135817.890000", "135817.908000", "135817.912000", "135817.915000", "135817.918000", "135817.922000", "135817.925000", "135817.929000", "135817.932000", "135817.936000", "135857.840000", "135857.844000", "135857.848000", "135857.851000", "135857.855000", "135857.858000", "135857.862000", "135857.865000", "135857.869000", "135857.879000", "135857.884000", "135857.887000", "135857.891000", "135857.895000", "135857.899000", "135857.902000", "135857.906000", "135857.909000", "135857.912000", "135857.916000", "135857.920000", "135857.923000", "135857.926000", "135857.930000", "135857.934000", "135857.937000", "135857.940000", "135857.944000", "135857.947000", "135857.951000", "135937.840000", "135937.844000", "135937.847000", "135937.851000", "135937.855000", "135937.858000", "135937.861000", "135937.865000", "135937.868000", "135937.872000", "135937.875000", "135937.879000", "135937.882000", "135937.886000", "135937.889000", "135937.908000", "135937.911000", "135937.914000", "135937.918000", "135937.921000", "135937.925000", "135937.928000", "135937.932000", "135937.935000", "135937.939000", "135937.942000", "135937.945000", "135957.840000", "135957.844000", "135957.847000", "135957.851000", "135957.854000", "135957.858000", "135957.861000", "135957.865000", "135957.868000", "135957.872000", "135957.875000", "135957.879000", "135957.882000", "135957.886000", "140037.839000", "140037.847000", "140037.851000", "140037.854000", "140037.858000", "140037.861000", "140037.864000", "140037.868000", "140037.871000", "140037.875000", "140037.878000", "140037.882000", "140037.885000", "140037.889000", "140037.892000", "140037.895000", "140037.899000", "140037.902000", "140037.906000", "140037.909000", "140037.913000", "140037.916000", "140037.920000", "140037.923000", "140037.927000", "140037.930000", "140037.933000", "140117.840000", "140117.844000", "140117.848000", "140117.851000", "140117.855000", "140117.858000", "140117.862000", "140117.865000", "140117.876000", "140117.880000", "140117.883000", "140117.887000", "140117.890000", "140117.894000", "140117.897000", "140117.901000", "140117.904000", "140117.908000", "140117.911000", "140117.915000", "140117.918000", "140117.923000", "140117.927000", "140117.930000", "140117.934000", "140117.938000", "140157.840000", "140157.844000", "140157.847000", "140157.851000", "140157.855000", "140157.858000", "140157.861000", "140157.865000", "140157.878000", "140157.881000", "140157.884000", "140157.888000", "140157.891000", "140157.895000", "140157.898000", "140157.902000", "140157.905000", "140157.909000", "140157.912000", "140157.930000", "140157.933000", "140157.936000", "140157.940000", "140157.943000", "140157.947000", "140157.950000", "140157.953000", "140237.839000", "140237.843000", "140237.847000", "140237.850000", "140237.854000", "140237.857000", "140237.861000", "140237.864000", "140237.868000", "140237.871000", "140237.874000", "140237.878000", "140237.881000", "140237.885000", "140237.888000", "140237.892000", "140237.895000", "140237.899000", "140237.902000", "140237.906000", "140237.909000", "140237.912000", "140237.916000", "140237.919000", "140237.923000", "140237.926000", "140237.930000", "140317.840000", "140317.844000", "140317.848000", "140317.851000", "140317.855000", "140317.858000", "140317.862000", "140317.865000", "140317.868000", "140317.872000", "140317.876000", "140317.879000", "140317.882000", "140317.886000", "140317.889000", "140317.893000", "140317.896000", "140317.900000", "140317.903000", "140317.907000", "140317.910000", "140317.913000", "140317.917000", "140317.920000", "140317.924000", "140317.927000", "140317.931000", "140357.840000", "140357.844000", "140357.848000", "140357.851000", "140357.855000", "140357.858000", "140357.861000", "140357.865000", "140357.868000", "140357.872000", "140357.875000", "140357.879000", "140357.882000", "140357.886000", "140357.889000", "140357.893000", "140357.896000", "140357.900000", "140357.903000", "140357.906000", "140357.910000", "140357.913000", "140357.917000", "140357.920000", "140357.924000", "140357.927000", "140357.931000", "140437.860000", "140437.863000", "140437.867000", "140437.870000", "140437.874000", "140437.877000", "140437.881000", "140437.884000", "140437.888000", "140437.891000", "140437.895000", "140437.898000", "140437.902000", "140437.905000", "140437.909000", "140437.912000", "140437.916000", "140437.919000", "140437.923000", "140437.926000", "140437.929000", "140437.933000", "140437.937000", "140437.940000", "140437.943000", "140437.947000", "140437.950000", "140517.841000", "140517.845000", "140517.848000", "140517.852000", "140517.860000", "140517.864000", "140517.867000", "140517.871000", "140517.875000", "140517.878000", "140517.881000", "140517.885000", "140517.888000", "140517.892000", "140517.895000", "140517.899000", "140517.902000", "140517.906000", "140517.909000", "140517.912000", "140517.916000", "140517.921000", "140517.924000", "140517.928000", "140517.931000", "140517.935000", "140517.938000", "140557.840000", "140557.844000", "140557.848000", "140557.859000", "140557.863000", "140557.866000", "140557.870000", "140557.873000", "140557.877000", "140557.880000", "140557.883000", "140557.887000", "140557.890000", "140557.894000", "140557.897000", "140557.901000", "140557.904000", "140557.908000", "140557.911000", "140557.915000", "140557.919000", "140557.922000", "140557.926000", "140557.929000", "140557.933000", "140557.936000", "140637.840000", "140637.844000", "140637.848000", "140637.851000", "140637.855000", "140637.858000", "140637.862000", "140637.865000", "140637.869000", "140637.872000", "140637.876000", "140637.879000", "140637.882000", "140637.895000", "140637.899000", "140637.904000", "140637.908000", "140637.911000", "140637.915000", "140637.923000", "140637.927000", "140637.936000", "140637.940000", "140637.947000", "140637.951000", "140637.954000", "140637.957000", "140717.840000", "140717.843000", "140717.847000", "140717.850000", "140717.854000", "140717.857000", "140717.860000", "140717.864000", "140717.868000", "140717.871000", "140717.874000", "140717.878000", "140717.881000", "140717.885000", "140717.888000", "140717.892000", "140717.895000", "140717.899000", "140717.902000", "140717.906000", "140717.909000", "140717.913000", "140717.916000", "140717.920000", "140717.923000", "140717.926000", "140717.930000", "140757.840000", "140757.844000", "140757.848000", "140757.851000", "140757.855000", "140757.858000", "140757.862000", "140757.865000", "140757.869000", "140757.872000", "140757.876000", "140757.879000", "140757.883000", "140757.886000", "140757.890000", "140757.893000", "140757.897000", "140757.900000", "140757.904000", "140757.907000", "140757.910000", "140757.914000", "140757.917000", "140757.921000", "140757.924000", "140757.928000", "140757.931000", "140828.959000", "140828.962000", "140828.966000", "140828.969000", "140828.973000", "140828.976000", "140828.980000", "140828.983000", "140828.987000", "140828.990000", "140828.994000", "140828.997000", "140829.002000", "140829.005000", "140829.008000", "140829.012000", "140829.025000", "140829.044000", "140829.048000", "140829.051000", "140829.055000"],
