{
  "AcquisitionMatrixPE": 104,
  "AcquisitionNumber": 1,
  "AcquisitionTime": "11:52:14.852500",
  "BandwidthPerPixelPhaseEncode": 17.17,
  "BaseResolution": 104,
  "BodyPartExamined": "BRAIN",
  "CoilString": "HC1-7;NC1_2",
  "ConsistencyInfo": "N4_VE11C_LATEST_20160120",
  "ConversionSoftware": "dcm2niix",
  "ConversionSoftwareVersion": "v1.0.20190902",
  "DerivedVendorReportedEchoSpacing": 0.000560011,
  "DeviceSerialNumber": "167006",
  "DwellTime": 2.1e-06,
  "EchoTime": 0.037,
  "EchoTrainLength": 104,
  "EffectiveEchoSpacing": 0.000560011,
  "FlipAngle": 52,
  "HeudiconvVersion": "0.10.0",
  "ImageComments": "Unaliased_MB4_PE3_LB",
  "ImageOrientationPatientDICOM": [0.997105, 0.0728166, 0.0219155, -0.0606362, 0.935266, -0.348713],
  "ImageType": [
    "ORIGINAL",
    "PRIMARY",
    "P",
    "MB",
    "ND",
    "MOSAIC"
],
  "ImagingFrequency": 123.259,
  "InPlanePhaseEncodingDirectionDICOM": "COL",
  "InstitutionAddress": "Chemin_Queen-Mary_4565_Montreal_District_CA_H3W_1W5",
  "InstitutionName": "IUGM",
  "InstitutionalDepartmentName": "Department",
  "MRAcquisitionType": "2D",
  "MagneticFieldStrength": 3,
  "Manufacturer": "Siemens",
  "ManufacturersModelName": "Prisma_fit",
  "Modality": "MR",
  "MultibandAccelerationFactor": 4,
  "PartialFourier": 1,
  "PatientPosition": "HFS",
  "PercentPhaseFOV": 100,
  "PhaseEncodingDirection": "j",
  "PhaseEncodingSteps": 104,
  "PhaseResolution": 1,
  "PixelBandwidth": 2290,
  "ProcedureStepDescription": "games_mario",
  "ProtocolName": "func_task-mario_run-05",
  "PulseSequenceDetails": "%CustomerSeq%_cmrr_mbep2d_bold",
  "ReceiveCoilActiveElements": "HC1-7;NC1,2",
  "ReceiveCoilName": "HeadNeck_64",
  "ReconMatrixPE": 104,
  "RepetitionTime": 1.49,
  "SAR": 0.0772345,
  "ScanOptions": "FS",
  "ScanningSequence": "EP",
  "SequenceName": "epfid2d1_104",
  "SequenceVariant": "SK_SS",
  "SeriesDescription": "func_task-mario_run-05",
  "SeriesNumber": 23,
  "ShimSetting": [619, -7198, -8857, 613, 55, -8, -6, -13],
  "SliceThickness": 2,
  "SliceTiming": [0, 0.7825, 0.0975, 0.8825, 0.195, 0.98, 0.2925, 1.0775, 0.3925, 1.175, 0.49, 1.2725, 0.5875, 1.3725, 0.685, 0, 0.7825, 0.0975, 0.8825, 0.195, 0.98, 0.2925, 1.0775, 0.3925, 1.175, 0.49, 1.2725, 0.5875, 1.3725, 0.685, 0, 0.7825, 0.0975, 0.8825, 0.195, 0.98, 0.2925, 1.0775, 0.3925, 1.175, 0.49, 1.2725, 0.5875, 1.3725, 0.685, 0, 0.7825, 0.0975, 0.8825, 0.195, 0.98, 0.2925, 1.0775, 0.3925, 1.175, 0.49, 1.2725, 0.5875, 1.3725, 0.685],
  "SoftwareVersions": "syngo_MR_E11",
  "SpacingBetweenSlices": 2,
  "StationName": "MRC35049",
  "TaskName": "mario",
  "TotalReadoutTime": 0.0576811,
  "TxRefAmp": 333.247,
  "WipMemBlock": "072f20bc-cd5a-4b55-ad87-874e7ae91097||Sequence: R016 ve11c/master r/e634e98; Dec 19 2017 11:00:25 by eja",
  "dcmmeta_affine": [
    [-1.9942090511322021, -0.12127243727445602, 0.0917777419090271, 110.22114562988281],
    [-0.14563313126564026, 1.8705319166183472, -0.6927490830421448, -52.42475509643555],
    [0.04383091628551483, 0.6974261403083801, 1.8739465475082397, -72.6419677734375],
    [0.0, 0.0, 0.0, 1.0]
],
  "dcmmeta_reorient_transform": [
    [0.0, -1.0, 0.0, 103.0],
    [1.0, 0.0, 0.0, 0.0],
    [0.0, 0.0, 1.0, 0.0],
    [0.0, 0.0, 0.0, 1.0]
],
  "dcmmeta_shape": [104, 104, 60, 426],
  "dcmmeta_slice_dim": 2,
  "dcmmeta_version": 0.6,
  "global": {
    "const": {
      "AcquisitionMatrix": [104, 0, 0, 104],
      "AngioFlag": "N",
      "BitsAllocated": 16,
      "BitsStored": 16,
      "BodyPartExamined": "BRAIN",
      "Columns": 832,
      "EchoNumbers": 1,
      "EchoTime": 37.0,
      "EchoTrainLength": 104,
      "FlipAngle": 52.0,
      "HighBit": 15,
      "ImageOrientationPatient": [0.99710453841497, 0.07281656508064, 0.0219154585196, -0.0606362181264, 0.93526597018693, -0.3487130827222],
      "ImagePositionPatient": [-779.47901907461, -874.12412155209, 237.10159791543],
      "ImageType": [
        "ORIGINAL",
        "PRIMARY",
        "P",
        "MB",
        "ND",
        "MOSAIC"
],
      "ImagedNucleus": "1H",
      "ImagingFrequency": 123.258926,
      "InPlanePhaseEncodingDirection": "COL",
      "LargestImagePixelValue": 4095,
      "MRAcquisitionType": "2D",
      "MagneticFieldStrength": 3.0,
      "Manufacturer": "SIEMENS",
      "ManufacturerModelName": "Prisma_fit",
      "Modality": "MR",
      "NumberOfAverages": 1.0,
      "NumberOfPhaseEncodingSteps": 104,
      "PercentPhaseFieldOfView": 100.0,
      "PercentSampling": 100.0,
      "PerformedProcedureStepStartTime": "102627.431000",
      "PhotometricInterpretation": "MONOCHROME2",
      "PixelBandwidth": 2290.0,
      "PixelRepresentation": 0,
      "PixelSpacing": [2.0, 2.0],
      "ProtocolName": "func_task-mario_run-05",
      "RepetitionTime": 1490.0,
      "RescaleIntercept": -4096.0,
      "RescaleSlope": 2.0,
      "RescaleType": "US",
      "Rows": 832,
      "SAR": 0.0772345361657,
      "SamplesPerPixel": 1,
      "ScanOptions": "FS",
      "ScanningSequence": "EP",
      "SequenceName": "epfid2d1_104",
      "SequenceVariant": [
        "SK",
        "SS"
],
      "SeriesDescription": "func_task-mario_run-05",
      "SeriesNumber": 23,
      "SeriesTime": "115338.682000",
      "SliceLocation": -44.847058267302,
      "SliceThickness": 2.0,
      "SmallestImagePixelValue": 0,
      "SoftwareVersions": "syngo MR E11",
      "SpacingBetweenSlices": 2.0000000195957,
      "SpecificCharacterSet": "ISO_IR 100",
      "StudyID": "1",
      "StudyTime": "102627.303000",
      "TransmitCoilName": "Body",
      "VariableFlipAngleFlag": "N",
      "WindowCenterWidthExplanation": "Algo1",
      "dBdt": 0.0},
    "slices": {}
  },
  "time": {
    "samples": {
      "AcquisitionNumber": [1, 2, 3, 4, 5, 6, 7, 8, 9, 10, 11, 12, 13, 14, 15, 16, 17, 18, 19, 20, 21, 22, 23, 24, 25, 26, 27, 28, 29, 30, 31, 32, 33, 34, 35, 36, 37, 38, 39, 40, 41, 42, 43, 44, 45, 46, 47, 48, 49, 50, 51, 52, 53, 54, 55, 56, 57, 58, 59, 60, 61, 62, 63, 64, 65, 66, 67, 68, 69, 70, 71, 72, 73, 74, 75, 76, 77, 78, 79, 80, 81, 82, 83, 84, 85, 86, 87, 88, 89, 90, 91, 92, 93, 94, 95, 96, 97, 98, 99, 100, 101, 102, 103, 104, 105, 106, 107, 108, 109, 110, 111, 112, 113, 114, 115, 116, 117, 118, 119, 120, 121, 122, 123, 124, 125, 126, 127, 128, 129, 130, 131, 132, 133, 134, 135, 136, 137, 138, 139, 140, 141, 142, 143, 144, 145, 146, 147, 148, 149, 150, 151, 152, 153, 154, 155, 156, 157, 158, 159, 160, 161, 162, 163, 164, 165, 166, 167, 168, 169, 170, 171, 172, 173, 174, 175, 176, 177, 178, 179, 180, 181, 182, 183, 184, 185, 186, 187, 188, 189, 190, 191, 192, 193, 194, 195, 196, 197, 198, 199, 200, 201, 202, 203, 204, 205, 206, 207, 208, 209, 210, 211, 212, 213, 214, 215, 216, 217, 218, 219, 220, 221, 222, 223, 224, 225, 226, 227, 228, 229, 230, 231, 232, 233, 234, 235, 236, 237, 238, 239, 240, 241, 242, 243, 244, 245, 246, 247, 248, 249, 250, 251, 252, 253, 254, 255, 256, 257, 258, 259, 260, 261, 262, 263, 264, 265, 266, 267, 268, 269, 270, 271, 272, 273, 274, 275, 276, 277, 278, 279, 280, 281, 282, 283, 284, 285, 286, 287, 288, 289, 290, 291, 292, 293, 294, 295, 296, 297, 298, 299, 300, 301, 302, 303, 304, 305, 306, 307, 308, 309, 310, 311, 312, 313, 314, 315, 316, 317, 318, 319, 320, 321, 322, 323, 324, 325, 326, 327, 328, 329, 330, 331, 332, 333, 334, 335, 336, 337, 338, 339, 340, 341, 342, 343, 344, 345, 346, 347, 348, 349, 350, 351, 352, 353, 354, 355, 356, 357, 358, 359, 360, 361, 362, 363, 364, 365, 366, 367, 368, 369, 370, 371, 372, 373, 374, 375, 376, 377, 378, 379, 380, 381, 382, 383, 384, 385, 386, 387, 388, 389, 390, 391, 392, 393, 394, 395, 396, 397, 398, 399, 400, 401, 402, 403, 404, 405, 406, 407, 408, 409, 410, 411, 412, 413, 414, 415, 416, 417, 418, 419, 420, 421, 422, 423, 424, 425, 426],
      "AcquisitionTime": ["115214.852500", "115216.342500", "115217.832500", "115219.322500", "115220.812500", "115222.302500", "115223.792500", "115225.282500", "115226.772500", "115228.262500", "115229.752500", "115231.242500", "115232.732500", "115234.222500", "115235.712500", "115237.202500", "115238.692500", "115240.182500", "115241.672500", "115243.162500", "115244.652500", "115246.142500", "115247.632500", "115249.122500", "115250.612500", "115252.102500", "115253.592500", "115255.082500", "115256.572500", "115258.062500", "115259.552500", "115301.042500", "115302.532500", "115304.022500", "115305.512500", "115307.002500", "115308.492500", "115309.982500", "115311.472500", "115312.962500", "115314.452500", "115315.942500", "115317.432500", "115318.922500", "115320.412500", "115321.902500", "115323.392500", "115324.882500", "115326.372500", "115327.862500", "115329.352500", "115330.842500", "115332.332500", "115333.822500", "115335.312500", "115336.802500", "115338.292500", "115339.782500", "115341.272500", "115342.762500", "115344.252500", "115345.742500", "115347.232500", "115348.722500", "115350.212500", "115351.702500", "115353.192500", "115354.682500", "115356.172500", "115357.662500", "115359.152500", "115400.642500", "115402.132500", "115403.622500", "115405.112500", "115406.602500", "115408.092500", "115409.582500", "115411.072500", "115412.562500", "115414.052500", "115415.542500", "115417.032500", "115418.522500", "115420.012500", "115421.502500", "115422.992500", "115424.482500", "115425.972500", "115427.462500", "115428.952500", "115430.442500", "115431.932500", "115433.422500", "115434.912500", "115436.402500", "115437.892500", "115439.382500", "115440.872500", "115442.362500", "115443.852500", "115445.342500", "115446.832500", "115448.322500", "115449.812500", "115451.302500", "115452.792500", "115454.282500", "115455.772500", "115457.262500", "115458.752500", "115500.242500", "115501.732500", "115503.222500", "115504.712500", "115506.202500", "115507.692500", "115509.182500", "115510.672500", "115512.162500", "115513.652500", "115515.142500", "115516.632500", "115518.122500", "115519.612500", "115521.102500", "115522.592500", "115524.082500", "115525.572500", "115527.062500", "115528.552500", "115530.042500", "115531.532500", "115533.022500", "115534.512500", "115536.002500", "115537.492500", "115538.982500", "115540.472500", "115541.962500", "115543.452500", "115544.942500", "115546.432500", "115547.922500", "115549.412500", "115550.902500", "115552.392500", "115553.882500", "115555.372500", "115556.862500", "115558.352500", "115559.842500", "115601.332500", "115602.822500", "115604.312500", "115605.802500", "115607.292500", "115608.782500", "115610.272500", "115611.762500", "115613.252500", "115614.742500", "115616.232500", "115617.722500", "115619.212500", "115620.702500", "115622.192500", "115623.682500", "115625.172500", "115626.662500", "115628.152500", "115629.642500", "115631.132500", "115632.622500", "115634.112500", "115635.602500", "115637.092500", "115638.582500", "115640.072500", "115641.562500", "115643.052500", "115644.542500", "115646.032500", "115647.522500", "115649.012500", "115650.502500", "115651.992500", "115653.482500", "115654.972500", "115656.462500", "115657.952500", "115659.442500", "115700.932500", "115702.422500", "115703.912500", "115705.402500", "115706.892500", "115708.382500", "115709.872500", "115711.362500", "115712.852500", "115714.342500", "115715.832500", "115717.322500", "115718.812500", "115720.302500", "115721.792500", "115723.282500", "115724.772500", "115726.262500", "115727.752500", "115729.242500", "115730.732500", "115732.222500", "115733.712500", "115735.202500", "115736.692500", "115738.182500", "115739.672500", "115741.162500", "115742.652500", "115744.142500", "115745.632500", "115747.122500", "115748.612500", "115750.102500", "115751.592500", "115753.082500", "115754.572500", "115756.062500", "115757.552500", "115759.042500", "115800.532500", "115802.022500", "115803.512500", "115805.002500", "115806.492500", "115807.982500", "115809.472500", "115810.962500", "115812.452500", "115813.942500", "115815.432500", "115816.922500", "115818.412500", "115819.902500", "115821.392500", "115822.882500", "115824.372500", "115825.862500", "115827.352500", "115828.842500", "115830.332500", "115831.822500", "115833.312500", "115834.802500", "115836.292500", "115837.782500", "115839.272500", "115840.762500", "115842.252500", "115843.742500", "115845.232500", "115846.722500", "115848.212500", "115849.702500", "115851.192500", "115852.682500", "115854.172500", "115855.662500", "115857.152500", "115858.642500", "115900.132500", "115901.622500", "115903.112500", "115904.602500", "115906.092500", "115907.582500", "115909.072500", "115910.562500", "115912.052500", "115913.542500", "115915.032500", "115916.522500", "115918.012500", "115919.502500", "115920.992500", "115922.482500", "115923.972500", "115925.462500", "115926.952500", "115928.442500", "115929.932500", "115931.422500", "115932.912500", "115934.402500", "115935.892500", "115937.382500", "115938.872500", "115940.362500", "115941.852500", "115943.342500", "115944.832500", "115946.322500", "115947.812500", "115949.302500", "115950.792500", "115952.282500", "115953.772500", "115955.262500", "115956.752500", "115958.242500", "115959.732500", "120001.222500", "120002.712500", "120004.202500", "120005.692500", "120007.182500", "120008.672500", "120010.162500", "120011.652500", "120013.142500", "120014.632500", "120016.122500", "120017.612500", "120019.102500", "120020.592500", "120022.082500", "120023.572500", "120025.062500", "120026.552500", "120028.042500", "120029.532500", "120031.022500", "120032.512500", "120034.002500", "120035.492500", "120036.982500", "120038.472500", "120039.962500", "120041.452500", "120042.942500", "120044.432500", "120045.922500", "120047.412500", "120048.902500", "120050.392500", "120051.882500", "120053.372500", "120054.862500", "120056.352500", "120057.842500", "120059.332500", "120100.822500", "120102.312500", "120103.802500", "120105.292500", "120106.782500", "120108.272500", "120109.762500", "120111.252500", "120112.742500", "120114.232500", "120115.722500", "120117.212500", "120118.702500", "120120.192500", "120121.682500", "120123.172500", "120124.662500", "120126.152500", "120127.642500", "120129.132500", "120130.622500", "120132.112500", "120133.602500", "120135.092500", "120136.582500", "120138.072500", "120139.562500", "120141.052500", "120142.542500", "120144.032500", "120145.522500", "120147.012500", "120148.502500", "120149.992500", "120151.482500", "120152.972500", "120154.462500", "120155.952500", "120157.442500", "120158.932500", "120200.422500", "120201.912500", "120203.402500", "120204.892500", "120206.382500", "120207.872500", "120209.362500", "120210.852500", "120212.342500", "120213.832500", "120215.322500", "120216.812500", "120218.302500", "120219.792500", "120221.282500", "120222.772500", "120224.262500", "120225.752500", "120227.242500", "120228.732500", "120230.222500", "120231.712500", "120233.202500", "120234.692500", "120236.182500", "120237.672500", "120239.162500", "120240.652500", "120242.142500", "120243.632500", "120245.122500", "120246.612500", "120248.102500"],
      "ContentTime": ["115338.684000", "115338.687000", "115338.689000", "115338.692000", "115338.694000", "115338.697000", "115338.699000", "115338.702000", "115338.704000", "115338.707000", "115338.711000", "115338.713000", "115338.716000", "115338.718000", "115338.721000", "115338.723000", "115338.726000", "115338.728000", "115338.731000", "115338.733000", "115338.736000", "115338.738000", "115338.741000", "115338.743000", "115338.746000", "115338.748000", "115338.751000", "115338.753000", "115338.756000", "115358.600000", "115358.606000", "115358.609000", "115358.611000", "115358.614000", "115358.616000", "115358.619000", "115358.621000", "115358.624000", "115358.626000", "115358.629000", "115358.631000", "115358.634000", "115358.636000", "115358.639000", "115358.641000", "115358.644000", "115358.646000", "115358.648000", "115358.651000", "115418.610000", "115418.613000", "115418.615000", "115418.618000", "115418.621000", "115418.623000", "115418.625000", "115418.628000", "115418.630000", "115418.633000", "115418.635000", "115418.638000", "115418.640000", "115418.643000", "115418.645000", "115418.648000", "115418.650000", "115418.653000", "115418.655000", "115418.658000", "115438.974000", "115438.977000", "115438.979000", "115438.982000", "115438.985000", "115438.987000", "115438.990000", "115438.992000", "115438.995000", "115438.997000", "115439.000000", "115439.002000", "115439.005000", "115439.007000", "115439.010000", "115439.012000", "115439.015000", "115439.017000", "115439.020000", "115439.022000", "115458.609000", "115458.611000", "115458.614000", "115458.616000", "115458.619000", "115458.621000", "115458.624000", "115458.626000", "115458.629000", "115458.631000", "115458.634000", "115458.636000", "115458.639000", "115458.641000", "115458.644000", "115458.646000", "115458.653000", "115458.655000", "115458.658000", "115458.661000", "115538.634000", "115538.636000", "115538.639000", "115538.641000", "115538.644000", "115538.647000", "115538.649000", "115538.652000", "115538.654000", "115538.657000", "115538.659000", "115538.662000", "115538.664000", "115538.667000", "115538.669000", "115538.672000", "115538.674000", "115538.677000", "115538.679000", "115538.682000", "115538.684000", "115538.687000", "115538.689000", "115538.692000", "115538.695000", "115538.697000", "115538.699000", "115618.635000", "115618.638000", "115618.641000", "115618.648000", "115618.651000", "115618.653000", "115618.656000", "115618.658000", "115618.661000", "115618.663000", "115618.666000", "115618.668000", "115618.671000", "115618.673000", "115618.676000", "115618.678000", "115618.681000", "115618.683000", "115618.686000", "115618.688000", "115618.691000", "115618.693000", "115618.696000", "115618.698000", "115618.701000", "115618.703000", "115658.643000", "115658.646000", "115658.648000", "115658.651000", "115658.653000", "115658.656000", "115658.659000", "115658.661000", "115658.670000", "115658.673000", "115658.676000", "115658.678000", "115658.681000", "115658.683000", "115658.686000", "115658.688000", "115658.691000", "115658.693000", "115658.696000", "115658.698000", "115658.701000", "115658.703000", "115658.706000", "115658.708000", "115658.711000", "115658.713000", "115658.716000", "115738.650000", "115738.653000", "115738.656000", "115738.658000", "115738.661000", "115738.663000", "115738.666000", "115738.668000", "115738.671000", "115738.673000", "115738.676000", "115738.678000", "115738.681000", "115738.683000", "115738.686000", "115738.688000", "115738.691000", "115738.694000", "115738.696000", "115738.699000", "115738.701000", "115738.704000", "115738.706000", "115738.709000", "115738.711000", "115738.714000", "115738.716000", "115818.636000", "115818.639000", "115818.642000", "115818.644000", "115818.647000", "115818.649000", "115818.652000", "115818.654000", "115818.657000", "115818.659000", "115818.662000", "115818.664000", "115818.667000", "115818.669000", "115818.672000", "115818.674000", "115818.677000", "115818.679000", "115818.682000", "115818.684000", "115818.687000", "115818.689000", "115818.692000", "115818.694000", "115818.697000", "115818.699000", "115818.702000", "115858.644000", "115858.647000", "115858.649000", "115858.652000", "115858.656000", "115858.659000", "115858.661000", "115858.664000", "115858.666000", "115858.669000", "115858.671000", "115858.674000", "115858.676000", "115858.679000", "115858.681000", "115858.684000", "115858.687000", "115858.689000", "115858.692000", "115858.694000", "115858.697000", "115858.699000", "115858.702000", "115858.704000", "115858.707000", "115858.709000", "115858.711000", "115938.635000", "115938.637000", "115938.640000", "115938.642000", "115938.645000", "115938.647000", "115938.650000", "115938.652000", "115938.655000", "115938.658000", "115938.660000", "115938.663000", "115938.665000", "115938.668000", "115938.670000", "115938.673000", "115938.675000", "115938.678000", "115938.680000", "115938.683000", "115938.685000", "115938.688000", "115938.690000", "115938.693000", "115938.695000", "115938.698000", "115938.700000", "120018.638000", "120018.640000", "120018.643000", "120018.645000", "120018.648000", "120018.651000", "120018.653000", "120018.655000", "120018.658000", "120018.661000", "120018.663000", "120018.666000", "120018.668000", "120018.671000", "120018.673000", "120018.676000", "120018.678000", "120018.681000", "120018.683000", "120018.686000", "120018.688000", "120018.691000", "120018.693000", "120018.696000", "120018.698000", "120018.701000", "120018.703000", "120038.573000", "120038.576000", "120038.578000", "120038.581000", "120038.583000", "120038.586000", "120038.588000", "120038.591000", "120038.593000", "120038.596000", "120038.598000", "120038.601000", "120038.603000", "120118.650000", "120118.653000", "120118.655000", "120118.658000", "120118.660000", "120118.663000", "120118.665000", "120118.668000", "120118.670000", "120118.673000", "120118.675000", "120118.678000", "120118.680000", "120118.683000", "120118.685000", "120118.688000", "120118.690000", "120118.693000", "120118.695000", "120118.698000", "120118.700000", "120118.703000", "120118.705000", "120118.708000", "120118.711000", "120118.713000", "120118.716000", "120158.635000", "120158.638000", "120158.641000", "120158.643000", "120158.646000", "120158.648000", "120158.651000", "120158.653000", "120158.656000", "120158.658000", "120158.661000", "120158.663000", "120158.666000", "120158.668000", "120158.671000", "120158.673000", "120158.676000", "120158.678000", "120158.681000", "120158.683000", "120158.686000", "120158.688000", "120158.691000", "120158.693000", "120158.696000", "120158.698000", "120158.701000", "120238.667000", "120238.675000", "120238.677000", "120238.680000", "120238.683000", "120238.685000", "120238.688000", "120238.690000", "120238.693000", "120238.695000", "120238.698000", "120238.700000", "120238.703000", "120238.705000", "120238.708000", "120238.710000", "120238.713000", "120238.715000", "120238.717000", "120238.720000", "120238.722000", "120238.725000", "120238.727000", "120238.730000", "120238.732000", "120238.735000", "120238.737000", "120251.272000", "120251.274000", "120251.277000", "120251.279000", "120251.282000", "120251.292000", "120251.294000", "120251.296000"],
      "InstanceCreationTime": ["115338.684000", "115338.687000", "115338.689000", "115338.692000", "115338.694000", "115338.697000", "115338.699000", "115338.702000", "115338.704000", "115338.707000", "115338.711000", "115338.713000", "115338.716000", "115338.718000", "115338.721000", "115338.723000", "115338.726000", "115338.728000", "115338.731000", "115338.733000", "115338.736000", "115338.738000", "115338.741000", "115338.743000", "115338.746000", "115338.748000", "115338.751000", "115338.753000", "115338.756000", "115358.600000", "115358.606000", "115358.609000", "115358.611000", "115358.614000", "115358.616000", "115358.619000", "115358.621000", "115358.624000", "115358.626000", "115358.629000", "115358.631000", "115358.634000", "115358.636000", "115358.639000", "115358.641000", "115358.644000", "115358.646000", "115358.648000", "115358.651000", "115418.610000", "115418.613000", "115418.615000", "115418.618000", "115418.621000", "115418.623000", "115418.625000", "115418.628000", "115418.630000", "115418.633000", "115418.635000", "115418.638000", "115418.640000", "115418.643000", "115418.645000", "115418.648000", "115418.650000", "115418.653000", "115418.655000", "115418.658000", "115438.974000", "115438.977000", "115438.979000", "115438.982000", "115438.985000", "115438.987000", "115438.990000", "115438.992000", "115438.995000", "115438.997000", "115439.000000", "115439.002000", "115439.005000", "115439.007000", "115439.010000", "115439.012000", "115439.015000", "115439.017000", "115439.020000", "115439.022000", "115458.609000", "115458.611000", "115458.614000", "115458.616000", "115458.619000", "115458.621000", "115458.624000", "115458.626000", "115458.629000", "115458.631000", "115458.634000", "115458.636000", "115458.639000", "115458.641000", "115458.644000", "115458.646000", "115458.653000", "115458.655000", "115458.658000", "115458.661000", "115538.634000", "115538.636000", "115538.639000", "115538.641000", "115538.644000", "115538.647000", "115538.649000", "115538.652000", "115538.654000", "115538.657000", "115538.659000", "115538.662000", "115538.664000", "115538.667000", "115538.669000", "115538.672000", "115538.674000", "115538.677000", "115538.679000", "115538.682000", "115538.684000", "115538.687000", "115538.689000", "115538.692000", "115538.695000", "115538.697000", "115538.699000", "115618.635000", "115618.638000", "115618.641000", "115618.648000", "115618.651000", "115618.653000", "115618.656000", "115618.658000", "115618.661000", "115618.663000", "115618.666000", "115618.668000", "115618.671000", "115618.673000", "115618.676000", "115618.678000", "115618.681000", "115618.683000", "115618.686000", "115618.688000", "115618.691000", "115618.693000", "115618.696000", "115618.698000", "115618.701000", "115618.703000", "115658.643000", "115658.646000", "115658.648000", "115658.651000", "115658.653000", "115658.656000", "115658.659000", "115658.661000", "115658.670000", "115658.673000", "115658.676000", "115658.678000", "115658.681000", "115658.683000", "115658.686000", "115658.688000", "115658.691000", "115658.693000", "115658.696000", "115658.698000", "115658.701000", "115658.703000", "115658.706000", "115658.708000", "115658.711000", "115658.713000", "115658.716000", "115738.650000", "115738.653000", "115738.656000", "115738.658000", "115738.661000", "115738.663000", "115738.666000", "115738.668000", "115738.671000", "115738.673000", "115738.676000", "115738.678000", "115738.681000", "115738.683000", "115738.686000", "115738.688000", "115738.691000", "115738.694000", "115738.696000", "115738.699000", "115738.701000", "115738.704000", "115738.706000", "115738.709000", "115738.711000", "115738.714000", "115738.716000", "115818.636000", "115818.639000", "115818.642000", "115818.644000", "115818.647000", "115818.649000", "115818.652000", "115818.654000", "115818.657000", "115818.659000", "115818.662000", "115818.664000", "115818.667000", "115818.669000", "115818.672000", "115818.674000", "115818.677000", "115818.679000", "115818.682000", "115818.684000", "115818.687000", "115818.689000", "115818.692000", "115818.694000", "115818.697000", "115818.699000", "115818.702000", "115858.644000", "115858.647000", "115858.649000", "115858.652000", "115858.656000", "115858.659000", "115858.661000", "115858.664000", "115858.666000", "115858.669000", "115858.671000", "115858.674000", "115858.676000", "115858.679000", "115858.681000", "115858.684000", "115858.687000", "115858.689000", "115858.692000", "115858.694000", "115858.697000", "115858.699000", "115858.702000", "115858.704000", "115858.707000", "115858.709000", "115858.711000", "115938.635000", "115938.637000", "115938.640000", "115938.642000", "115938.645000", "115938.647000", "115938.650000", "115938.652000", "115938.655000", "115938.658000", "115938.660000", "115938.663000", "115938.665000", "115938.668000", "115938.670000", "115938.673000", "115938.675000", "115938.678000", "115938.680000", "115938.683000", "115938.685000", "115938.688000", "115938.690000", "115938.693000", "115938.695000", "115938.698000", "115938.700000", "120018.638000", "120018.640000", "120018.643000", "120018.645000", "120018.648000", "120018.651000", "120018.653000", "120018.655000", "120018.658000", "120018.661000", "120018.663000", "120018.666000", "120018.668000", "120018.671000", "120018.673000", "120018.676000", "120018.678000", "120018.681000", "120018.683000", "120018.686000", "120018.688000", "120018.691000", "120018.693000", "120018.696000", "120018.698000", "120018.701000", "120018.703000", "120038.573000", "120038.576000", "120038.578000", "120038.581000", "120038.583000", "120038.586000", "120038.588000", "120038.591000", "120038.593000", "120038.596000", "120038.598000", "120038.601000", "120038.603000", "120118.650000", "120118.653000", "120118.655000", "120118.658000", "120118.660000", "120118.663000", "120118.665000", "120118.668000", "120118.670000", "120118.673000", "120118.675000", "120118.678000", "120118.680000", "120118.683000", "120118.685000", "120118.688000", "120118.690000", "120118.693000", "120118.695000", "120118.698000", "120118.700000", "120118.703000", "120118.705000", "120118.708000", "120118.711000", "120118.713000", "120118.716000", "120158.635000", "120158.638000", "120158.641000", "120158.643000", "120158.646000", "120158.648000", "120158.651000", "120158.653000", "120158.656000", "120158.658000", "120158.661000", "120158.663000", "120158.666000", "120158.668000", "120158.671000", "120158.673000", "120158.676000", "120158.678000", "120158.681000", "120158.683000", "120158.686000", "120158.688000", "120158.691000", "120158.693000", "120158.696000", "120158.698000", "120158.701000", "120238.667000", "120238.675000", "120238.677000", "120238.680000", "120238.683000", "120238.685000", "120238.688000", "120238.690000", "120238.693000", "120238.695000", "120238.698000", "120238.700000", "120238.703000", "120238.705000", "120238.708000", "120238.710000", "120238.713000", "120238.715000", "120238.717000", "120238.720000", "120238.722000", "120238.725000", "120238.727000", "120238.730000", "120238.732000", "120238.735000", "120238.737000", "120251.272000", "120251.274000", "120251.277000", "120251.279000", "120251.282000", "120251.292000", "120251.294000", "120251.296000"],
