{
  "AcquisitionMatrixPE": 104,
  "AcquisitionNumber": 1,
  "AcquisitionTime": "11:25:40.402500",
  "BandwidthPerPixelPhaseEncode": 17.17,
  "BaseResolution": 104,
  "BodyPartExamined": "BRAIN",
  "CoilString": "HC1-7;NC1_2",
  "ConsistencyInfo": "N4_VE11C_LATEST_20160120",
  "ConversionSoftware": "dcm2niix",
  "ConversionSoftwareVersion": "v1.0.20190902",
  "DerivedVendorReportedEchoSpacing": 0.000560011,
  "DeviceSerialNumber": "167006",
  "DwellTime": 2.1e-06,
  "EchoTime": 0.037,
  "EchoTrainLength": 104,
  "EffectiveEchoSpacing": 0.000560011,
  "FlipAngle": 52,
  "HeudiconvVersion": "0.10.0",
  "ImageComments": "Unaliased_MB4_PE3_LB",
  "ImageOrientationPatientDICOM": [0.997105, 0.0728166, 0.0219155, -0.0606362, 0.935266, -0.348713],
  "ImageType": [
    "ORIGINAL",
    "PRIMARY",
    "M",
    "MB",
    "ND",
    "MOSAIC"
],
  "ImagingFrequency": 123.259,
  "InPlanePhaseEncodingDirectionDICOM": "COL",
  "InstitutionAddress": "Chemin_Queen-Mary_4565_Montreal_District_CA_H3W_1W5",
  "InstitutionName": "IUGM",
  "InstitutionalDepartmentName": "Department",
  "MRAcquisitionType": "2D",
  "MagneticFieldStrength": 3,
  "Manufacturer": "Siemens",
  "ManufacturersModelName": "Prisma_fit",
  "Modality": "MR",
  "MultibandAccelerationFactor": 4,
  "PartialFourier": 1,
  "PatientPosition": "HFS",
  "PercentPhaseFOV": 100,
  "PhaseEncodingDirection": "j",
  "PhaseEncodingSteps": 104,
  "PhaseResolution": 1,
  "PixelBandwidth": 2290,
  "ProcedureStepDescription": "games_mario",
  "ProtocolName": "func_task-mario_run-03",
  "PulseSequenceDetails": "%CustomerSeq%_cmrr_mbep2d_bold",
  "ReceiveCoilActiveElements": "HC1-7;NC1,2",
  "ReceiveCoilName": "HeadNeck_64",
  "ReconMatrixPE": 104,
  "RepetitionTime": 1.49,
  "SAR": 0.0772345,
  "ScanOptions": "FS",
  "ScanningSequence": "EP",
  "SequenceName": "epfid2d1_104",
  "SequenceVariant": "SK_SS",
  "SeriesDescription": "func_task-mario_run-03",
  "SeriesNumber": 16,
  "ShimSetting": [619, -7198, -8857, 613, 55, -8, -6, -13],
  "SliceThickness": 2,
  "SliceTiming": [0, 0.785, 0.1, 0.8825, 0.1975, 0.98, 0.295, 1.08, 0.3925, 1.1775, 0.49, 1.275, 0.59, 1.3725, 0.6875, 0, 0.785, 0.1, 0.8825, 0.1975, 0.98, 0.295, 1.08, 0.3925, 1.1775, 0.49, 1.275, 0.59, 1.3725, 0.6875, 0, 0.785, 0.1, 0.8825, 0.1975, 0.98, 0.295, 1.08, 0.3925, 1.1775, 0.49, 1.275, 0.59, 1.3725, 0.6875, 0, 0.785, 0.1, 0.8825, 0.1975, 0.98, 0.295, 1.08, 0.3925, 1.1775, 0.49, 1.275, 0.59, 1.3725, 0.6875],
  "SoftwareVersions": "syngo_MR_E11",
  "SpacingBetweenSlices": 2,
  "StationName": "MRC35049",
  "TaskName": "mario",
  "TotalReadoutTime": 0.0576811,
  "TxRefAmp": 333.247,
  "WipMemBlock": "4db61fd3-d4a1-46a9-b0b1-f3ab0404dffb||Sequence: R016 ve11c/master r/e634e98; Dec 19 2017 11:00:25 by eja",
  "dcmmeta_affine": [
    [-1.9942090511322021, -0.12127243727445602, 0.0917777419090271, 110.22114562988281],
    [-0.14563313126564026, 1.8705319166183472, -0.6927490830421448, -52.42475509643555],
    [0.04383091628551483, 0.6974261403083801, 1.8739465475082397, -72.6419677734375],
    [0.0, 0.0, 0.0, 1.0]
],
  "dcmmeta_reorient_transform": [
    [0.0, -1.0, 0.0, 103.0],
    [1.0, 0.0, 0.0, 0.0],
    [0.0, 0.0, 1.0, 0.0],
    [0.0, 0.0, 0.0, 1.0]
],
  "dcmmeta_shape": [104, 104, 60, 464],
  "dcmmeta_slice_dim": 2,
  "dcmmeta_version": 0.6,
  "global": {
    "const": {
      "AcquisitionMatrix": [104, 0, 0, 104],
      "AngioFlag": "N",
      "BitsAllocated": 16,
      "BitsStored": 16,
      "BodyPartExamined": "BRAIN",
      "Columns": 832,
      "EchoNumbers": 1,
      "EchoTime": 37.0,
      "EchoTrainLength": 104,
      "FlipAngle": 52.0,
      "HighBit": 15,
      "ImageOrientationPatient": [0.99710453841497, 0.07281656508064, 0.0219154585196, -0.0606362181264, 0.93526597018693, -0.3487130827222],
      "ImagePositionPatient": [-779.47901907461, -874.12412155209, 237.10159791543],
      "ImageType": [
        "ORIGINAL",
        "PRIMARY",
        "M",
        "MB",
        "ND",
        "MOSAIC"
],
      "ImagedNucleus": "1H",
      "ImagingFrequency": 123.258922,
      "InPlanePhaseEncodingDirection": "COL",
      "MRAcquisitionType": "2D",
      "MagneticFieldStrength": 3.0,
      "Manufacturer": "SIEMENS",
      "ManufacturerModelName": "Prisma_fit",
      "Modality": "MR",
      "NumberOfAverages": 1.0,
      "NumberOfPhaseEncodingSteps": 104,
      "PercentPhaseFieldOfView": 100.0,
      "PercentSampling": 100.0,
      "PerformedProcedureStepStartTime": "102627.431000",
      "PhotometricInterpretation": "MONOCHROME2",
      "PixelBandwidth": 2290.0,
      "PixelRepresentation": 0,
      "PixelSpacing": [2.0, 2.0],
      "ProtocolName": "func_task-mario_run-03",
      "RepetitionTime": 1490.0,
      "Rows": 832,
      "SAR": 0.0772345361657,
      "SamplesPerPixel": 1,
      "ScanOptions": "FS",
      "ScanningSequence": "EP",
      "SequenceName": "epfid2d1_104",
      "SequenceVariant": [
        "SK",
        "SS"
],
      "SeriesDescription": "func_task-mario_run-03",
      "SeriesNumber": 16,
      "SeriesTime": "112658.443000",
      "SliceLocation": -44.847058267302,
      "SliceThickness": 2.0,
      "SmallestImagePixelValue": 0,
      "SoftwareVersions": "syngo MR E11",
      "SpacingBetweenSlices": 2.0000000195957,
      "SpecificCharacterSet": "ISO_IR 100",
      "StudyID": "1",
      "StudyTime": "102627.303000",
      "TransmitCoilName": "Body",
      "VariableFlipAngleFlag": "N",
      "WindowCenterWidthExplanation": "Algo1",
      "dBdt": 0.0},
    "slices": {}
  },
  "time": {
    "samples": {
      "AcquisitionNumber": [1, 2, 3, 4, 5, 6, 7, 8, 9, 10, 11, 12, 13, 14, 15, 16, 17, 18, 19, 20, 21, 22, 23, 24, 25, 26, 27, 28, 29, 30, 31, 32, 33, 34, 35, 36, 37, 38, 39, 40, 41, 42, 43, 44, 45, 46, 47, 48, 49, 50, 51, 52, 53, 54, 55, 56, 57, 58, 59, 60, 61, 62, 63, 64, 65, 66, 67, 68, 69, 70, 71, 72, 73, 74, 75, 76, 77, 78, 79, 80, 81, 82, 83, 84, 85, 86, 87, 88, 89, 90, 91, 92, 93, 94, 95, 96, 97, 98, 99, 100, 101, 102, 103, 104, 105, 106, 107, 108, 109, 110, 111, 112, 113, 114, 115, 116, 117, 118, 119, 120, 121, 122, 123, 124, 125, 126, 127, 128, 129, 130, 131, 132, 133, 134, 135, 136, 137, 138, 139, 140, 141, 142, 143, 144, 145, 146, 147, 148, 149, 150, 151, 152, 153, 154, 155, 156, 157, 158, 159, 160, 161, 162, 163, 164, 165, 166, 167, 168, 169, 170, 171, 172, 173, 174, 175, 176, 177, 178, 179, 180, 181, 182, 183, 184, 185, 186, 187, 188, 189, 190, 191, 192, 193, 194, 195, 196, 197, 198, 199, 200, 201, 202, 203, 204, 205, 206, 207, 208, 209, 210, 211, 212, 213, 214, 215, 216, 217, 218, 219, 220, 221, 222, 223, 224, 225, 226, 227, 228, 229, 230, 231, 232, 233, 234, 235, 236, 237, 238, 239, 240, 241, 242, 243, 244, 245, 246, 247, 248, 249, 250, 251, 252, 253, 254, 255, 256, 257, 258, 259, 260, 261, 262, 263, 264, 265, 266, 267, 268, 269, 270, 271, 272, 273, 274, 275, 276, 277, 278, 279, 280, 281, 282, 283, 284, 285, 286, 287, 288, 289, 290, 291, 292, 293, 294, 295, 296, 297, 298, 299, 300, 301, 302, 303, 304, 305, 306, 307, 308, 309, 310, 311, 312, 313, 314, 315, 316, 317, 318, 319, 320, 321, 322, 323, 324, 325, 326, 327, 328, 329, 330, 331, 332, 333, 334, 335, 336, 337, 338, 339, 340, 341, 342, 343, 344, 345, 346, 347, 348, 349, 350, 351, 352, 353, 354, 355, 356, 357, 358, 359, 360, 361, 362, 363, 364, 365, 366, 367, 368, 369, 370, 371, 372, 373, 374, 375, 376, 377, 378, 379, 380, 381, 382, 383, 384, 385, 386, 387, 388, 389, 390, 391, 392, 393, 394, 395, 396, 397, 398, 399, 400, 401, 402, 403, 404, 405, 406, 407, 408, 409, 410, 411, 412, 413, 414, 415, 416, 417, 418, 419, 420, 421, 422, 423, 424, 425, 426, 427, 428, 429, 430, 431, 432, 433, 434, 435, 436, 437, 438, 439, 440, 441, 442, 443, 444, 445, 446, 447, 448, 449, 450, 451, 452, 453, 454, 455, 456, 457, 458, 459, 460, 461, 462, 463, 464],
      "AcquisitionTime": ["112540.402500", "112541.892500", "112543.382500", "112544.872500", "112546.362500", "112547.852500", "112549.342500", "112550.832500", "112552.322500", "112553.812500", "112555.302500", "112556.792500", "112558.282500", "112559.772500", "112601.262500", "112602.752500", "112604.242500", "112605.732500", "112607.222500", "112608.712500", "112610.202500", "112611.692500", "112613.182500", "112614.672500", "112616.162500", "112617.652500", "112619.142500", "112620.632500", "112622.122500", "112623.612500", "112625.102500", "112626.592500", "112628.082500", "112629.572500", "112631.062500", "112632.552500", "112634.042500", "112635.532500", "112637.022500", "112638.512500", "112640.002500", "112641.492500", "112642.982500", "112644.472500", "112645.962500", "112647.452500", "112648.942500", "112650.432500", "112651.922500", "112653.412500", "112654.902500", "112656.392500", "112657.882500", "112659.372500", "112700.862500", "112702.352500", "112703.842500", "112705.332500", "112706.822500", "112708.312500", "112709.802500", "112711.292500", "112712.782500", "112714.272500", "112715.762500", "112717.252500", "112718.742500", "112720.232500", "112721.722500", "112723.212500", "112724.702500", "112726.192500", "112727.682500", "112729.172500", "112730.662500", "112732.152500", "112733.642500", "112735.132500", "112736.622500", "112738.112500", "112739.602500", "112741.092500", "112742.582500", "112744.072500", "112745.562500", "112747.052500", "112748.542500", "112750.032500", "112751.522500", "112753.012500", "112754.502500", "112755.992500", "112757.482500", "112758.972500", "112800.462500", "112801.952500", "112803.442500", "112804.932500", "112806.422500", "112807.912500", "112809.402500", "112810.892500", "112812.382500", "112813.872500", "112815.362500", "112816.852500", "112818.342500", "112819.832500", "112821.322500", "112822.812500", "112824.302500", "112825.792500", "112827.282500", "112828.772500", "112830.262500", "112831.752500", "112833.242500", "112834.732500", "112836.222500", "112837.712500", "112839.202500", "112840.692500", "112842.182500", "112843.672500", "112845.162500", "112846.652500", "112848.142500", "112849.632500", "112851.122500", "112852.612500", "112854.102500", "112855.592500", "112857.082500", "112858.572500", "112900.062500", "112901.552500", "112903.042500", "112904.532500", "112906.022500", "112907.512500", "112909.002500", "112910.492500", "112911.982500", "112913.472500", "112914.962500", "112916.452500", "112917.942500", "112919.432500", "112920.922500", "112922.412500", "112923.902500", "112925.392500", "112926.882500", "112928.372500", "112929.862500", "112931.352500", "112932.842500", "112934.332500", "112935.822500", "112937.312500", "112938.802500", "112940.292500", "112941.782500", "112943.272500", "112944.762500", "112946.252500", "112947.742500", "112949.232500", "112950.722500", "112952.212500", "112953.702500", "112955.192500", "112956.682500", "112958.172500", "112959.662500", "113001.152500", "113002.642500", "113004.132500", "113005.622500", "113007.112500", "113008.602500", "113010.092500", "113011.582500", "113013.072500", "113014.562500", "113016.052500", "113017.542500", "113019.032500", "113020.522500", "113022.012500", "113023.502500", "113024.992500", "113026.482500", "113027.972500", "113029.462500", "113030.952500", "113032.442500", "113033.932500", "113035.422500", "113036.912500", "113038.402500", "113039.892500", "113041.382500", "113042.872500", "113044.362500", "113045.852500", "113047.342500", "113048.832500", "113050.322500", "113051.812500", "113053.302500", "113054.792500", "113056.282500", "113057.772500", "113059.262500", "113100.752500", "113102.242500", "113103.732500", "113105.222500", "113106.712500", "113108.202500", "113109.692500", "113111.182500", "113112.672500", "113114.162500", "113115.652500", "113117.142500", "113118.632500", "113120.122500", "113121.612500", "113123.102500", "113124.592500", "113126.082500", "113127.572500", "113129.062500", "113130.552500", "113132.042500", "113133.532500", "113135.022500", "113136.512500", "113138.002500", "113139.492500", "113140.982500", "113142.472500", "113143.962500", "113145.452500", "113146.942500", "113148.432500", "113149.922500", "113151.412500", "113152.902500", "113154.392500", "113155.882500", "113157.372500", "113158.862500", "113200.352500", "113201.842500", "113203.332500", "113204.822500", "113206.312500", "113207.802500", "113209.292500", "113210.782500", "113212.272500", "113213.762500", "113215.252500", "113216.742500", "113218.232500", "113219.722500", "113221.212500", "113222.702500", "113224.192500", "113225.682500", "113227.172500", "113228.662500", "113230.152500", "113231.642500", "113233.132500", "113234.622500", "113236.112500", "113237.602500", "113239.092500", "113240.582500", "113242.072500", "113243.562500", "113245.052500", "113246.542500", "113248.032500", "113249.522500", "113251.012500", "113252.502500", "113253.992500", "113255.482500", "113256.972500", "113258.462500", "113259.952500", "113301.442500", "113302.932500", "113304.422500", "113305.912500", "113307.402500", "113308.892500", "113310.382500", "113311.872500", "113313.362500", "113314.852500", "113316.342500", "113317.832500", "113319.322500", "113320.812500", "113322.302500", "113323.792500", "113325.282500", "113326.772500", "113328.262500", "113329.752500", "113331.242500", "113332.732500", "113334.222500", "113335.712500", "113337.202500", "113338.692500", "113340.182500", "113341.672500", "113343.162500", "113344.652500", "113346.142500", "113347.632500", "113349.122500", "113350.612500", "113352.102500", "113353.592500", "113355.082500", "113356.572500", "113358.062500", "113359.552500", "113401.042500", "113402.532500", "113404.022500", "113405.512500", "113407.002500", "113408.492500", "113409.982500", "113411.472500", "113412.962500", "113414.452500", "113415.942500", "113417.432500", "113418.922500", "113420.412500", "113421.902500", "113423.392500", "113424.882500", "113426.372500", "113427.862500", "113429.352500", "113430.842500", "113432.332500", "113433.822500", "113435.312500", "113436.802500", "113438.292500", "113439.782500", "113441.272500", "113442.762500", "113444.252500", "113445.742500", "113447.232500", "113448.722500", "113450.212500", "113451.702500", "113453.192500", "113454.682500", "113456.172500", "113457.662500", "113459.152500", "113500.642500", "113502.132500", "113503.622500", "113505.112500", "113506.602500", "113508.092500", "113509.582500", "113511.072500", "113512.562500", "113514.052500", "113515.542500", "113517.032500", "113518.522500", "113520.012500", "113521.502500", "113522.992500", "113524.482500", "113525.972500", "113527.462500", "113528.952500", "113530.442500", "113531.932500", "113533.422500", "113534.912500", "113536.402500", "113537.892500", "113539.382500", "113540.872500", "113542.362500", "113543.852500", "113545.342500", "113546.832500", "113548.322500", "113549.812500", "113551.302500", "113552.792500", "113554.282500", "113555.772500", "113557.262500", "113558.752500", "113600.242500", "113601.732500", "113603.222500", "113604.712500", "113606.202500", "113607.692500", "113609.182500", "113610.672500", "113612.162500", "113613.652500", "113615.142500", "113616.632500", "113618.122500", "113619.612500", "113621.102500", "113622.592500", "113624.082500", "113625.572500", "113627.062500", "113628.552500", "113630.042500", "113631.532500", "113633.022500", "113634.512500", "113636.002500", "113637.492500", "113638.982500", "113640.472500", "113641.962500", "113643.452500", "113644.942500", "113646.432500", "113647.922500", "113649.412500", "113650.902500", "113652.392500", "113653.882500", "113655.372500", "113656.862500", "113658.352500", "113659.842500", "113701.332500", "113702.822500", "113704.312500", "113705.802500", "113707.292500", "113708.782500", "113710.272500"],
      "ContentTime": ["112658.447000", "112658.450000", "112658.454000", "112658.469000", "112658.472000", "112658.475000", "112658.479000", "112658.482000", "112658.485000", "112658.488000", "112658.491000", "112658.495000", "112658.498000", "112658.501000", "112658.504000", "112658.508000", "112658.511000", "112658.514000", "112658.517000", "112658.521000", "112658.524000", "112658.527000", "112658.536000", "112658.539000", "112718.413000", "112718.417000", "112718.420000", "112718.423000", "112718.426000", "112718.430000", "112718.433000", "112718.436000", "112718.439000", "112718.443000", "112718.446000", "112718.449000", "112718.452000", "112718.456000", "112718.459000", "112718.462000", "112718.465000", "112718.468000", "112718.472000", "112718.475000", "112718.478000", "112738.413000", "112738.417000", "112738.420000", "112738.423000", "112738.426000", "112738.430000", "112738.433000", "112738.436000", "112738.439000", "112738.443000", "112738.446000", "112738.449000", "112738.452000", "112738.455000", "112738.459000", "112738.473000", "112738.477000", "112738.480000", "112738.483000", "112738.486000", "112758.414000", "112758.418000", "112758.421000", "112758.424000", "112758.428000", "112758.431000", "112758.434000", "112758.437000", "112758.440000", "112758.444000", "112758.447000", "112758.450000", "112758.453000", "112758.457000", "112758.460000", "112758.463000", "112758.466000", "112758.470000", "112758.473000", "112758.476000", "112818.414000", "112818.418000", "112818.421000", "112818.424000", "112818.427000", "112818.431000", "112818.434000", "112818.437000", "112818.440000", "112818.444000", "112818.447000", "112818.451000", "112818.454000", "112818.457000", "112818.460000", "112818.464000", "112818.467000", "112818.470000", "112818.473000", "112818.477000", "112858.413000", "112858.417000", "112858.420000", "112858.423000", "112858.427000", "112858.430000", "112858.433000", "112858.436000", "112858.440000", "112858.443000", "112858.446000", "112858.449000", "112858.452000", "112858.456000", "112858.459000", "112858.462000", "112858.465000", "112858.469000", "112858.472000", "112858.475000", "112858.478000", "112858.482000", "112858.485000", "112858.488000", "112858.491000", "112858.495000", "112858.498000", "112938.413000", "112938.417000", "112938.420000", "112938.423000", "112938.427000", "112938.430000", "112938.433000", "112938.436000", "112938.440000", "112938.443000", "112938.446000", "112938.449000", "112938.453000", "112938.456000", "112938.459000", "112938.462000", "112938.466000", "112938.469000", "112938.472000", "112938.475000", "112938.479000", "112938.482000", "112938.485000", "112938.489000", "112938.492000", "112938.495000", "112938.498000", "113018.425000", "113018.429000", "113018.432000", "113018.435000", "113018.439000", "113018.443000", "113018.446000", "113018.449000", "113018.453000", "113018.456000", "113018.459000", "113018.463000", "113018.466000", "113018.469000", "113018.472000", "113018.476000", "113018.479000", "113018.482000", "113018.485000", "113018.489000", "113018.492000", "113018.495000", "113018.498000", "113018.502000", "113018.505000", "113018.510000", "113038.414000", "113038.418000", "113038.421000", "113038.424000", "113038.428000", "113038.431000", "113038.434000", "113038.437000", "113038.441000", "113038.444000", "113038.447000", "113038.450000", "113038.454000", "113038.458000", "113118.413000", "113118.417000", "113118.420000", "113118.423000", "113118.426000", "113118.430000", "113118.433000", "113118.436000", "113118.440000", "113118.443000", "113118.446000", "113118.449000", "113118.453000", "113118.456000", "113118.459000", "113118.463000", "113118.466000", "113118.469000", "113118.472000", "113118.476000", "113118.479000", "113118.482000", "113118.485000", "113118.489000", "113118.492000", "113118.495000", "113118.498000", "113158.413000", "113158.417000", "113158.420000", "113158.423000", "113158.427000", "113158.430000", "113158.433000", "113158.437000", "113158.440000", "113158.443000", "113158.446000", "113158.450000", "113158.453000", "113158.456000", "113158.460000", "113158.463000", "113158.466000", "113158.469000", "113158.473000", "113158.476000", "113158.479000", "113158.482000", "113158.486000", "113158.489000", "113158.492000", "113158.496000", "113158.499000", "113238.414000", "113238.418000", "113238.421000", "113238.424000", "113238.428000", "113238.431000", "113238.434000", "113238.447000", "113238.451000", "113238.454000", "113238.458000", "113238.461000", "113238.464000", "113238.467000", "113238.471000", "113238.474000", "113238.477000", "113238.480000", "113238.484000", "113238.487000", "113238.490000", "113238.493000", "113238.497000", "113238.500000", "113238.504000", "113238.508000", "113318.413000", "113318.417000", "113318.420000", "113318.423000", "113318.427000", "113318.430000", "113318.433000", "113318.437000", "113318.440000", "113318.443000", "113318.446000", "113318.450000", "113318.453000", "113318.456000", "113318.460000", "113318.463000", "113318.466000", "113318.469000", "113318.473000", "113318.476000", "113318.479000", "113318.483000", "113318.486000", "113318.489000", "113318.492000", "113318.496000", "113318.499000", "113358.413000", "113358.417000", "113358.420000", "113358.424000", "113358.427000", "113358.430000", "113358.433000", "113358.437000", "113358.440000", "113358.443000", "113358.446000", "113358.450000", "113358.453000", "113358.456000", "113358.460000", "113358.463000", "113358.467000", "113358.470000", "113358.478000", "113358.481000", "113358.485000", "113358.488000", "113358.491000", "113358.494000", "113358.498000", "113358.501000", "113358.504000", "113438.414000", "113438.418000", "113438.421000", "113438.425000", "113438.428000", "113438.431000", "113438.435000", "113438.438000", "113438.441000", "113438.445000", "113438.448000", "113438.451000", "113438.455000", "113438.458000", "113438.461000", "113438.465000", "113438.468000", "113438.471000", "113438.475000", "113438.478000", "113438.481000", "113438.485000", "113438.500000", "113438.503000", "113438.507000", "113438.510000", "113438.513000", "113518.413000", "113518.417000", "113518.420000", "113518.424000", "113518.427000", "113518.430000", "113518.434000", "113518.437000", "113518.440000", "113518.444000", "113518.447000", "113518.450000", "113518.455000", "113518.459000", "113518.462000", "113518.465000", "113518.468000", "113518.472000", "113518.475000", "113518.479000", "113518.482000", "113518.485000", "113518.489000", "113518.492000", "113518.495000", "113518.498000", "113518.502000", "113558.413000", "113558.417000", "113558.420000", "113558.424000", "113558.427000", "113558.430000", "113558.433000", "113558.437000", "113558.440000", "113558.444000", "113558.447000", "113558.450000", "113558.454000", "113558.457000", "113558.460000", "113558.464000", "113558.467000", "113558.470000", "113558.473000", "113558.477000", "113558.480000", "113558.483000", "113558.487000", "113558.490000", "113558.493000", "113558.497000", "113558.500000", "113638.413000", "113638.417000", "113638.420000", "113638.424000", "113638.427000", "113638.430000", "113638.434000", "113638.437000", "113638.440000", "113638.444000", "113638.447000", "113638.451000", "113638.455000", "113638.459000", "113638.462000", "113638.466000", "113638.469000", "113638.473000", "113638.476000", "113638.479000", "113638.483000", "113638.486000", "113638.489000", "113638.493000", "113638.496000", "113638.499000", "113712.804000", "113712.808000", "113712.811000", "113712.814000", "113712.818000", "113712.821000", "113712.824000", "113712.828000", "113712.831000", "113712.834000", "113712.838000", "113712.841000", "113712.845000", "113712.848000", "113712.851000", "113712.855000", "113712.858000", "113712.861000", "113712.865000", "113712.868000", "113712.871000", "113712.875000", "113712.878000", "113712.881000"],
