{
  "AcquisitionMatrixPE": 104,
  "AcquisitionNumber": 1,
  "AcquisitionTime": "10:57:57.212500",
  "BandwidthPerPixelPhaseEncode": 17.17,
  "BaseResolution": 104,
  "BodyPartExamined": "BRAIN",
  "CoilString": "HC1-7;NC1_2",
  "ConsistencyInfo": "N4_VE11C_LATEST_20160120",
  "ConversionSoftware": "dcm2niix",
  "ConversionSoftwareVersion": "v1.0.20190902",
  "DerivedVendorReportedEchoSpacing": 0.000560011,
  "DeviceSerialNumber": "167006",
  "DwellTime": 2.1e-06,
  "EchoTime": 0.037,
  "EchoTrainLength": 104,
  "EffectiveEchoSpacing": 0.000560011,
  "FlipAngle": 52,
  "HeudiconvVersion": "0.10.0",
  "ImageComments": "Unaliased_MB4_PE3_LB",
  "ImageOrientationPatientDICOM": [0.997105, 0.0728166, 0.0219155, -0.0606362, 0.935266, -0.348713],
  "ImageType": [
    "ORIGINAL",
    "PRIMARY",
    "P",
    "MB",
    "ND",
    "MOSAIC"
],
  "ImagingFrequency": 123.259,
  "InPlanePhaseEncodingDirectionDICOM": "COL",
  "InstitutionAddress": "Chemin_Queen-Mary_4565_Montreal_District_CA_H3W_1W5",
  "InstitutionName": "IUGM",
  "InstitutionalDepartmentName": "Department",
  "MRAcquisitionType": "2D",
  "MagneticFieldStrength": 3,
  "Manufacturer": "Siemens",
  "ManufacturersModelName": "Prisma_fit",
  "Modality": "MR",
  "MultibandAccelerationFactor": 4,
  "PartialFourier": 1,
  "PatientPosition": "HFS",
  "PercentPhaseFOV": 100,
  "PhaseEncodingDirection": "j",
  "PhaseEncodingSteps": 104,
  "PhaseResolution": 1,
  "PixelBandwidth": 2290,
  "ProcedureStepDescription": "games_mario",
  "ProtocolName": "func_task-mario_run-01",
  "PulseSequenceDetails": "%CustomerSeq%_cmrr_mbep2d_bold",
  "ReceiveCoilActiveElements": "HC1-7;NC1,2",
  "ReceiveCoilName": "HeadNeck_64",
  "ReconMatrixPE": 104,
  "RepetitionTime": 1.49,
  "SAR": 0.0772345,
  "ScanOptions": "FS",
  "ScanningSequence": "EP",
  "SequenceName": "epfid2d1_104",
  "SequenceVariant": "SK_SS",
  "SeriesDescription": "func_task-mario_run-01",
  "SeriesNumber": 11,
  "ShimSetting": [619, -7198, -8857, 613, 55, -8, -6, -13],
  "SliceThickness": 2,
  "SliceTiming": [0, 0.785, 0.0975, 0.8825, 0.1975, 0.98, 0.295, 1.0775, 0.3925, 1.175, 0.49, 1.275, 0.5875, 1.3725, 0.685, 0, 0.785, 0.0975, 0.8825, 0.1975, 0.98, 0.295, 1.0775, 0.3925, 1.175, 0.49, 1.275, 0.5875, 1.3725, 0.685, 0, 0.785, 0.0975, 0.8825, 0.1975, 0.98, 0.295, 1.0775, 0.3925, 1.175, 0.49, 1.275, 0.5875, 1.3725, 0.685, 0, 0.785, 0.0975, 0.8825, 0.1975, 0.98, 0.295, 1.0775, 0.3925, 1.175, 0.49, 1.275, 0.5875, 1.3725, 0.685],
  "SoftwareVersions": "syngo_MR_E11",
  "SpacingBetweenSlices": 2,
  "StationName": "MRC35049",
  "TaskName": "mario",
  "TotalReadoutTime": 0.0576811,
  "TxRefAmp": 333.247,
  "WipMemBlock": "7580793e-d5d9-4819-bc20-01a2eaaa1f6a||Sequence: R016 ve11c/master r/e634e98; Dec 19 2017 11:00:25 by eja",
  "dcmmeta_affine": [
    [-1.9942090511322021, -0.12127243727445602, 0.0917777419090271, 110.22114562988281],
    [-0.14563313126564026, 1.8705319166183472, -0.6927490830421448, -52.42475509643555],
    [0.04383091628551483, 0.6974261403083801, 1.8739465475082397, -72.6419677734375],
    [0.0, 0.0, 0.0, 1.0]
],
  "dcmmeta_reorient_transform": [
    [0.0, -1.0, 0.0, 103.0],
    [1.0, 0.0, 0.0, 0.0],
    [0.0, 0.0, 1.0, 0.0],
    [0.0, 0.0, 0.0, 1.0]
],
  "dcmmeta_shape": [104, 104, 60, 442],
  "dcmmeta_slice_dim": 2,
  "dcmmeta_version": 0.6,
  "global": {
    "const": {
      "AcquisitionMatrix": [104, 0, 0, 104],
      "AngioFlag": "N",
      "BitsAllocated": 16,
      "BitsStored": 16,
      "BodyPartExamined": "BRAIN",
      "Columns": 832,
      "EchoNumbers": 1,
      "EchoTime": 37.0,
      "EchoTrainLength": 104,
      "FlipAngle": 52.0,
      "HighBit": 15,
      "ImageOrientationPatient": [0.99710453841497, 0.07281656508064, 0.0219154585196, -0.0606362181264, 0.93526597018693, -0.3487130827222],
      "ImagePositionPatient": [-779.47901907461, -874.12412155209, 237.10159791543],
      "ImageType": [
        "ORIGINAL",
        "PRIMARY",
        "P",
        "MB",
        "ND",
        "MOSAIC"
],
      "ImagedNucleus": "1H",
      "ImagingFrequency": 123.258904,
      "InPlanePhaseEncodingDirection": "COL",
      "LargestImagePixelValue": 4095,
      "MRAcquisitionType": "2D",
      "MagneticFieldStrength": 3.0,
      "Manufacturer": "SIEMENS",
      "ManufacturerModelName": "Prisma_fit",
      "Modality": "MR",
      "NumberOfAverages": 1.0,
      "NumberOfPhaseEncodingSteps": 104,
      "PercentPhaseFieldOfView": 100.0,
      "PercentSampling": 100.0,
      "PerformedProcedureStepStartTime": "102627.431000",
      "PhotometricInterpretation": "MONOCHROME2",
      "PixelBandwidth": 2290.0,
      "PixelRepresentation": 0,
      "PixelSpacing": [2.0, 2.0],
      "ProtocolName": "func_task-mario_run-01",
      "RepetitionTime": 1490.0,
      "RescaleIntercept": -4096.0,
      "RescaleSlope": 2.0,
      "RescaleType": "US",
      "Rows": 832,
      "SAR": 0.0772345361657,
      "SamplesPerPixel": 1,
      "ScanOptions": "FS",
      "ScanningSequence": "EP",
      "SequenceName": "epfid2d1_104",
      "SequenceVariant": [
        "SK",
        "SS"
],
      "SeriesDescription": "func_task-mario_run-01",
      "SeriesNumber": 11,
      "SeriesTime": "105910.477000",
      "SliceLocation": -44.847058267302,
      "SliceThickness": 2.0,
      "SmallestImagePixelValue": 0,
      "SoftwareVersions": "syngo MR E11",
      "SpacingBetweenSlices": 2.0000000195957,
      "SpecificCharacterSet": "ISO_IR 100",
      "StudyID": "1",
      "StudyTime": "102627.303000",
      "TransmitCoilName": "Body",
      "VariableFlipAngleFlag": "N",
      "WindowCenterWidthExplanation": "Algo1",
      "dBdt": 0.0},
    "slices": {}
  },
  "time": {
    "samples": {
      "AcquisitionNumber": [1, 2, 3, 4, 5, 6, 7, 8, 9, 10, 11, 12, 13, 14, 15, 16, 17, 18, 19, 20, 21, 22, 23, 24, 25, 26, 27, 28, 29, 30, 31, 32, 33, 34, 35, 36, 37, 38, 39, 40, 41, 42, 43, 44, 45, 46, 47, 48, 49, 50, 51, 52, 53, 54, 55, 56, 57, 58, 59, 60, 61, 62, 63, 64, 65, 66, 67, 68, 69, 70, 71, 72, 73, 74, 75, 76, 77, 78, 79, 80, 81, 82, 83, 84, 85, 86, 87, 88, 89, 90, 91, 92, 93, 94, 95, 96, 97, 98, 99, 100, 101, 102, 103, 104, 105, 106, 107, 108, 109, 110, 111, 112, 113, 114, 115, 116, 117, 118, 119, 120, 121, 122, 123, 124, 125, 126, 127, 128, 129, 130, 131, 132, 133, 134, 135, 136, 137, 138, 139, 140, 141, 142, 143, 144, 145, 146, 147, 148, 149, 150, 151, 152, 153, 154, 155, 156, 157, 158, 159, 160, 161, 162, 163, 164, 165, 166, 167, 168, 169, 170, 171, 172, 173, 174, 175, 176, 177, 178, 179, 180, 181, 182, 183, 184, 185, 186, 187, 188, 189, 190, 191, 192, 193, 194, 195, 196, 197, 198, 199, 200, 201, 202, 203, 204, 205, 206, 207, 208, 209, 210, 211, 212, 213, 214, 215, 216, 217, 218, 219, 220, 221, 222, 223, 224, 225, 226, 227, 228, 229, 230, 231, 232, 233, 234, 235, 236, 237, 238, 239, 240, 241, 242, 243, 244, 245, 246, 247, 248, 249, 250, 251, 252, 253, 254, 255, 256, 257, 258, 259, 260, 261, 262, 263, 264, 265, 266, 267, 268, 269, 270, 271, 272, 273, 274, 275, 276, 277, 278, 279, 280, 281, 282, 283, 284, 285, 286, 287, 288, 289, 290, 291, 292, 293, 294, 295, 296, 297, 298, 299, 300, 301, 302, 303, 304, 305, 306, 307, 308, 309, 310, 311, 312, 313, 314, 315, 316, 317, 318, 319, 320, 321, 322, 323, 324, 325, 326, 327, 328, 329, 330, 331, 332, 333, 334, 335, 336, 337, 338, 339, 340, 341, 342, 343, 344, 345, 346, 347, 348, 349, 350, 351, 352, 353, 354, 355, 356, 357, 358, 359, 360, 361, 362, 363, 364, 365, 366, 367, 368, 369, 370, 371, 372, 373, 374, 375, 376, 377, 378, 379, 380, 381, 382, 383, 384, 385, 386, 387, 388, 389, 390, 391, 392, 393, 394, 395, 396, 397, 398, 399, 400, 401, 402, 403, 404, 405, 406, 407, 408, 409, 410, 411, 412, 413, 414, 415, 416, 417, 418, 419, 420, 421, 422, 423, 424, 425, 426, 427, 428, 429, 430, 431, 432, 433, 434, 435, 436, 437, 438, 439, 440, 441, 442],
      "AcquisitionTime": ["105757.212500", "105758.702500", "105800.192500", "105801.682500", "105803.172500", "105804.662500", "105806.152500", "105807.642500", "105809.132500", "105810.622500", "105812.112500", "105813.602500", "105815.092500", "105816.582500", "105818.072500", "105819.562500", "105821.052500", "105822.542500", "105824.032500", "105825.522500", "105827.012500", "105828.502500", "105829.992500", "105831.482500", "105832.972500", "105834.462500", "105835.952500", "105837.442500", "105838.932500", "105840.422500", "105841.912500", "105843.402500", "105844.892500", "105846.382500", "105847.872500", "105849.362500", "105850.852500", "105852.342500", "105853.832500", "105855.322500", "105856.812500", "105858.302500", "105859.792500", "105901.282500", "105902.772500", "105904.262500", "105905.752500", "105907.242500", "105908.732500", "105910.222500", "105911.712500", "105913.202500", "105914.692500", "105916.182500", "105917.672500", "105919.162500", "105920.652500", "105922.142500", "105923.632500", "105925.122500", "105926.612500", "105928.102500", "105929.592500", "105931.082500", "105932.572500", "105934.062500", "105935.552500", "105937.042500", "105938.532500", "105940.022500", "105941.512500", "105943.002500", "105944.492500", "105945.982500", "105947.472500", "105948.962500", "105950.452500", "105951.942500", "105953.432500", "105954.922500", "105956.412500", "105957.902500", "105959.392500", "110000.882500", "110002.372500", "110003.862500", "110005.352500", "110006.842500", "110008.332500", "110009.822500", "110011.312500", "110012.802500", "110014.292500", "110015.782500", "110017.272500", "110018.762500", "110020.252500", "110021.742500", "110023.232500", "110024.722500", "110026.212500", "110027.702500", "110029.192500", "110030.682500", "110032.172500", "110033.662500", "110035.152500", "110036.642500", "110038.132500", "110039.622500", "110041.112500", "110042.602500", "110044.092500", "110045.582500", "110047.072500", "110048.562500", "110050.052500", "110051.542500", "110053.032500", "110054.522500", "110056.012500", "110057.502500", "110058.992500", "110100.482500", "110101.972500", "110103.462500", "110104.952500", "110106.442500", "110107.932500", "110109.422500", "110110.912500", "110112.402500", "110113.892500", "110115.382500", "110116.872500", "110118.362500", "110119.852500", "110121.342500", "110122.832500", "110124.322500", "110125.812500", "110127.302500", "110128.792500", "110130.282500", "110131.772500", "110133.262500", "110134.752500", "110136.242500", "110137.732500", "110139.222500", "110140.712500", "110142.202500", "110143.692500", "110145.182500", "110146.672500", "110148.162500", "110149.652500", "110151.142500", "110152.632500", "110154.122500", "110155.612500", "110157.102500", "110158.592500", "110200.082500", "110201.572500", "110203.062500", "110204.552500", "110206.042500", "110207.532500", "110209.022500", "110210.512500", "110212.002500", "110213.492500", "110214.982500", "110216.472500", "110217.962500", "110219.452500", "110220.942500", "110222.432500", "110223.922500", "110225.412500", "110226.902500", "110228.392500", "110229.882500", "110231.372500", "110232.862500", "110234.352500", "110235.842500", "110237.332500", "110238.822500", "110240.312500", "110241.802500", "110243.292500", "110244.782500", "110246.272500", "110247.762500", "110249.252500", "110250.742500", "110252.232500", "110253.722500", "110255.212500", "110256.702500", "110258.192500", "110259.682500", "110301.172500", "110302.662500", "110304.152500", "110305.642500", "110307.132500", "110308.622500", "110310.112500", "110311.602500", "110313.092500", "110314.582500", "110316.072500", "110317.562500", "110319.052500", "110320.542500", "110322.032500", "110323.522500", "110325.012500", "110326.502500", "110327.992500", "110329.482500", "110330.972500", "110332.462500", "110333.952500", "110335.442500", "110336.932500", "110338.422500", "110339.912500", "110341.402500", "110342.892500", "110344.382500", "110345.872500", "110347.362500", "110348.852500", "110350.342500", "110351.832500", "110353.322500", "110354.812500", "110356.302500", "110357.792500", "110359.282500", "110400.772500", "110402.262500", "110403.752500", "110405.242500", "110406.732500", "110408.222500", "110409.712500", "110411.202500", "110412.692500", "110414.182500", "110415.672500", "110417.162500", "110418.652500", "110420.142500", "110421.632500", "110423.122500", "110424.612500", "110426.102500", "110427.592500", "110429.082500", "110430.572500", "110432.062500", "110433.552500", "110435.042500", "110436.532500", "110438.022500", "110439.512500", "110441.002500", "110442.492500", "110443.982500", "110445.472500", "110446.962500", "110448.452500", "110449.942500", "110451.432500", "110452.922500", "110454.412500", "110455.902500", "110457.392500", "110458.882500", "110500.372500", "110501.862500", "110503.352500", "110504.842500", "110506.332500", "110507.822500", "110509.312500", "110510.802500", "110512.292500", "110513.782500", "110515.272500", "110516.762500", "110518.252500", "110519.742500", "110521.232500", "110522.722500", "110524.212500", "110525.702500", "110527.192500", "110528.682500", "110530.172500", "110531.662500", "110533.152500", "110534.642500", "110536.132500", "110537.622500", "110539.112500", "110540.602500", "110542.092500", "110543.582500", "110545.072500", "110546.562500", "110548.052500", "110549.542500", "110551.032500", "110552.522500", "110554.012500", "110555.502500", "110556.992500", "110558.482500", "110559.972500", "110601.462500", "110602.952500", "110604.442500", "110605.932500", "110607.422500", "110608.912500", "110610.402500", "110611.892500", "110613.382500", "110614.872500", "110616.362500", "110617.852500", "110619.342500", "110620.832500", "110622.322500", "110623.812500", "110625.302500", "110626.792500", "110628.282500", "110629.772500", "110631.262500", "110632.752500", "110634.242500", "110635.732500", "110637.222500", "110638.712500", "110640.202500", "110641.692500", "110643.182500", "110644.672500", "110646.162500", "110647.652500", "110649.142500", "110650.632500", "110652.122500", "110653.612500", "110655.102500", "110656.592500", "110658.082500", "110659.572500", "110701.062500", "110702.552500", "110704.042500", "110705.532500", "110707.022500", "110708.512500", "110710.002500", "110711.492500", "110712.982500", "110714.472500", "110715.962500", "110717.452500", "110718.942500", "110720.432500", "110721.922500", "110723.412500", "110724.902500", "110726.392500", "110727.882500", "110729.372500", "110730.862500", "110732.352500", "110733.842500", "110735.332500", "110736.822500", "110738.312500", "110739.802500", "110741.292500", "110742.782500", "110744.272500", "110745.762500", "110747.252500", "110748.742500", "110750.232500", "110751.722500", "110753.212500", "110754.702500", "110756.192500", "110757.682500", "110759.172500", "110800.662500", "110802.152500", "110803.642500", "110805.132500", "110806.622500", "110808.112500", "110809.602500", "110811.092500", "110812.582500", "110814.072500", "110815.562500", "110817.052500", "110818.542500", "110820.032500", "110821.522500", "110823.012500", "110824.502500", "110825.992500", "110827.482500", "110828.972500", "110830.462500", "110831.952500", "110833.442500", "110834.932500", "110836.422500", "110837.912500", "110839.402500", "110840.892500", "110842.382500", "110843.872500", "110845.362500", "110846.852500", "110848.342500", "110849.832500", "110851.322500", "110852.812500", "110854.302500"],
      "ContentTime": ["105910.479000", "105910.482000", "105910.484000", "105910.487000", "105910.489000", "105910.492000", "105910.494000", "105910.497000", "105910.499000", "105910.502000", "105910.532000", "105910.535000", "105910.537000", "105910.539000", "105910.542000", "105910.544000", "105910.547000", "105910.549000", "105910.552000", "105910.554000", "105950.527000", "105950.530000", "105950.532000", "105950.535000", "105950.537000", "105950.539000", "105950.542000", "105950.544000", "105950.553000", "105950.556000", "105950.558000", "105950.560000", "105950.563000", "105950.565000", "105950.568000", "105950.570000", "105950.573000", "105950.575000", "105950.578000", "105950.580000", "105950.583000", "105950.585000", "105950.587000", "105950.590000", "105950.592000", "105950.595000", "105950.597000", "105950.600000", "105950.602000", "105950.605000", "105950.607000", "105950.610000", "105950.612000", "105950.615000", "105950.617000", "105950.620000", "105950.622000", "105950.625000", "105950.627000", "110010.451000", "110010.465000", "110010.467000", "110010.470000", "110010.472000", "110010.475000", "110010.477000", "110010.480000", "110010.482000", "110010.484000", "110010.487000", "110010.489000", "110010.492000", "110010.494000", "110010.497000", "110010.499000", "110010.502000", "110010.504000", "110010.507000", "110010.509000", "110030.456000", "110030.459000", "110030.462000", "110030.464000", "110030.467000", "110030.469000", "110030.472000", "110030.474000", "110030.476000", "110030.479000", "110030.481000", "110030.484000", "110030.486000", "110030.489000", "110030.491000", "110030.494000", "110030.496000", "110030.499000", "110030.501000", "110030.504000", "110050.459000", "110050.462000", "110050.465000", "110050.467000", "110050.470000", "110050.472000", "110050.475000", "110050.477000", "110050.480000", "110050.482000", "110050.484000", "110050.487000", "110050.489000", "110050.492000", "110050.503000", "110050.506000", "110130.490000", "110130.493000", "110130.496000", "110130.498000", "110130.501000", "110130.503000", "110130.505000", "110130.508000", "110130.510000", "110130.513000", "110130.515000", "110130.518000", "110130.520000", "110130.523000", "110130.525000", "110130.528000", "110130.530000", "110130.533000", "110130.535000", "110130.538000", "110130.540000", "110130.543000", "110130.545000", "110130.548000", "110130.550000", "110130.553000", "110130.555000", "110210.480000", "110210.483000", "110210.485000", "110210.488000", "110210.490000", "110210.493000", "110210.495000", "110210.498000", "110210.500000", "110210.503000", "110210.505000", "110210.508000", "110210.510000", "110210.513000", "110210.515000", "110210.518000", "110210.520000", "110210.523000", "110210.525000", "110210.528000", "110210.530000", "110210.533000", "110210.535000", "110210.538000", "110210.540000", "110210.543000", "110210.545000", "110250.471000", "110250.473000", "110250.476000", "110250.478000", "110250.481000", "110250.483000", "110250.486000", "110250.488000", "110250.491000", "110250.493000", "110250.496000", "110250.498000", "110250.501000", "110250.503000", "110250.506000", "110250.508000", "110250.511000", "110250.513000", "110250.516000", "110250.518000", "110250.521000", "110250.523000", "110250.526000", "110250.528000", "110250.531000", "110250.533000", "110250.536000", "110330.919000", "110330.921000", "110330.924000", "110330.926000", "110330.929000", "110330.931000", "110330.934000", "110330.936000", "110330.939000", "110330.941000", "110330.944000", "110330.946000", "110330.949000", "110330.951000", "110330.954000", "110330.956000", "110330.959000", "110330.961000", "110330.964000", "110330.966000", "110330.968000", "110330.971000", "110330.974000", "110330.976000", "110330.979000", "110330.981000", "110330.984000", "110410.481000", "110410.484000", "110410.486000", "110410.489000", "110410.491000", "110410.494000", "110410.496000", "110410.499000", "110410.501000", "110410.504000", "110410.506000", "110410.509000", "110410.511000", "110410.514000", "110410.516000", "110410.519000", "110410.521000", "110410.524000", "110410.526000", "110410.529000", "110410.531000", "110410.533000", "110410.536000", "110410.538000", "110410.541000", "110410.543000", "110410.546000", "110450.466000", "110450.469000", "110450.471000", "110450.474000", "110450.476000", "110450.478000", "110450.481000", "110450.483000", "110450.486000", "110450.488000", "110450.491000", "110450.493000", "110450.496000", "110450.498000", "110450.501000", "110450.503000", "110450.506000", "110450.508000", "110450.511000", "110450.513000", "110450.516000", "110450.518000", "110450.521000", "110450.523000", "110450.526000", "110450.528000", "110450.531000", "110530.463000", "110530.466000", "110530.468000", "110530.471000", "110530.473000", "110530.476000", "110530.478000", "110530.481000", "110530.484000", "110530.488000", "110530.491000", "110530.494000", "110530.496000", "110530.499000", "110530.501000", "110530.504000", "110530.506000", "110530.509000", "110530.511000", "110530.514000", "110530.516000", "110530.519000", "110530.521000", "110530.524000", "110530.526000", "110530.529000", "110610.494000", "110610.497000", "110610.499000", "110610.501000", "110610.504000", "110610.506000", "110610.509000", "110610.511000", "110610.514000", "110610.516000", "110610.519000", "110610.521000", "110610.524000", "110610.526000", "110610.529000", "110610.531000", "110610.534000", "110610.536000", "110610.539000", "110610.541000", "110610.544000", "110610.546000", "110610.549000", "110610.551000", "110610.554000", "110610.556000", "110610.559000", "110650.473000", "110650.476000", "110650.479000", "110650.481000", "110650.484000", "110650.486000", "110650.489000", "110650.491000", "110650.493000", "110650.496000", "110650.498000", "110650.501000", "110650.503000", "110650.506000", "110650.508000", "110650.511000", "110650.513000", "110650.516000", "110650.518000", "110650.521000", "110650.523000", "110650.526000", "110650.528000", "110650.531000", "110650.533000", "110650.536000", "110650.538000", "110730.470000", "110730.473000", "110730.475000", "110730.478000", "110730.480000", "110730.483000", "110730.485000", "110730.488000", "110730.490000", "110730.493000", "110730.495000", "110730.498000", "110730.500000", "110730.503000", "110730.505000", "110730.508000", "110730.510000", "110730.513000", "110730.517000", "110730.519000", "110730.522000", "110730.524000", "110730.527000", "110730.529000", "110730.532000", "110730.534000", "110730.537000", "110810.479000", "110810.481000", "110810.484000", "110810.486000", "110810.490000", "110810.493000", "110810.495000", "110810.497000", "110810.500000", "110810.502000", "110810.505000", "110810.507000", "110810.510000", "110810.512000", "110810.515000", "110810.517000", "110810.520000", "110810.522000", "110810.525000", "110810.527000", "110810.530000", "110810.532000", "110810.535000", "110810.537000", "110810.540000", "110810.542000", "110810.545000", "110850.470000", "110850.473000", "110850.475000", "110850.478000", "110850.480000", "110850.482000", "110850.485000", "110850.487000", "110850.490000", "110850.492000", "110850.495000", "110850.497000", "110850.500000", "110850.502000", "110850.505000", "110850.508000", "110850.510000", "110850.513000", "110850.515000", "110850.517000", "110850.520000", "110850.522000", "110850.525000", "110850.527000", "110850.530000", "110850.532000", "110850.535000", "110857.451000", "110857.454000", "110857.456000", "110857.459000"],
