{
  "AcquisitionMatrixPE": 104,
  "AcquisitionNumber": 1,
  "AcquisitionTime": "17:54:39.000000",
  "BandwidthPerPixelPhaseEncode": 17.17,
  "BaseResolution": 104,
  "BodyPartExamined": "BRAIN",
  "CoilCombinationMethod": "Sum of Squares",
  "ConsistencyInfo": "N4_VE11C_LATEST_20160120",
  "ConversionSoftware": "dcm2niix",
  "ConversionSoftwareVersion": "v1.0.20211006",
  "DerivedVendorReportedEchoSpacing": 0.000560011,
  "DeviceSerialNumber": "167006",
  "DwellTime": 2.1e-06,
  "EchoTime": 0.037,
  "EchoTrainLength": 104,
  "EffectiveEchoSpacing": 0.000560011,
  "FlipAngle": 52,
  "HeudiconvVersion": "0.10.0",
  "ImageComments": "Unaliased MB4/PE3/LB",
  "ImageOrientationPatientDICOM": [0.996626, 0.0646121, 0.050609, -0.0370671, 0.904512, -0.424834],
  "ImageOrientationText": "Tra>Cor(-25.0)>Sag(4.2)",
  "ImageType": [
    "ORIGINAL",
    "PRIMARY",
    "M",
    "MB",
    "ND",
    "MOSAIC"
],
  "ImagingFrequency": 123.259,
  "InPlanePhaseEncodingDirectionDICOM": "COL",
  "InstitutionAddress": "Chemin Queen-Mary 4565,Montreal,District,CA,H3W 1W5",
  "InstitutionName": "IUGM",
  "InstitutionalDepartmentName": "Department",
  "MRAcquisitionType": "2D",
  "MagneticFieldStrength": 3,
  "Manufacturer": "Siemens",
  "ManufacturersModelName": "Prisma_fit",
  "MatrixCoilMode": "SENSE",
  "Modality": "MR",
  "MultibandAccelerationFactor": 4,
  "PartialFourier": 1,
  "PatientPosition": "HFS",
  "PercentPhaseFOV": 100,
  "PercentSampling": 100,
  "PhaseEncodingDirection": "j",
  "PhaseEncodingSteps": 104,
  "PhaseResolution": 1,
  "PixelBandwidth": 2290,
  "ProcedureStepDescription": "games^mario",
  "ProtocolName": "func_task-mario_run-01",
  "PulseSequenceDetails": "%CustomerSeq%\\cmrr_mbep2d_bold",
  "ReceiveCoilActiveElements": "HC1-7;NC1,2",
  "ReceiveCoilName": "HeadNeck_64",
  "ReconMatrixPE": 104,
  "RepetitionTime": 1.49,
  "SAR": 0.0714501,
  "ScanOptions": "FS",
  "ScanningSequence": "EP",
  "SequenceName": "epfid2d1_104",
  "SequenceVariant": "SK\\SS",
  "SeriesDescription": "func_task-mario_run-01",
  "SeriesNumber": 10,
  "ShimSetting": [630, -7188, -8856, 636, 62, -9, -80, -6],
  "SliceThickness": 2,
  "SliceTiming": [0, 0.785, 0.0975, 0.8825, 0.195, 0.98, 0.295, 1.0775, 0.3925, 1.175, 0.49, 1.275, 0.5875, 1.3725, 0.685, 0, 0.785, 0.0975, 0.8825, 0.195, 0.98, 0.295, 1.0775, 0.3925, 1.175, 0.49, 1.275, 0.5875, 1.3725, 0.685, 0, 0.785, 0.0975, 0.8825, 0.195, 0.98, 0.295, 1.0775, 0.3925, 1.175, 0.49, 1.275, 0.5875, 1.3725, 0.685, 0, 0.785, 0.0975, 0.8825, 0.195, 0.98, 0.295, 1.0775, 0.3925, 1.175, 0.49, 1.275, 0.5875, 1.3725, 0.685],
  "SoftwareVersions": "syngo MR E11",
  "SpacingBetweenSlices": 2,
  "StationName": "MRC35049",
  "TaskName": "mario",
  "TotalReadoutTime": 0.0576811,
  "TxRefAmp": 323.525,
  "WipMemBlock": "cafa4154-0785-412d-b7c3-c995b9ffbdd0||Sequence: R016 ve11c/master r/e634e98; Dec 19 2017 11:00:25 by eja",
  "dcmmeta_affine": [
    [-1.9932526350021362, -0.07413427531719208, 0.1464516967535019, 106.87590026855469],
    [-0.1292242854833603, 1.8090245723724365, -0.8430487513542175, -47.637603759765625],
    [0.10121794790029526, 0.8496670722961426, 1.8077114820480347, -83.66597747802734],
    [0.0, 0.0, 0.0, 1.0]
],
  "dcmmeta_reorient_transform": [
    [0.0, -1.0, 0.0, 103.0],
    [1.0, 0.0, 0.0, 0.0],
    [0.0, 0.0, 1.0, 0.0],
    [0.0, 0.0, 0.0, 1.0]
],
  "dcmmeta_shape": [104, 104, 60, 446],
  "dcmmeta_slice_dim": 2,
  "dcmmeta_version": 0.6,
  "global": {
    "const": {
      "AcquisitionMatrix": [104, 0, 0, 104],
      "AngioFlag": "N",
      "BitsAllocated": 16,
      "BitsStored": 16,
      "BodyPartExamined": "BRAIN",
      "Columns": 832,
      "EchoNumbers": 1,
      "EchoTime": 37.0,
      "EchoTrainLength": 104,
      "FlipAngle": 52.0,
      "HighBit": 15,
      "ImageOrientationPatient": [0.99662631069853, 0.06461213940947, 0.05060897414851, -0.0370671378739, 0.90451229462661, -0.4248335393529],
      "ImagePositionPatient": [-797.79914403199, -844.21451755186, 276.28521621029],
      "ImageType": [
        "ORIGINAL",
        "PRIMARY",
        "M",
        "MB",
        "ND",
        "MOSAIC"
],
      "ImagedNucleus": "1H",
      "ImagingFrequency": 123.258876,
      "InPlanePhaseEncodingDirection": "COL",
      "MRAcquisitionType": "2D",
      "MagneticFieldStrength": 3.0,
      "Manufacturer": "SIEMENS",
      "ManufacturerModelName": "Prisma_fit",
      "Modality": "MR",
      "NumberOfAverages": 1.0,
      "NumberOfPhaseEncodingSteps": 104,
      "PercentPhaseFieldOfView": 100.0,
      "PercentSampling": 100.0,
      "PerformedProcedureStepStartTime": "174814.699000",
      "PhotometricInterpretation": "MONOCHROME2",
      "PixelBandwidth": 2290.0,
      "PixelRepresentation": 0,
      "PixelSpacing": [2.0, 2.0],
      "ProtocolName": "func_task-mario_run-01",
      "RepetitionTime": 1490.0,
      "Rows": 832,
      "SAR": 0.07145008892798,
      "SamplesPerPixel": 1,
      "ScanOptions": "FS",
      "ScanningSequence": "EP",
      "SequenceName": "epfid2d1_104",
      "SequenceVariant": [
        "SK",
        "SS"
],
      "SeriesDescription": "func_task-mario_run-01",
      "SeriesNumber": 10,
      "SeriesTime": "175607.085000",
      "SliceLocation": -47.715485344949,
      "SliceThickness": 2.0,
      "SmallestImagePixelValue": 0,
      "SoftwareVersions": "syngo MR E11",
      "SpacingBetweenSlices": 2.0000000530008,
      "SpecificCharacterSet": "ISO_IR 100",
      "StudyID": "1",
      "StudyTime": "174814.620000",
      "TransmitCoilName": "Body",
      "VariableFlipAngleFlag": "N",
      "WindowCenterWidthExplanation": "Algo1",
      "dBdt": 0.0},
    "slices": {}
  },
  "time": {
    "samples": {
      "AcquisitionNumber": [1, 2, 3, 4, 5, 6, 7, 8, 9, 10, 11, 12, 13, 14, 15, 16, 17, 18, 19, 20, 21, 22, 23, 24, 25, 26, 27, 28, 29, 30, 31, 32, 33, 34, 35, 36, 37, 38, 39, 40, 41, 42, 43, 44, 45, 46, 47, 48, 49, 50, 51, 52, 53, 54, 55, 56, 57, 58, 59, 60, 61, 62, 63, 64, 65, 66, 67, 68, 69, 70, 71, 72, 73, 74, 75, 76, 77, 78, 79, 80, 81, 82, 83, 84, 85, 86, 87, 88, 89, 90, 91, 92, 93, 94, 95, 96, 97, 98, 99, 100, 101, 102, 103, 104, 105, 106, 107, 108, 109, 110, 111, 112, 113, 114, 115, 116, 117, 118, 119, 120, 121, 122, 123, 124, 125, 126, 127, 128, 129, 130, 131, 132, 133, 134, 135, 136, 137, 138, 139, 140, 141, 142, 143, 144, 145, 146, 147, 148, 149, 150, 151, 152, 153, 154, 155, 156, 157, 158, 159, 160, 161, 162, 163, 164, 165, 166, 167, 168, 169, 170, 171, 172, 173, 174, 175, 176, 177, 178, 179, 180, 181, 182, 183, 184, 185, 186, 187, 188, 189, 190, 191, 192, 193, 194, 195, 196, 197, 198, 199, 200, 201, 202, 203, 204, 205, 206, 207, 208, 209, 210, 211, 212, 213, 214, 215, 216, 217, 218, 219, 220, 221, 222, 223, 224, 225, 226, 227, 228, 229, 230, 231, 232, 233, 234, 235, 236, 237, 238, 239, 240, 241, 242, 243, 244, 245, 246, 247, 248, 249, 250, 251, 252, 253, 254, 255, 256, 257, 258, 259, 260, 261, 262, 263, 264, 265, 266, 267, 268, 269, 270, 271, 272, 273, 274, 275, 276, 277, 278, 279, 280, 281, 282, 283, 284, 285, 286, 287, 288, 289, 290, 291, 292, 293, 294, 295, 296, 297, 298, 299, 300, 301, 302, 303, 304, 305, 306, 307, 308, 309, 310, 311, 312, 313, 314, 315, 316, 317, 318, 319, 320, 321, 322, 323, 324, 325, 326, 327, 328, 329, 330, 331, 332, 333, 334, 335, 336, 337, 338, 339, 340, 341, 342, 343, 344, 345, 346, 347, 348, 349, 350, 351, 352, 353, 354, 355, 356, 357, 358, 359, 360, 361, 362, 363, 364, 365, 366, 367, 368, 369, 370, 371, 372, 373, 374, 375, 376, 377, 378, 379, 380, 381, 382, 383, 384, 385, 386, 387, 388, 389, 390, 391, 392, 393, 394, 395, 396, 397, 398, 399, 400, 401, 402, 403, 404, 405, 406, 407, 408, 409, 410, 411, 412, 413, 414, 415, 416, 417, 418, 419, 420, 421, 422, 423, 424, 425, 426, 427, 428, 429, 430, 431, 432, 433, 434, 435, 436, 437, 438, 439, 440, 441, 442, 443, 444, 445, 446],
      "AcquisitionTime": ["175439.000000", "175440.490000", "175441.980000", "175443.470000", "175444.960000", "175446.450000", "175447.940000", "175449.430000", "175450.920000", "175452.410000", "175453.900000", "175455.390000", "175456.880000", "175458.370000", "175459.860000", "175501.350000", "175502.840000", "175504.330000", "175505.820000", "175507.310000", "175508.800000", "175510.290000", "175511.780000", "175513.270000", "175514.760000", "175516.250000", "175517.740000", "175519.230000", "175520.720000", "175522.210000", "175523.700000", "175525.190000", "175526.680000", "175528.170000", "175529.660000", "175531.150000", "175532.640000", "175534.130000", "175535.620000", "175537.110000", "175538.600000", "175540.090000", "175541.580000", "175543.070000", "175544.560000", "175546.050000", "175547.540000", "175549.030000", "175550.520000", "175552.010000", "175553.500000", "175554.990000", "175556.480000", "175557.970000", "175559.460000", "175600.950000", "175602.440000", "175603.930000", "175605.420000", "175606.910000", "175608.400000", "175609.890000", "175611.380000", "175612.870000", "175614.360000", "175615.850000", "175617.340000", "175618.830000", "175620.320000", "175621.810000", "175623.300000", "175624.790000", "175626.280000", "175627.770000", "175629.260000", "175630.750000", "175632.240000", "175633.730000", "175635.220000", "175636.710000", "175638.200000", "175639.690000", "175641.180000", "175642.670000", "175644.160000", "175645.650000", "175647.140000", "175648.630000", "175650.120000", "175651.610000", "175653.100000", "175654.590000", "175656.080000", "175657.570000", "175659.060000", "175700.550000", "175702.040000", "175703.530000", "175705.020000", "175706.510000", "175708.000000", "175709.490000", "175710.980000", "175712.470000", "175713.960000", "175715.450000", "175716.940000", "175718.430000", "175719.920000", "175721.410000", "175722.900000", "175724.390000", "175725.880000", "175727.370000", "175728.860000", "175730.350000", "175731.840000", "175733.330000", "175734.820000", "175736.310000", "175737.800000", "175739.290000", "175740.780000", "175742.270000", "175743.760000", "175745.250000", "175746.740000", "175748.230000", "175749.720000", "175751.210000", "175752.700000", "175754.190000", "175755.680000", "175757.170000", "175758.660000", "175800.150000", "175801.640000", "175803.130000", "175804.620000", "175806.110000", "175807.600000", "175809.090000", "175810.580000", "175812.070000", "175813.560000", "175815.050000", "175816.540000", "175818.030000", "175819.520000", "175821.010000", "175822.500000", "175823.990000", "175825.480000", "175826.970000", "175828.460000", "175829.950000", "175831.440000", "175832.930000", "175834.420000", "175835.910000", "175837.400000", "175838.890000", "175840.380000", "175841.870000", "175843.360000", "175844.850000", "175846.340000", "175847.830000", "175849.320000", "175850.810000", "175852.300000", "175853.790000", "175855.280000", "175856.770000", "175858.260000", "175859.750000", "175901.240000", "175902.730000", "175904.220000", "175905.710000", "175907.200000", "175908.690000", "175910.180000", "175911.670000", "175913.160000", "175914.650000", "175916.140000", "175917.630000", "175919.120000", "175920.610000", "175922.100000", "175923.590000", "175925.080000", "175926.570000", "175928.060000", "175929.550000", "175931.040000", "175932.530000", "175934.020000", "175935.510000", "175937.000000", "175938.490000", "175939.980000", "175941.470000", "175942.960000", "175944.450000", "175945.940000", "175947.430000", "175948.920000", "175950.410000", "175951.900000", "175953.390000", "175954.880000", "175956.370000", "175957.860000", "175959.350000", "180000.840000", "180002.330000", "180003.820000", "180005.310000", "180006.800000", "180008.290000", "180009.780000", "180011.270000", "180012.760000", "180014.250000", "180015.740000", "180017.230000", "180018.720000", "180020.210000", "180021.700000", "180023.190000", "180024.680000", "180026.170000", "180027.660000", "180029.150000", "180030.640000", "180032.130000", "180033.620000", "180035.110000", "180036.600000", "180038.090000", "180039.580000", "180041.070000", "180042.560000", "180044.050000", "180045.540000", "180047.030000", "180048.520000", "180050.010000", "180051.500000", "180052.990000", "180054.480000", "180055.970000", "180057.460000", "180058.950000", "180100.440000", "180101.930000", "180103.420000", "180104.910000", "180106.400000", "180107.890000", "180109.380000", "180110.870000", "180112.360000", "180113.850000", "180115.340000", "180116.830000", "180118.320000", "180119.810000", "180121.300000", "180122.790000", "180124.280000", "180125.770000", "180127.260000", "180128.750000", "180130.240000", "180131.730000", "180133.220000", "180134.710000", "180136.200000", "180137.690000", "180139.180000", "180140.670000", "180142.160000", "180143.650000", "180145.140000", "180146.630000", "180148.120000", "180149.610000", "180151.100000", "180152.590000", "180154.080000", "180155.570000", "180157.060000", "180158.550000", "180200.040000", "180201.530000", "180203.020000", "180204.510000", "180206.000000", "180207.490000", "180208.980000", "180210.470000", "180211.960000", "180213.450000", "180214.940000", "180216.430000", "180217.920000", "180219.410000", "180220.900000", "180222.390000", "180223.880000", "180225.370000", "180226.860000", "180228.350000", "180229.840000", "180231.330000", "180232.820000", "180234.310000", "180235.800000", "180237.290000", "180238.780000", "180240.270000", "180241.760000", "180243.250000", "180244.740000", "180246.230000", "180247.720000", "180249.210000", "180250.700000", "180252.190000", "180253.680000", "180255.170000", "180256.660000", "180258.150000", "180259.640000", "180301.130000", "180302.620000", "180304.110000", "180305.600000", "180307.090000", "180308.580000", "180310.070000", "180311.560000", "180313.050000", "180314.540000", "180316.030000", "180317.520000", "180319.010000", "180320.500000", "180321.990000", "180323.480000", "180324.970000", "180326.460000", "180327.950000", "180329.440000", "180330.930000", "180332.420000", "180333.910000", "180335.400000", "180336.890000", "180338.380000", "180339.870000", "180341.360000", "180342.850000", "180344.340000", "180345.830000", "180347.320000", "180348.810000", "180350.300000", "180351.790000", "180353.280000", "180354.770000", "180356.260000", "180357.750000", "180359.240000", "180400.730000", "180402.220000", "180403.710000", "180405.200000", "180406.690000", "180408.180000", "180409.670000", "180411.160000", "180412.650000", "180414.140000", "180415.630000", "180417.120000", "180418.610000", "180420.100000", "180421.590000", "180423.080000", "180424.570000", "180426.060000", "180427.550000", "180429.040000", "180430.530000", "180432.020000", "180433.510000", "180435.000000", "180436.490000", "180437.980000", "180439.470000", "180440.960000", "180442.450000", "180443.940000", "180445.430000", "180446.920000", "180448.410000", "180449.900000", "180451.390000", "180452.880000", "180454.370000", "180455.860000", "180457.350000", "180458.840000", "180500.330000", "180501.820000", "180503.310000", "180504.800000", "180506.290000", "180507.780000", "180509.270000", "180510.760000", "180512.250000", "180513.740000", "180515.230000", "180516.720000", "180518.210000", "180519.700000", "180521.190000", "180522.680000", "180524.170000", "180525.660000", "180527.150000", "180528.640000", "180530.130000", "180531.620000", "180533.110000", "180534.600000", "180536.090000", "180537.580000", "180539.070000", "180540.560000", "180542.050000"],
      "ContentTime": ["175607.088000", "175607.092000", "175607.095000", "175607.099000", "175607.102000", "175607.106000", "175607.109000", "175607.112000", "175607.116000", "175607.119000", "175607.122000", "175607.126000", "175607.129000", "175607.132000", "175607.136000", "175607.139000", "175607.142000", "175607.146000", "175607.149000", "175607.152000", "175607.156000", "175607.159000", "175607.162000", "175607.166000", "175607.169000", "175607.172000", "175607.176000", "175607.179000", "175607.182000", "175607.186000", "175607.197000", "175607.200000", "175607.203000", "175607.207000", "175627.053000", "175627.057000", "175627.060000", "175627.063000", "175627.067000", "175627.070000", "175627.073000", "175627.077000", "175627.080000", "175627.083000", "175627.087000", "175627.090000", "175627.093000", "175627.097000", "175627.100000", "175627.103000", "175627.107000", "175627.110000", "175627.113000", "175627.116000", "175647.054000", "175647.058000", "175647.061000", "175647.064000", "175647.068000", "175647.071000", "175647.074000", "175647.078000", "175647.081000", "175647.084000", "175647.088000", "175647.091000", "175647.094000", "175647.098000", "175647.101000", "175647.104000", "175647.108000", "175647.112000", "175647.115000", "175647.119000", "175707.054000", "175707.062000", "175707.065000", "175707.069000", "175707.072000", "175707.075000", "175707.079000", "175707.082000", "175707.085000", "175707.089000", "175707.092000", "175707.095000", "175707.099000", "175707.102000", "175707.105000", "175707.109000", "175707.112000", "175707.115000", "175707.119000", "175707.122000", "175707.139000", "175747.054000", "175747.058000", "175747.061000", "175747.065000", "175747.068000", "175747.071000", "175747.075000", "175747.078000", "175747.081000", "175747.084000", "175747.088000", "175747.091000", "175747.094000", "175747.098000", "175747.101000", "175747.104000", "175747.108000", "175747.111000", "175747.114000", "175747.118000", "175747.121000", "175747.124000", "175747.128000", "175747.131000", "175747.134000", "175747.137000", "175747.142000", "175747.145000", "175747.149000", "175747.152000", "175827.053000", "175827.057000", "175827.060000", "175827.063000", "175827.067000", "175827.070000", "175827.073000", "175827.077000", "175827.080000", "175827.083000", "175827.087000", "175827.090000", "175827.093000", "175827.097000", "175827.100000", "175827.103000", "175827.107000", "175827.110000", "175827.113000", "175827.117000", "175827.120000", "175827.123000", "175827.127000", "175827.130000", "175827.133000", "175827.137000", "175827.140000", "175907.054000", "175907.058000", "175907.061000", "175907.064000", "175907.068000", "175907.071000", "175907.075000", "175907.078000", "175907.081000", "175907.085000", "175907.088000", "175907.091000", "175907.095000", "175907.098000", "175907.101000", "175907.105000", "175907.108000", "175907.111000", "175907.115000", "175907.118000", "175907.121000", "175907.125000", "175907.128000", "175907.131000", "175907.135000", "175907.138000", "175907.141000", "175947.054000", "175947.058000", "175947.061000", "175947.064000", "175947.068000", "175947.071000", "175947.074000", "175947.078000", "175947.081000", "175947.084000", "175947.088000", "175947.091000", "175947.094000", "175947.098000", "175947.101000", "175947.118000", "175947.121000", "175947.124000", "175947.128000", "175947.131000", "175947.134000", "175947.138000", "175947.141000", "175947.144000", "175947.148000", "175947.151000", "175947.154000", "180027.053000", "180027.057000", "180027.060000", "180027.064000", "180027.067000", "180027.070000", "180027.074000", "180027.077000", "180027.080000", "180027.084000", "180027.087000", "180027.090000", "180027.094000", "180027.097000", "180027.100000", "180027.104000", "180027.107000", "180027.111000", "180027.114000", "180027.117000", "180027.121000", "180027.124000", "180027.127000", "180027.131000", "180027.134000", "180027.137000", "180027.141000", "180107.054000", "180107.058000", "180107.061000", "180107.065000", "180107.068000", "180107.071000", "180107.075000", "180107.078000", "180107.081000", "180107.085000", "180107.088000", "180107.091000", "180107.095000", "180107.098000", "180107.102000", "180107.105000", "180107.108000", "180107.111000", "180107.115000", "180107.118000", "180107.121000", "180107.125000", "180107.128000", "180107.131000", "180107.135000", "180107.138000", "180107.141000", "180147.054000", "180147.058000", "180147.061000", "180147.065000", "180147.068000", "180147.071000", "180147.075000", "180147.078000", "180147.082000", "180147.085000", "180147.088000", "180147.092000", "180147.095000", "180147.099000", "180147.102000", "180147.105000", "180147.109000", "180147.112000", "180147.115000", "180147.119000", "180147.122000", "180147.125000", "180147.129000", "180147.132000", "180147.135000", "180147.139000", "180227.074000", "180227.078000", "180227.081000", "180227.085000", "180227.088000", "180227.091000", "180227.094000", "180227.098000", "180227.101000", "180227.105000", "180227.108000", "180227.111000", "180227.115000", "180227.118000", "180227.121000", "180227.125000", "180227.128000", "180227.131000", "180227.135000", "180227.138000", "180227.141000", "180227.145000", "180227.148000", "180227.151000", "180227.155000", "180227.158000", "180227.161000", "180307.054000", "180307.057000", "180307.060000", "180307.064000", "180307.067000", "180307.071000", "180307.074000", "180307.077000", "180307.081000", "180307.084000", "180307.087000", "180307.091000", "180307.094000", "180307.097000", "180307.101000", "180307.113000", "180307.116000", "180307.119000", "180307.123000", "180307.126000", "180307.129000", "180307.132000", "180307.136000", "180307.139000", "180307.143000", "180307.146000", "180307.149000", "180347.054000", "180347.058000", "180347.061000", "180347.064000", "180347.068000", "180347.071000", "180347.074000", "180347.078000", "180347.081000", "180347.085000", "180347.088000", "180347.091000", "180347.095000", "180347.098000", "180347.101000", "180347.105000", "180347.108000", "180347.111000", "180347.114000", "180347.118000", "180347.121000", "180347.124000", "180347.128000", "180347.131000", "180347.134000", "180347.138000", "180347.141000", "180427.054000", "180427.058000", "180427.062000", "180427.065000", "180427.068000", "180427.072000", "180427.075000", "180427.078000", "180427.082000", "180427.085000", "180427.088000", "180427.092000", "180427.095000", "180427.098000", "180427.122000", "180427.125000", "180427.128000", "180427.132000", "180427.135000", "180427.139000", "180427.143000", "180427.146000", "180427.149000", "180427.153000", "180427.156000", "180427.160000", "180427.163000", "180507.053000", "180507.057000", "180507.060000", "180507.064000", "180507.067000", "180507.070000", "180507.074000", "180507.077000", "180507.080000", "180507.084000", "180507.087000", "180507.090000", "180507.094000", "180507.097000", "180507.100000", "180507.104000", "180507.107000", "180507.110000", "180507.114000", "180507.117000", "180507.120000", "180507.124000", "180507.127000", "180507.130000", "180507.134000", "180507.137000", "180507.140000", "180545.168000", "180545.171000", "180545.175000", "180545.178000", "180545.182000", "180545.185000", "180545.188000", "180545.192000", "180545.195000", "180545.199000", "180545.202000", "180545.205000", "180545.209000", "180545.212000", "180545.215000", "180545.219000", "180545.222000", "180545.225000", "180545.229000", "180545.232000", "180545.235000", "180545.239000", "180545.242000", "180545.245000", "180545.249000"],
