{
  "AcquisitionMatrixPE": 104,
  "AcquisitionNumber": 1,
  "AcquisitionTime": "17:54:39.000000",
  "BandwidthPerPixelPhaseEncode": 17.17,
  "BaseResolution": 104,
  "BodyPartExamined": "BRAIN",
  "CoilCombinationMethod": "Sum of Squares",
  "ConsistencyInfo": "N4_VE11C_LATEST_20160120",
  "ConversionSoftware": "dcm2niix",
  "ConversionSoftwareVersion": "v1.0.20211006",
  "DerivedVendorReportedEchoSpacing": 0.000560011,
  "DeviceSerialNumber": "167006",
  "DwellTime": 2.1e-06,
  "EchoTime": 0.037,
  "EchoTime1": 0.037,
  "EchoTime2": 0.001,
  "EchoTrainLength": 104,
  "EffectiveEchoSpacing": 0.000560011,
  "FlipAngle": 52,
  "HeudiconvVersion": "0.10.0",
  "ImageComments": "Unaliased MB4/PE3/LB",
  "ImageOrientationPatientDICOM": [0.996626, 0.0646121, 0.050609, -0.0370671, 0.904512, -0.424834],
  "ImageOrientationText": "Tra>Cor(-25.0)>Sag(4.2)",
  "ImageType": [
    "ORIGINAL",
    "PRIMARY",
    "P",
    "MB",
    "ND",
    "MOSAIC",
    "PHASE"
],
  "ImagingFrequency": 123.259,
  "InPlanePhaseEncodingDirectionDICOM": "COL",
  "InstitutionAddress": "Chemin Queen-Mary 4565,Montreal,District,CA,H3W 1W5",
  "InstitutionName": "IUGM",
  "InstitutionalDepartmentName": "Department",
  "MRAcquisitionType": "2D",
  "MagneticFieldStrength": 3,
  "Manufacturer": "Siemens",
  "ManufacturersModelName": "Prisma_fit",
  "MatrixCoilMode": "SENSE",
  "Modality": "MR",
  "MultibandAccelerationFactor": 4,
  "PartialFourier": 1,
  "PatientPosition": "HFS",
  "PercentPhaseFOV": 100,
  "PercentSampling": 100,
  "PhaseEncodingDirection": "j",
  "PhaseEncodingSteps": 104,
  "PhaseResolution": 1,
  "PixelBandwidth": 2290,
  "ProcedureStepDescription": "games^mario",
  "ProtocolName": "func_task-mario_run-01",
  "PulseSequenceDetails": "%CustomerSeq%\\cmrr_mbep2d_bold",
  "ReceiveCoilActiveElements": "HC1-7;NC1,2",
  "ReceiveCoilName": "HeadNeck_64",
  "ReconMatrixPE": 104,
  "RepetitionTime": 1.49,
  "SAR": 0.0714501,
  "ScanOptions": "FS",
  "ScanningSequence": "EP",
  "SequenceName": "epfid2d1_104",
  "SequenceVariant": "SK\\SS",
  "SeriesDescription": "func_task-mario_run-01",
  "SeriesNumber": 11,
  "ShimSetting": [630, -7188, -8856, 636, 62, -9, -80, -6],
  "SliceThickness": 2,
  "SliceTiming": [0, 0.785, 0.0975, 0.8825, 0.195, 0.98, 0.295, 1.0775, 0.3925, 1.175, 0.49, 1.275, 0.5875, 1.3725, 0.685, 0, 0.785, 0.0975, 0.8825, 0.195, 0.98, 0.295, 1.0775, 0.3925, 1.175, 0.49, 1.275, 0.5875, 1.3725, 0.685, 0, 0.785, 0.0975, 0.8825, 0.195, 0.98, 0.295, 1.0775, 0.3925, 1.175, 0.49, 1.275, 0.5875, 1.3725, 0.685, 0, 0.785, 0.0975, 0.8825, 0.195, 0.98, 0.295, 1.0775, 0.3925, 1.175, 0.49, 1.275, 0.5875, 1.3725, 0.685],
  "SoftwareVersions": "syngo MR E11",
  "SpacingBetweenSlices": 2,
  "StationName": "MRC35049",
  "TaskName": "mario",
  "TotalReadoutTime": 0.0576811,
  "TxRefAmp": 323.525,
  "WipMemBlock": "cafa4154-0785-412d-b7c3-c995b9ffbdd0||Sequence: R016 ve11c/master r/e634e98; Dec 19 2017 11:00:25 by eja",
  "dcmmeta_affine": [
    [-1.9932526350021362, -0.07413427531719208, 0.1464516967535019, 106.87590026855469],
    [-0.1292242854833603, 1.8090245723724365, -0.8430487513542175, -47.637603759765625],
    [0.10121794790029526, 0.8496670722961426, 1.8077114820480347, -83.66597747802734],
    [0.0, 0.0, 0.0, 1.0]
],
  "dcmmeta_reorient_transform": [
    [0.0, -1.0, 0.0, 103.0],
    [1.0, 0.0, 0.0, 0.0],
    [0.0, 0.0, 1.0, 0.0],
    [0.0, 0.0, 0.0, 1.0]
],
  "dcmmeta_shape": [104, 104, 60, 446],
  "dcmmeta_slice_dim": 2,
  "dcmmeta_version": 0.6,
  "global": {
    "const": {
      "AcquisitionMatrix": [104, 0, 0, 104],
      "AngioFlag": "N",
      "BitsAllocated": 16,
      "BitsStored": 16,
      "BodyPartExamined": "BRAIN",
      "Columns": 832,
      "EchoNumbers": 1,
      "EchoTime": 37.0,
      "EchoTrainLength": 104,
      "FlipAngle": 52.0,
      "HighBit": 15,
      "ImageOrientationPatient": [0.99662631069853, 0.06461213940947, 0.05060897414851, -0.0370671378739, 0.90451229462661, -0.4248335393529],
      "ImagePositionPatient": [-797.79914403199, -844.21451755186, 276.28521621029],
      "ImageType": [
        "ORIGINAL",
        "PRIMARY",
        "P",
        "MB",
        "ND",
        "MOSAIC"
],
      "ImagedNucleus": "1H",
      "ImagingFrequency": 123.258876,
      "InPlanePhaseEncodingDirection": "COL",
      "LargestImagePixelValue": 4095,
      "MRAcquisitionType": "2D",
      "MagneticFieldStrength": 3.0,
      "Manufacturer": "SIEMENS",
      "ManufacturerModelName": "Prisma_fit",
      "Modality": "MR",
      "NumberOfAverages": 1.0,
      "NumberOfPhaseEncodingSteps": 104,
      "PercentPhaseFieldOfView": 100.0,
      "PercentSampling": 100.0,
      "PerformedProcedureStepStartTime": "174814.699000",
      "PhotometricInterpretation": "MONOCHROME2",
      "PixelBandwidth": 2290.0,
      "PixelRepresentation": 0,
      "PixelSpacing": [2.0, 2.0],
      "ProtocolName": "func_task-mario_run-01",
      "RepetitionTime": 1490.0,
      "RescaleIntercept": -4096.0,
      "RescaleSlope": 2.0,
      "RescaleType": "US",
      "Rows": 832,
      "SAR": 0.07145008892798,
      "SamplesPerPixel": 1,
      "ScanOptions": "FS",
      "ScanningSequence": "EP",
      "SequenceName": "epfid2d1_104",
      "SequenceVariant": [
        "SK",
        "SS"
],
      "SeriesDescription": "func_task-mario_run-01",
      "SeriesNumber": 11,
      "SeriesTime": "175607.255000",
      "SliceLocation": -47.715485344949,
      "SliceThickness": 2.0,
      "SmallestImagePixelValue": 0,
      "SoftwareVersions": "syngo MR E11",
      "SpacingBetweenSlices": 2.0000000530008,
      "SpecificCharacterSet": "ISO_IR 100",
      "StudyID": "1",
      "StudyTime": "174814.620000",
      "TransmitCoilName": "Body",
      "VariableFlipAngleFlag": "N",
      "WindowCenterWidthExplanation": "Algo1",
      "dBdt": 0.0},
    "slices": {}
  },
  "time": {
    "samples": {
      "AcquisitionNumber": [1, 2, 3, 4, 5, 6, 7, 8, 9, 10, 11, 12, 13, 14, 15, 16, 17, 18, 19, 20, 21, 22, 23, 24, 25, 26, 27, 28, 29, 30, 31, 32, 33, 34, 35, 36, 37, 38, 39, 40, 41, 42, 43, 44, 45, 46, 47, 48, 49, 50, 51, 52, 53, 54, 55, 56, 57, 58, 59, 60, 61, 62, 63, 64, 65, 66, 67, 68, 69, 70, 71, 72, 73, 74, 75, 76, 77, 78, 79, 80, 81, 82, 83, 84, 85, 86, 87, 88, 89, 90, 91, 92, 93, 94, 95, 96, 97, 98, 99, 100, 101, 102, 103, 104, 105, 106, 107, 108, 109, 110, 111, 112, 113, 114, 115, 116, 117, 118, 119, 120, 121, 122, 123, 124, 125, 126, 127, 128, 129, 130, 131, 132, 133, 134, 135, 136, 137, 138, 139, 140, 141, 142, 143, 144, 145, 146, 147, 148, 149, 150, 151, 152, 153, 154, 155, 156, 157, 158, 159, 160, 161, 162, 163, 164, 165, 166, 167, 168, 169, 170, 171, 172, 173, 174, 175, 176, 177, 178, 179, 180, 181, 182, 183, 184, 185, 186, 187, 188, 189, 190, 191, 192, 193, 194, 195, 196, 197, 198, 199, 200, 201, 202, 203, 204, 205, 206, 207, 208, 209, 210, 211, 212, 213, 214, 215, 216, 217, 218, 219, 220, 221, 222, 223, 224, 225, 226, 227, 228, 229, 230, 231, 232, 233, 234, 235, 236, 237, 238, 239, 240, 241, 242, 243, 244, 245, 246, 247, 248, 249, 250, 251, 252, 253, 254, 255, 256, 257, 258, 259, 260, 261, 262, 263, 264, 265, 266, 267, 268, 269, 270, 271, 272, 273, 274, 275, 276, 277, 278, 279, 280, 281, 282, 283, 284, 285, 286, 287, 288, 289, 290, 291, 292, 293, 294, 295, 296, 297, 298, 299, 300, 301, 302, 303, 304, 305, 306, 307, 308, 309, 310, 311, 312, 313, 314, 315, 316, 317, 318, 319, 320, 321, 322, 323, 324, 325, 326, 327, 328, 329, 330, 331, 332, 333, 334, 335, 336, 337, 338, 339, 340, 341, 342, 343, 344, 345, 346, 347, 348, 349, 350, 351, 352, 353, 354, 355, 356, 357, 358, 359, 360, 361, 362, 363, 364, 365, 366, 367, 368, 369, 370, 371, 372, 373, 374, 375, 376, 377, 378, 379, 380, 381, 382, 383, 384, 385, 386, 387, 388, 389, 390, 391, 392, 393, 394, 395, 396, 397, 398, 399, 400, 401, 402, 403, 404, 405, 406, 407, 408, 409, 410, 411, 412, 413, 414, 415, 416, 417, 418, 419, 420, 421, 422, 423, 424, 425, 426, 427, 428, 429, 430, 431, 432, 433, 434, 435, 436, 437, 438, 439, 440, 441, 442, 443, 444, 445, 446],
      "AcquisitionTime": ["175439.000000", "175440.490000", "175441.980000", "175443.470000", "175444.960000", "175446.450000", "175447.940000", "175449.430000", "175450.920000", "175452.410000", "175453.900000", "175455.390000", "175456.880000", "175458.370000", "175459.860000", "175501.350000", "175502.840000", "175504.330000", "175505.820000", "175507.310000", "175508.800000", "175510.290000", "175511.780000", "175513.270000", "175514.760000", "175516.250000", "175517.740000", "175519.230000", "175520.720000", "175522.210000", "175523.700000", "175525.190000", "175526.680000", "175528.170000", "175529.660000", "175531.150000", "175532.640000", "175534.130000", "175535.620000", "175537.110000", "175538.600000", "175540.090000", "175541.580000", "175543.070000", "175544.560000", "175546.050000", "175547.540000", "175549.030000", "175550.520000", "175552.010000", "175553.500000", "175554.990000", "175556.480000", "175557.970000", "175559.460000", "175600.950000", "175602.440000", "175603.930000", "175605.420000", "175606.910000", "175608.400000", "175609.890000", "175611.380000", "175612.870000", "175614.360000", "175615.850000", "175617.340000", "175618.830000", "175620.320000", "175621.810000", "175623.300000", "175624.790000", "175626.280000", "175627.770000", "175629.260000", "175630.750000", "175632.240000", "175633.730000", "175635.220000", "175636.710000", "175638.200000", "175639.690000", "175641.180000", "175642.670000", "175644.160000", "175645.650000", "175647.140000", "175648.630000", "175650.120000", "175651.610000", "175653.100000", "175654.590000", "175656.080000", "175657.570000", "175659.060000", "175700.550000", "175702.040000", "175703.530000", "175705.020000", "175706.510000", "175708.000000", "175709.490000", "175710.980000", "175712.470000", "175713.960000", "175715.450000", "175716.940000", "175718.430000", "175719.920000", "175721.410000", "175722.900000", "175724.390000", "175725.880000", "175727.370000", "175728.860000", "175730.350000", "175731.840000", "175733.330000", "175734.820000", "175736.310000", "175737.800000", "175739.290000", "175740.780000", "175742.270000", "175743.760000", "175745.250000", "175746.740000", "175748.230000", "175749.720000", "175751.210000", "175752.700000", "175754.190000", "175755.680000", "175757.170000", "175758.660000", "175800.150000", "175801.640000", "175803.130000", "175804.620000", "175806.110000", "175807.600000", "175809.090000", "175810.580000", "175812.070000", "175813.560000", "175815.050000", "175816.540000", "175818.030000", "175819.520000", "175821.010000", "175822.500000", "175823.990000", "175825.480000", "175826.970000", "175828.460000", "175829.950000", "175831.440000", "175832.930000", "175834.420000", "175835.910000", "175837.400000", "175838.890000", "175840.380000", "175841.870000", "175843.360000", "175844.850000", "175846.340000", "175847.830000", "175849.320000", "175850.810000", "175852.300000", "175853.790000", "175855.280000", "175856.770000", "175858.260000", "175859.750000", "175901.240000", "175902.730000", "175904.220000", "175905.710000", "175907.200000", "175908.690000", "175910.180000", "175911.670000", "175913.160000", "175914.650000", "175916.140000", "175917.630000", "175919.120000", "175920.610000", "175922.100000", "175923.590000", "175925.080000", "175926.570000", "175928.060000", "175929.550000", "175931.040000", "175932.530000", "175934.020000", "175935.510000", "175937.000000", "175938.490000", "175939.980000", "175941.470000", "175942.960000", "175944.450000", "175945.940000", "175947.430000", "175948.920000", "175950.410000", "175951.900000", "175953.390000", "175954.880000", "175956.370000", "175957.860000", "175959.350000", "180000.840000", "180002.330000", "180003.820000", "180005.310000", "180006.800000", "180008.290000", "180009.780000", "180011.270000", "180012.760000", "180014.250000", "180015.740000", "180017.230000", "180018.720000", "180020.210000", "180021.700000", "180023.190000", "180024.680000", "180026.170000", "180027.660000", "180029.150000", "180030.640000", "180032.130000", "180033.620000", "180035.110000", "180036.600000", "180038.090000", "180039.580000", "180041.070000", "180042.560000", "180044.050000", "180045.540000", "180047.030000", "180048.520000", "180050.010000", "180051.500000", "180052.990000", "180054.480000", "180055.970000", "180057.460000", "180058.950000", "180100.440000", "180101.930000", "180103.420000", "180104.910000", "180106.400000", "180107.890000", "180109.380000", "180110.870000", "180112.360000", "180113.850000", "180115.340000", "180116.830000", "180118.320000", "180119.810000", "180121.300000", "180122.790000", "180124.280000", "180125.770000", "180127.260000", "180128.750000", "180130.240000", "180131.730000", "180133.220000", "180134.710000", "180136.200000", "180137.690000", "180139.180000", "180140.670000", "180142.160000", "180143.650000", "180145.140000", "180146.630000", "180148.120000", "180149.610000", "180151.100000", "180152.590000", "180154.080000", "180155.570000", "180157.060000", "180158.550000", "180200.040000", "180201.530000", "180203.020000", "180204.510000", "180206.000000", "180207.490000", "180208.980000", "180210.470000", "180211.960000", "180213.450000", "180214.940000", "180216.430000", "180217.920000", "180219.410000", "180220.900000", "180222.390000", "180223.880000", "180225.370000", "180226.860000", "180228.350000", "180229.840000", "180231.330000", "180232.820000", "180234.310000", "180235.800000", "180237.290000", "180238.780000", "180240.270000", "180241.760000", "180243.250000", "180244.740000", "180246.230000", "180247.720000", "180249.210000", "180250.700000", "180252.190000", "180253.680000", "180255.170000", "180256.660000", "180258.150000", "180259.640000", "180301.130000", "180302.620000", "180304.110000", "180305.600000", "180307.090000", "180308.580000", "180310.070000", "180311.560000", "180313.050000", "180314.540000", "180316.030000", "180317.520000", "180319.010000", "180320.500000", "180321.990000", "180323.480000", "180324.970000", "180326.460000", "180327.950000", "180329.440000", "180330.930000", "180332.420000", "180333.910000", "180335.400000", "180336.890000", "180338.380000", "180339.870000", "180341.360000", "180342.850000", "180344.340000", "180345.830000", "180347.320000", "180348.810000", "180350.300000", "180351.790000", "180353.280000", "180354.770000", "180356.260000", "180357.750000", "180359.240000", "180400.730000", "180402.220000", "180403.710000", "180405.200000", "180406.690000", "180408.180000", "180409.670000", "180411.160000", "180412.650000", "180414.140000", "180415.630000", "180417.120000", "180418.610000", "180420.100000", "180421.590000", "180423.080000", "180424.570000", "180426.060000", "180427.550000", "180429.040000", "180430.530000", "180432.020000", "180433.510000", "180435.000000", "180436.490000", "180437.980000", "180439.470000", "180440.960000", "180442.450000", "180443.940000", "180445.430000", "180446.920000", "180448.410000", "180449.900000", "180451.390000", "180452.880000", "180454.370000", "180455.860000", "180457.350000", "180458.840000", "180500.330000", "180501.820000", "180503.310000", "180504.800000", "180506.290000", "180507.780000", "180509.270000", "180510.760000", "180512.250000", "180513.740000", "180515.230000", "180516.720000", "180518.210000", "180519.700000", "180521.190000", "180522.680000", "180524.170000", "180525.660000", "180527.150000", "180528.640000", "180530.130000", "180531.620000", "180533.110000", "180534.600000", "180536.090000", "180537.580000", "180539.070000", "180540.560000", "180542.050000"],
      "ContentTime": ["175607.257000", "175607.260000", "175607.263000", "175607.265000", "175607.268000", "175607.270000", "175607.272000", "175607.275000", "175607.277000", "175607.280000", "175607.282000", "175607.285000", "175607.287000", "175607.290000", "175607.292000", "175607.295000", "175607.297000", "175607.300000", "175607.302000", "175607.305000", "175607.307000", "175607.310000", "175607.313000", "175607.316000", "175607.319000", "175607.321000", "175607.323000", "175607.331000", "175607.334000", "175607.336000", "175607.339000", "175607.341000", "175607.344000", "175607.346000", "175627.157000", "175627.160000", "175627.163000", "175627.165000", "175627.168000", "175627.170000", "175627.173000", "175627.175000", "175627.178000", "175627.180000", "175627.183000", "175627.185000", "175627.188000", "175627.190000", "175627.193000", "175627.196000", "175627.199000", "175627.201000", "175627.204000", "175627.206000", "175647.562000", "175647.565000", "175647.568000", "175647.570000", "175647.573000", "175647.575000", "175647.578000", "175647.580000", "175647.583000", "175647.585000", "175647.588000", "175647.590000", "175647.593000", "175647.595000", "175647.598000", "175647.600000", "175647.603000", "175647.605000", "175647.608000", "175647.611000", "175707.185000", "175707.188000", "175707.190000", "175707.193000", "175707.195000", "175707.198000", "175707.200000", "175707.203000", "175707.205000", "175707.208000", "175707.210000", "175707.213000", "175707.215000", "175707.218000", "175707.220000", "175707.223000", "175707.225000", "175707.228000", "175707.230000", "175707.233000", "175707.235000", "175747.216000", "175747.219000", "175747.221000", "175747.224000", "175747.226000", "175747.229000", "175747.231000", "175747.234000", "175747.236000", "175747.239000", "175747.241000", "175747.244000", "175747.246000", "175747.249000", "175747.251000", "175747.254000", "175747.256000", "175747.259000", "175747.262000", "175747.266000", "175747.269000", "175747.271000", "175747.274000", "175747.277000", "175747.279000", "175747.282000", "175747.284000", "175747.287000", "175747.290000", "175747.292000", "175827.200000", "175827.203000", "175827.205000", "175827.208000", "175827.210000", "175827.213000", "175827.215000", "175827.218000", "175827.220000", "175827.223000", "175827.225000", "175827.228000", "175827.230000", "175827.233000", "175827.235000", "175827.238000", "175827.240000", "175827.243000", "175827.245000", "175827.248000", "175827.250000", "175827.253000", "175827.255000", "175827.258000", "175827.260000", "175827.263000", "175827.265000", "175907.209000", "175907.211000", "175907.214000", "175907.216000", "175907.219000", "175907.221000", "175907.224000", "175907.226000", "175907.229000", "175907.232000", "175907.234000", "175907.237000", "175907.239000", "175907.242000", "175907.244000", "175907.247000", "175907.249000", "175907.252000", "175907.254000", "175907.257000", "175907.259000", "175907.262000", "175907.264000", "175907.267000", "175907.269000", "175907.272000", "175907.274000", "175947.199000", "175947.202000", "175947.204000", "175947.207000", "175947.209000", "175947.212000", "175947.214000", "175947.217000", "175947.219000", "175947.222000", "175947.224000", "175947.227000", "175947.229000", "175947.232000", "175947.234000", "175947.237000", "175947.239000", "175947.242000", "175947.245000", "175947.247000", "175947.250000", "175947.252000", "175947.255000", "175947.257000", "175947.260000", "175947.262000", "175947.265000", "180027.201000", "180027.204000", "180027.206000", "180027.209000", "180027.211000", "180027.214000", "180027.216000", "180027.219000", "180027.222000", "180027.224000", "180027.227000", "180027.229000", "180027.232000", "180027.234000", "180027.237000", "180027.239000", "180027.242000", "180027.244000", "180027.247000", "180027.249000", "180027.252000", "180027.254000", "180027.257000", "180027.259000", "180027.262000", "180027.264000", "180027.267000", "180107.198000", "180107.208000", "180107.210000", "180107.213000", "180107.215000", "180107.218000", "180107.220000", "180107.223000", "180107.225000", "180107.228000", "180107.230000", "180107.233000", "180107.235000", "180107.238000", "180107.240000", "180107.243000", "180107.245000", "180107.248000", "180107.250000", "180107.253000", "180107.255000", "180107.258000", "180107.261000", "180107.263000", "180107.266000", "180107.268000", "180107.271000", "180147.188000", "180147.190000", "180147.193000", "180147.195000", "180147.198000", "180147.201000", "180147.203000", "180147.206000", "180147.208000", "180147.211000", "180147.213000", "180147.215000", "180147.218000", "180147.220000", "180147.223000", "180147.225000", "180147.228000", "180147.230000", "180147.233000", "180147.235000", "180147.238000", "180147.240000", "180147.243000", "180147.245000", "180147.248000", "180147.250000", "180227.201000", "180227.204000", "180227.206000", "180227.209000", "180227.211000", "180227.214000", "180227.216000", "180227.219000", "180227.221000", "180227.224000", "180227.226000", "180227.229000", "180227.231000", "180227.234000", "180227.236000", "180227.239000", "180227.241000", "180227.244000", "180227.246000", "180227.249000", "180227.251000", "180227.254000", "180227.257000", "180227.260000", "180227.263000", "180227.265000", "180227.268000", "180307.198000", "180307.200000", "180307.203000", "180307.205000", "180307.208000", "180307.210000", "180307.213000", "180307.215000", "180307.218000", "180307.220000", "180307.223000", "180307.225000", "180307.228000", "180307.230000", "180307.233000", "180307.235000", "180307.238000", "180307.240000", "180307.243000", "180307.245000", "180307.248000", "180307.250000", "180307.253000", "180307.255000", "180307.258000", "180307.260000", "180307.263000", "180347.189000", "180347.192000", "180347.195000", "180347.197000", "180347.200000", "180347.202000", "180347.205000", "180347.207000", "180347.210000", "180347.212000", "180347.215000", "180347.217000", "180347.220000", "180347.222000", "180347.225000", "180347.227000", "180347.230000", "180347.232000", "180347.235000", "180347.237000", "180347.240000", "180347.242000", "180347.245000", "180347.247000", "180347.250000", "180347.252000", "180347.255000", "180427.214000", "180427.217000", "180427.220000", "180427.222000", "180427.225000", "180427.227000", "180427.230000", "180427.232000", "180427.235000", "180427.237000", "180427.240000", "180427.242000", "180427.245000", "180427.247000", "180427.250000", "180427.252000", "180427.255000", "180427.257000", "180427.260000", "180427.262000", "180427.265000", "180427.267000", "180427.270000", "180427.272000", "180427.275000", "180427.277000", "180427.280000", "180507.188000", "180507.191000", "180507.194000", "180507.196000", "180507.199000", "180507.201000", "180507.204000", "180507.206000", "180507.209000", "180507.211000", "180507.214000", "180507.216000", "180507.219000", "180507.221000", "180507.224000", "180507.226000", "180507.229000", "180507.231000", "180507.234000", "180507.236000", "180507.239000", "180507.241000", "180507.244000", "180507.246000", "180507.249000", "180507.251000", "180507.254000", "180545.291000", "180545.294000", "180545.297000", "180545.299000", "180545.302000", "180545.304000", "180545.307000", "180545.309000", "180545.312000", "180545.314000", "180545.317000", "180545.319000", "180545.322000", "180545.324000", "180545.327000", "180545.329000", "180545.332000", "180545.334000", "180545.337000", "180545.339000", "180545.342000", "180545.344000", "180545.347000", "180545.349000", "180545.352000"],
