{
  "AcquisitionMatrixPE": 104,
  "AcquisitionNumber": 1,
  "AcquisitionTime": "16:37:28.155000",
  "BandwidthPerPixelPhaseEncode": 17.17,
  "BaseResolution": 104,
  "BodyPartExamined": "BRAIN",
  "CoilString": "HC1-7;NC1_2",
  "ConsistencyInfo": "N4_VE11C_LATEST_20160120",
  "ConversionSoftware": "dcm2niix",
  "ConversionSoftwareVersion": "v1.0.20190902",
  "DerivedVendorReportedEchoSpacing": 0.000560011,
  "DeviceSerialNumber": "167006",
  "DwellTime": 2.1e-06,
  "EchoTime": 0.037,
  "EchoTrainLength": 104,
  "EffectiveEchoSpacing": 0.000560011,
  "FlipAngle": 52,
  "HeudiconvVersion": "0.10.0",
  "ImageComments": "Unaliased_MB4_PE3_LB",
  "ImageOrientationPatientDICOM": [0.998748, -0.0435654, 0.0245786, 0.0490217, 0.950193, -0.307783],
  "ImageType": [
    "ORIGINAL",
    "PRIMARY",
    "M",
    "MB",
    "ND",
    "MOSAIC"
],
  "ImagingFrequency": 123.259,
  "InPlanePhaseEncodingDirectionDICOM": "COL",
  "InstitutionAddress": "Chemin_Queen-Mary_4565_Montreal_District_CA_H3W_1W5",
  "InstitutionName": "IUGM",
  "InstitutionalDepartmentName": "Department",
  "MRAcquisitionType": "2D",
  "MagneticFieldStrength": 3,
  "Manufacturer": "Siemens",
  "ManufacturersModelName": "Prisma_fit",
  "Modality": "MR",
  "MultibandAccelerationFactor": 4,
  "PartialFourier": 1,
  "PatientPosition": "HFS",
  "PercentPhaseFOV": 100,
  "PhaseEncodingDirection": "j",
  "PhaseEncodingSteps": 104,
  "PhaseResolution": 1,
  "PixelBandwidth": 2290,
  "ProcedureStepDescription": "games_mario",
  "ProtocolName": "func_task-mario_run-03",
  "PulseSequenceDetails": "%CustomerSeq%_cmrr_mbep2d_bold",
  "ReceiveCoilActiveElements": "HC1-7;NC1,2",
  "ReceiveCoilName": "HeadNeck_64",
  "ReconMatrixPE": 104,
  "RepetitionTime": 1.49,
  "SAR": 0.0386896,
  "ScanOptions": "FS",
  "ScanningSequence": "EP",
  "SequenceName": "epfid2d1_104",
  "SequenceVariant": "SK_SS",
  "SeriesDescription": "func_task-mario_run-03",
  "SeriesNumber": 19,
  "ShimSetting": [634, -7259, -8814, 599, 27, -199, -73, 10],
  "SliceThickness": 2,
  "SliceTiming": [0, 0.7825, 0.0975, 0.8825, 0.195, 0.98, 0.2925, 1.0775, 0.3925, 1.175, 0.49, 1.2725, 0.5875, 1.3725, 0.685, 0, 0.7825, 0.0975, 0.8825, 0.195, 0.98, 0.2925, 1.0775, 0.3925, 1.175, 0.49, 1.2725, 0.5875, 1.3725, 0.685, 0, 0.7825, 0.0975, 0.8825, 0.195, 0.98, 0.2925, 1.0775, 0.3925, 1.175, 0.49, 1.2725, 0.5875, 1.3725, 0.685, 0, 0.7825, 0.0975, 0.8825, 0.195, 0.98, 0.2925, 1.0775, 0.3925, 1.175, 0.49, 1.2725, 0.5875, 1.3725, 0.685],
  "SoftwareVersions": "syngo_MR_E11",
  "SpacingBetweenSlices": 2,
  "StationName": "MRC35049",
  "TaskName": "mario",
  "TotalReadoutTime": 0.0576811,
  "TxRefAmp": 236.921,
  "WipMemBlock": "df9fa0b4-4811-4726-9e98-b54cb0de8572||Sequence: R016 ve11c/master r/e634e98; Dec 19 2017 11:00:25 by eja",
  "dcmmeta_affine": [
    [-1.9974963665008545, 0.09804344922304153, 0.019891494885087013, 101.99383544921875],
    [0.08713070303201675, 1.900385856628418, -0.6172047257423401, -71.22244262695312],
    [0.04915719851851463, 0.6155654788017273, 1.9022783041000366, -60.61960983276367],
    [0.0, 0.0, 0.0, 1.0]
],
  "dcmmeta_reorient_transform": [
    [0.0, -1.0, 0.0, 103.0],
    [1.0, 0.0, 0.0, 0.0],
    [0.0, 0.0, 1.0, 0.0],
    [0.0, 0.0, 0.0, 1.0]
],
  "dcmmeta_shape": [104, 104, 60, 468],
  "dcmmeta_slice_dim": 2,
  "dcmmeta_version": 0.6,
  "global": {
    "const": {
      "AcquisitionMatrix": [104, 0, 0, 104],
      "AngioFlag": "N",
      "BitsAllocated": 16,
      "BitsStored": 16,
      "BodyPartExamined": "BRAIN",
      "Columns": 832,
      "EchoNumbers": 1,
      "EchoTime": 37.0,
      "EchoTrainLength": 104,
      "FlipAngle": 52.0,
      "HighBit": 15,
      "ImageOrientationPatient": [0.99874819279568, -0.0435653519495, 0.02457859835075, 0.04902172482649, 0.95019295254377, -0.3077827536286],
      "ImagePositionPatient": [-874.86880804535, -784.54220057497, 208.95626338011],
      "ImageType": [
        "ORIGINAL",
        "PRIMARY",
        "M",
        "MB",
        "ND",
        "MOSAIC"
],
      "ImagedNucleus": "1H",
      "ImagingFrequency": 123.258877,
      "InPlanePhaseEncodingDirection": "COL",
      "MRAcquisitionType": "2D",
      "MagneticFieldStrength": 3.0,
      "Manufacturer": "SIEMENS",
      "ManufacturerModelName": "Prisma_fit",
      "Modality": "MR",
      "NumberOfAverages": 1.0,
      "NumberOfPhaseEncodingSteps": 104,
      "PercentPhaseFieldOfView": 100.0,
      "PercentSampling": 100.0,
      "PerformedProcedureStepStartTime": "152009.125000",
      "PhotometricInterpretation": "MONOCHROME2",
      "PixelBandwidth": 2290.0,
      "PixelRepresentation": 0,
      "PixelSpacing": [2.0, 2.0],
      "ProtocolName": "func_task-mario_run-03",
      "RepetitionTime": 1490.0,
      "Rows": 832,
      "SAR": 0.03868964297269,
      "SamplesPerPixel": 1,
      "ScanOptions": "FS",
      "ScanningSequence": "EP",
      "SequenceName": "epfid2d1_104",
      "SequenceVariant": [
        "SK",
        "SS"
],
      "SeriesDescription": "func_task-mario_run-03",
      "SeriesNumber": 19,
      "SeriesTime": "163836.789000",
      "SliceLocation": -34.663865076788,
      "SliceThickness": 2.0,
      "SmallestImagePixelValue": 0,
      "SoftwareVersions": "syngo MR E11",
      "SpacingBetweenSlices": 2.0000000303686,
      "SpecificCharacterSet": "ISO_IR 100",
      "StudyID": "1",
      "StudyTime": "152009.040000",
      "TransmitCoilName": "Body",
      "VariableFlipAngleFlag": "N",
      "WindowCenterWidthExplanation": "Algo1",
      "dBdt": 0.0},
    "slices": {}
  },
  "time": {
    "samples": {
      "AcquisitionNumber": [1, 2, 3, 4, 5, 6, 7, 8, 9, 10, 11, 12, 13, 14, 15, 16, 17, 18, 19, 20, 21, 22, 23, 24, 25, 26, 27, 28, 29, 30, 31, 32, 33, 34, 35, 36, 37, 38, 39, 40, 41, 42, 43, 44, 45, 46, 47, 48, 49, 50, 51, 52, 53, 54, 55, 56, 57, 58, 59, 60, 61, 62, 63, 64, 65, 66, 67, 68, 69, 70, 71, 72, 73, 74, 75, 76, 77, 78, 79, 80, 81, 82, 83, 84, 85, 86, 87, 88, 89, 90, 91, 92, 93, 94, 95, 96, 97, 98, 99, 100, 101, 102, 103, 104, 105, 106, 107, 108, 109, 110, 111, 112, 113, 114, 115, 116, 117, 118, 119, 120, 121, 122, 123, 124, 125, 126, 127, 128, 129, 130, 131, 132, 133, 134, 135, 136, 137, 138, 139, 140, 141, 142, 143, 144, 145, 146, 147, 148, 149, 150, 151, 152, 153, 154, 155, 156, 157, 158, 159, 160, 161, 162, 163, 164, 165, 166, 167, 168, 169, 170, 171, 172, 173, 174, 175, 176, 177, 178, 179, 180, 181, 182, 183, 184, 185, 186, 187, 188, 189, 190, 191, 192, 193, 194, 195, 196, 197, 198, 199, 200, 201, 202, 203, 204, 205, 206, 207, 208, 209, 210, 211, 212, 213, 214, 215, 216, 217, 218, 219, 220, 221, 222, 223, 224, 225, 226, 227, 228, 229, 230, 231, 232, 233, 234, 235, 236, 237, 238, 239, 240, 241, 242, 243, 244, 245, 246, 247, 248, 249, 250, 251, 252, 253, 254, 255, 256, 257, 258, 259, 260, 261, 262, 263, 264, 265, 266, 267, 268, 269, 270, 271, 272, 273, 274, 275, 276, 277, 278, 279, 280, 281, 282, 283, 284, 285, 286, 287, 288, 289, 290, 291, 292, 293, 294, 295, 296, 297, 298, 299, 300, 301, 302, 303, 304, 305, 306, 307, 308, 309, 310, 311, 312, 313, 314, 315, 316, 317, 318, 319, 320, 321, 322, 323, 324, 325, 326, 327, 328, 329, 330, 331, 332, 333, 334, 335, 336, 337, 338, 339, 340, 341, 342, 343, 344, 345, 346, 347, 348, 349, 350, 351, 352, 353, 354, 355, 356, 357, 358, 359, 360, 361, 362, 363, 364, 365, 366, 367, 368, 369, 370, 371, 372, 373, 374, 375, 376, 377, 378, 379, 380, 381, 382, 383, 384, 385, 386, 387, 388, 389, 390, 391, 392, 393, 394, 395, 396, 397, 398, 399, 400, 401, 402, 403, 404, 405, 406, 407, 408, 409, 410, 411, 412, 413, 414, 415, 416, 417, 418, 419, 420, 421, 422, 423, 424, 425, 426, 427, 428, 429, 430, 431, 432, 433, 434, 435, 436, 437, 438, 439, 440, 441, 442, 443, 444, 445, 446, 447, 448, 449, 450, 451, 452, 453, 454, 455, 456, 457, 458, 459, 460, 461, 462, 463, 464, 465, 466, 467, 468],
      "AcquisitionTime": ["163728.155000", "163729.645000", "163731.135000", "163732.625000", "163734.115000", "163735.605000", "163737.095000", "163738.585000", "163740.075000", "163741.565000", "163743.055000", "163744.545000", "163746.035000", "163747.525000", "163749.015000", "163750.505000", "163751.995000", "163753.485000", "163754.975000", "163756.465000", "163757.955000", "163759.445000", "163800.935000", "163802.425000", "163803.915000", "163805.405000", "163806.895000", "163808.385000", "163809.875000", "163811.365000", "163812.855000", "163814.345000", "163815.835000", "163817.325000", "163818.815000", "163820.305000", "163821.795000", "163823.285000", "163824.775000", "163826.265000", "163827.755000", "163829.245000", "163830.735000", "163832.225000", "163833.715000", "163835.205000", "163836.695000", "163838.185000", "163839.675000", "163841.165000", "163842.655000", "163844.145000", "163845.635000", "163847.125000", "163848.615000", "163850.105000", "163851.595000", "163853.085000", "163854.575000", "163856.065000", "163857.555000", "163859.045000", "163900.535000", "163902.025000", "163903.515000", "163905.005000", "163906.495000", "163907.985000", "163909.475000", "163910.965000", "163912.455000", "163913.945000", "163915.435000", "163916.925000", "163918.415000", "163919.905000", "163921.395000", "163922.885000", "163924.375000", "163925.865000", "163927.355000", "163928.845000", "163930.335000", "163931.825000", "163933.315000", "163934.805000", "163936.295000", "163937.785000", "163939.275000", "163940.765000", "163942.255000", "163943.745000", "163945.235000", "163946.725000", "163948.215000", "163949.705000", "163951.195000", "163952.685000", "163954.175000", "163955.665000", "163957.155000", "163958.645000", "164000.135000", "164001.625000", "164003.115000", "164004.605000", "164006.095000", "164007.585000", "164009.075000", "164010.565000", "164012.055000", "164013.545000", "164015.035000", "164016.525000", "164018.015000", "164019.505000", "164020.995000", "164022.485000", "164023.975000", "164025.465000", "164026.955000", "164028.445000", "164029.935000", "164031.425000", "164032.915000", "164034.405000", "164035.895000", "164037.385000", "164038.875000", "164040.365000", "164041.855000", "164043.345000", "164044.835000", "164046.325000", "164047.815000", "164049.305000", "164050.795000", "164052.285000", "164053.775000", "164055.265000", "164056.755000", "164058.245000", "164059.735000", "164101.225000", "164102.715000", "164104.205000", "164105.695000", "164107.185000", "164108.675000", "164110.165000", "164111.655000", "164113.145000", "164114.635000", "164116.125000", "164117.615000", "164119.105000", "164120.595000", "164122.085000", "164123.575000", "164125.065000", "164126.555000", "164128.045000", "164129.535000", "164131.025000", "164132.515000", "164134.005000", "164135.495000", "164136.985000", "164138.475000", "164139.965000", "164141.455000", "164142.945000", "164144.435000", "164145.925000", "164147.415000", "164148.905000", "164150.395000", "164151.885000", "164153.375000", "164154.865000", "164156.355000", "164157.845000", "164159.335000", "164200.825000", "164202.315000", "164203.805000", "164205.295000", "164206.785000", "164208.275000", "164209.765000", "164211.255000", "164212.745000", "164214.235000", "164215.725000", "164217.215000", "164218.705000", "164220.195000", "164221.685000", "164223.175000", "164224.665000", "164226.155000", "164227.645000", "164229.135000", "164230.625000", "164232.115000", "164233.605000", "164235.095000", "164236.585000", "164238.075000", "164239.565000", "164241.055000", "164242.545000", "164244.035000", "164245.525000", "164247.015000", "164248.505000", "164249.995000", "164251.485000", "164252.975000", "164254.465000", "164255.955000", "164257.445000", "164258.935000", "164300.425000", "164301.915000", "164303.405000", "164304.895000", "164306.385000", "164307.875000", "164309.365000", "164310.855000", "164312.345000", "164313.835000", "164315.325000", "164316.815000", "164318.305000", "164319.795000", "164321.285000", "164322.775000", "164324.265000", "164325.755000", "164327.245000", "164328.735000", "164330.225000", "164331.715000", "164333.205000", "164334.695000", "164336.185000", "164337.675000", "164339.165000", "164340.655000", "164342.145000", "164343.635000", "164345.125000", "164346.615000", "164348.105000", "164349.595000", "164351.085000", "164352.575000", "164354.065000", "164355.555000", "164357.045000", "164358.535000", "164400.025000", "164401.515000", "164403.005000", "164404.495000", "164405.985000", "164407.475000", "164408.965000", "164410.455000", "164411.945000", "164413.435000", "164414.925000", "164416.415000", "164417.905000", "164419.395000", "164420.885000", "164422.375000", "164423.865000", "164425.355000", "164426.845000", "164428.335000", "164429.825000", "164431.315000", "164432.805000", "164434.295000", "164435.785000", "164437.275000", "164438.765000", "164440.255000", "164441.745000", "164443.235000", "164444.725000", "164446.215000", "164447.705000", "164449.195000", "164450.685000", "164452.175000", "164453.665000", "164455.155000", "164456.645000", "164458.135000", "164459.625000", "164501.115000", "164502.605000", "164504.095000", "164505.585000", "164507.075000", "164508.565000", "164510.055000", "164511.545000", "164513.035000", "164514.525000", "164516.015000", "164517.505000", "164518.995000", "164520.485000", "164521.975000", "164523.465000", "164524.955000", "164526.445000", "164527.935000", "164529.425000", "164530.915000", "164532.405000", "164533.895000", "164535.385000", "164536.875000", "164538.365000", "164539.855000", "164541.345000", "164542.835000", "164544.325000", "164545.815000", "164547.305000", "164548.795000", "164550.285000", "164551.775000", "164553.265000", "164554.755000", "164556.245000", "164557.735000", "164559.225000", "164600.715000", "164602.205000", "164603.695000", "164605.185000", "164606.675000", "164608.165000", "164609.655000", "164611.145000", "164612.635000", "164614.125000", "164615.615000", "164617.105000", "164618.595000", "164620.085000", "164621.575000", "164623.065000", "164624.555000", "164626.045000", "164627.535000", "164629.025000", "164630.515000", "164632.005000", "164633.495000", "164634.985000", "164636.475000", "164637.965000", "164639.455000", "164640.945000", "164642.435000", "164643.925000", "164645.415000", "164646.905000", "164648.395000", "164649.885000", "164651.375000", "164652.865000", "164654.355000", "164655.845000", "164657.335000", "164658.825000", "164700.315000", "164701.805000", "164703.295000", "164704.785000", "164706.275000", "164707.765000", "164709.255000", "164710.745000", "164712.235000", "164713.725000", "164715.215000", "164716.705000", "164718.195000", "164719.685000", "164721.175000", "164722.665000", "164724.155000", "164725.645000", "164727.135000", "164728.625000", "164730.115000", "164731.605000", "164733.095000", "164734.585000", "164736.075000", "164737.565000", "164739.055000", "164740.545000", "164742.035000", "164743.525000", "164745.015000", "164746.505000", "164747.995000", "164749.485000", "164750.975000", "164752.465000", "164753.955000", "164755.445000", "164756.935000", "164758.425000", "164759.915000", "164801.405000", "164802.895000", "164804.385000", "164805.875000", "164807.365000", "164808.855000", "164810.345000", "164811.835000", "164813.325000", "164814.815000", "164816.305000", "164817.795000", "164819.285000", "164820.775000", "164822.265000", "164823.755000", "164825.245000", "164826.735000", "164828.225000", "164829.715000", "164831.205000", "164832.695000", "164834.185000", "164835.675000", "164837.165000", "164838.655000", "164840.145000", "164841.635000", "164843.125000", "164844.615000", "164846.105000", "164847.595000", "164849.085000", "164850.575000", "164852.065000", "164853.555000", "164855.045000", "164856.535000", "164858.025000", "164859.515000", "164901.005000", "164902.495000", "164903.985000"],
      "ContentTime": ["163836.792000", "163836.796000", "163836.800000", "163836.803000", "163836.806000", "163836.812000", "163836.816000", "163836.819000", "163836.822000", "163836.826000", "163836.829000", "163836.832000", "163856.751000", "163856.755000", "163856.758000", "163856.761000", "163856.764000", "163856.768000", "163856.771000", "163856.774000", "163856.778000", "163856.781000", "163856.784000", "163856.787000", "163856.790000", "163856.794000", "163856.797000", "163856.800000", "163856.803000", "163856.807000", "163856.810000", "163856.813000", "163916.751000", "163916.755000", "163916.758000", "163916.761000", "163916.765000", "163916.768000", "163916.771000", "163916.775000", "163916.778000", "163916.781000", "163916.784000", "163916.788000", "163916.791000", "163916.794000", "163916.797000", "163916.801000", "163916.804000", "163916.807000", "163916.811000", "163916.814000", "163936.751000", "163936.755000", "163936.760000", "163936.763000", "163936.767000", "163936.770000", "163936.774000", "163936.777000", "163936.780000", "163936.784000", "163936.787000", "163936.790000", "163936.793000", "163936.796000", "163936.800000", "163936.817000", "163936.820000", "163936.823000", "163936.826000", "163936.829000", "163956.751000", "163956.755000", "163956.758000", "163956.761000", "163956.765000", "163956.768000", "163956.790000", "163956.794000", "163956.797000", "163956.804000", "163956.807000", "163956.811000", "163956.814000", "163956.817000", "163956.820000", "163956.824000", "163956.827000", "163956.830000", "163956.834000", "163956.837000", "163956.840000", "164016.751000", "164016.755000", "164016.758000", "164016.761000", "164016.765000", "164016.768000", "164016.772000", "164016.775000", "164016.778000", "164016.781000", "164016.785000", "164016.788000", "164016.791000", "164016.795000", "164016.798000", "164016.801000", "164016.804000", "164016.808000", "164016.811000", "164016.814000", "164056.752000", "164056.756000", "164056.759000", "164056.763000", "164056.766000", "164056.769000", "164056.773000", "164056.776000", "164056.779000", "164056.783000", "164056.786000", "164056.789000", "164056.792000", "164056.796000", "164056.799000", "164056.802000", "164056.806000", "164056.809000", "164056.812000", "164056.817000", "164056.820000", "164056.824000", "164056.827000", "164056.830000", "164056.833000", "164056.837000", "164136.751000", "164136.755000", "164136.758000", "164136.762000", "164136.765000", "164136.768000", "164136.793000", "164136.796000", "164136.800000", "164136.803000", "164136.806000", "164136.810000", "164136.813000", "164136.816000", "164136.820000", "164136.823000", "164136.826000", "164136.830000", "164136.833000", "164136.836000", "164136.839000", "164136.843000", "164136.846000", "164136.849000", "164136.853000", "164136.856000", "164136.859000", "164216.751000", "164216.755000", "164216.758000", "164216.762000", "164216.765000", "164216.768000", "164216.772000", "164216.775000", "164216.778000", "164216.782000", "164216.785000", "164216.788000", "164216.791000", "164216.795000", "164216.798000", "164216.801000", "164216.805000", "164216.808000", "164216.811000", "164216.814000", "164216.818000", "164216.821000", "164216.824000", "164216.828000", "164216.831000", "164216.834000", "164216.838000", "164256.752000", "164256.756000", "164256.759000", "164256.776000", "164256.779000", "164256.783000", "164256.786000", "164256.790000", "164256.793000", "164256.796000", "164256.799000", "164256.803000", "164256.806000", "164256.809000", "164256.813000", "164256.816000", "164256.819000", "164256.822000", "164256.826000", "164256.829000", "164256.832000", "164256.836000", "164256.839000", "164256.842000", "164256.845000", "164256.849000", "164256.852000", "164336.751000", "164336.755000", "164336.758000", "164336.761000", "164336.765000", "164336.768000", "164336.771000", "164336.775000", "164336.778000", "164336.781000", "164336.785000", "164336.788000", "164336.791000", "164336.795000", "164336.798000", "164336.801000", "164336.805000", "164336.808000", "164336.811000", "164336.815000", "164336.818000", "164336.821000", "164336.825000", "164336.828000", "164336.831000", "164336.834000", "164336.838000", "164416.751000", "164416.755000", "164416.758000", "164416.761000", "164416.764000", "164416.768000", "164416.771000", "164416.775000", "164416.778000", "164416.781000", "164416.784000", "164416.788000", "164416.791000", "164416.794000", "164416.797000", "164416.801000", "164416.804000", "164416.807000", "164416.810000", "164416.814000", "164416.817000", "164416.832000", "164416.835000", "164416.839000", "164416.842000", "164416.845000", "164416.848000", "164456.751000", "164456.755000", "164456.758000", "164456.762000", "164456.765000", "164456.768000", "164456.772000", "164456.775000", "164456.778000", "164456.782000", "164456.785000", "164456.788000", "164456.792000", "164456.795000", "164456.798000", "164456.801000", "164456.805000", "164456.808000", "164456.811000", "164456.814000", "164456.818000", "164456.821000", "164456.824000", "164456.828000", "164456.831000", "164456.834000", "164536.751000", "164536.755000", "164536.758000", "164536.761000", "164536.765000", "164536.768000", "164536.805000", "164536.808000", "164536.811000", "164536.814000", "164536.818000", "164536.821000", "164536.824000", "164536.827000", "164536.831000", "164536.834000", "164536.837000", "164536.840000", "164536.844000", "164536.847000", "164536.850000", "164536.853000", "164536.857000", "164536.860000", "164536.863000", "164536.866000", "164536.870000", "164616.751000", "164616.755000", "164616.758000", "164616.761000", "164616.765000", "164616.768000", "164616.791000", "164616.794000", "164616.798000", "164616.801000", "164616.804000", "164616.808000", "164616.811000", "164616.814000", "164616.817000", "164616.821000", "164616.824000", "164616.827000", "164616.830000", "164616.834000", "164616.837000", "164616.840000", "164616.844000", "164616.847000", "164616.850000", "164616.853000", "164616.857000", "164636.751000", "164636.755000", "164636.758000", "164636.761000", "164636.765000", "164636.768000", "164636.772000", "164636.775000", "164636.778000", "164636.781000", "164636.785000", "164636.788000", "164636.791000", "164636.795000", "164716.751000", "164716.755000", "164716.759000", "164716.763000", "164716.766000", "164716.769000", "164716.773000", "164716.776000", "164716.779000", "164716.782000", "164716.786000", "164716.789000", "164716.792000", "164716.795000", "164716.799000", "164716.802000", "164716.805000", "164716.808000", "164716.812000", "164716.815000", "164716.818000", "164716.822000", "164716.826000", "164716.829000", "164716.832000", "164716.836000", "164756.751000", "164756.755000", "164756.758000", "164756.761000", "164756.765000", "164756.768000", "164756.771000", "164756.775000", "164756.778000", "164756.781000", "164756.784000", "164756.788000", "164756.791000", "164756.794000", "164756.797000", "164756.801000", "164756.804000", "164756.807000", "164756.810000", "164756.814000", "164756.817000", "164756.820000", "164756.824000", "164756.827000", "164756.830000", "164756.833000", "164756.837000", "164836.751000", "164836.755000", "164836.758000", "164836.761000", "164836.765000", "164836.768000", "164836.772000", "164836.775000", "164836.778000", "164836.782000", "164836.785000", "164836.789000", "164836.798000", "164836.801000", "164836.804000", "164836.807000", "164836.811000", "164836.814000", "164836.817000", "164836.820000", "164836.824000", "164836.827000", "164836.830000", "164836.834000", "164836.837000", "164836.840000", "164836.843000", "164906.574000", "164906.578000", "164906.581000", "164906.584000", "164906.588000", "164906.591000", "164906.594000", "164906.598000", "164906.601000", "164906.604000", "164906.607000", "164906.611000", "164906.614000", "164906.617000", "164906.621000", "164906.624000", "164906.627000", "164906.631000", "164906.634000", "164906.637000"],
