{
  "AcquisitionMatrixPE": 104,
  "AcquisitionNumber": 1,
  "AcquisitionTime": "16:22:19.665000",
  "BandwidthPerPixelPhaseEncode": 17.17,
  "BaseResolution": 104,
  "BodyPartExamined": "BRAIN",
  "CoilString": "HC1-7;NC1_2",
  "ConsistencyInfo": "N4_VE11C_LATEST_20160120",
  "ConversionSoftware": "dcm2niix",
  "ConversionSoftwareVersion": "v1.0.20190902",
  "DerivedVendorReportedEchoSpacing": 0.000560011,
  "DeviceSerialNumber": "167006",
  "DwellTime": 2.1e-06,
  "EchoTime": 0.037,
  "EchoTrainLength": 104,
  "EffectiveEchoSpacing": 0.000560011,
  "FlipAngle": 52,
  "HeudiconvVersion": "0.10.0",
  "ImageComments": "Unaliased_MB4_PE3_LB",
  "ImageOrientationPatientDICOM": [0.998748, -0.0435654, 0.0245786, 0.0490217, 0.950193, -0.307783],
  "ImageType": [
    "ORIGINAL",
    "PRIMARY",
    "P",
    "MB",
    "ND",
    "MOSAIC"
],
  "ImagingFrequency": 123.259,
  "InPlanePhaseEncodingDirectionDICOM": "COL",
  "InstitutionAddress": "Chemin_Queen-Mary_4565_Montreal_District_CA_H3W_1W5",
  "InstitutionName": "IUGM",
  "InstitutionalDepartmentName": "Department",
  "MRAcquisitionType": "2D",
  "MagneticFieldStrength": 3,
  "Manufacturer": "Siemens",
  "ManufacturersModelName": "Prisma_fit",
  "Modality": "MR",
  "MultibandAccelerationFactor": 4,
  "PartialFourier": 1,
  "PatientPosition": "HFS",
  "PercentPhaseFOV": 100,
  "PhaseEncodingDirection": "j",
  "PhaseEncodingSteps": 104,
  "PhaseResolution": 1,
  "PixelBandwidth": 2290,
  "ProcedureStepDescription": "games_mario",
  "ProtocolName": "func_task-mario_run-02",
  "PulseSequenceDetails": "%CustomerSeq%_cmrr_mbep2d_bold",
  "ReceiveCoilActiveElements": "HC1-7;NC1,2",
  "ReceiveCoilName": "HeadNeck_64",
  "ReconMatrixPE": 104,
  "RepetitionTime": 1.49,
  "SAR": 0.0386896,
  "ScanOptions": "FS",
  "ScanningSequence": "EP",
  "SequenceName": "epfid2d1_104",
  "SequenceVariant": "SK_SS",
  "SeriesDescription": "func_task-mario_run-02",
  "SeriesNumber": 17,
  "ShimSetting": [634, -7259, -8814, 599, 27, -199, -73, 10],
  "SliceThickness": 2,
  "SliceTiming": [0, 0.785, 0.0975, 0.8825, 0.1975, 0.98, 0.295, 1.0775, 0.3925, 1.175, 0.49, 1.275, 0.5875, 1.3725, 0.6875, 0, 0.785, 0.0975, 0.8825, 0.1975, 0.98, 0.295, 1.0775, 0.3925, 1.175, 0.49, 1.275, 0.5875, 1.3725, 0.6875, 0, 0.785, 0.0975, 0.8825, 0.1975, 0.98, 0.295, 1.0775, 0.3925, 1.175, 0.49, 1.275, 0.5875, 1.3725, 0.6875, 0, 0.785, 0.0975, 0.8825, 0.1975, 0.98, 0.295, 1.0775, 0.3925, 1.175, 0.49, 1.275, 0.5875, 1.3725, 0.6875],
  "SoftwareVersions": "syngo_MR_E11",
  "SpacingBetweenSlices": 2,
  "StationName": "MRC35049",
  "TaskName": "mario",
  "TotalReadoutTime": 0.0576811,
  "TxRefAmp": 236.921,
  "WipMemBlock": "beeb6994-5181-4bec-9d64-25745acda9ab||Sequence: R016 ve11c/master r/e634e98; Dec 19 2017 11:00:25 by eja",
  "dcmmeta_affine": [
    [-1.9974963665008545, 0.09804344922304153, 0.019891494885087013, 101.99383544921875],
    [0.08713070303201675, 1.900385856628418, -0.6172047257423401, -71.22244262695312],
    [0.04915719851851463, 0.6155654788017273, 1.9022783041000366, -60.61960983276367],
    [0.0, 0.0, 0.0, 1.0]
],
  "dcmmeta_reorient_transform": [
    [0.0, -1.0, 0.0, 103.0],
    [1.0, 0.0, 0.0, 0.0],
    [0.0, 0.0, 1.0, 0.0],
    [0.0, 0.0, 0.0, 1.0]
],
  "dcmmeta_shape": [104, 104, 60, 421],
  "dcmmeta_slice_dim": 2,
  "dcmmeta_version": 0.6,
  "global": {
    "const": {
      "AcquisitionMatrix": [104, 0, 0, 104],
      "AngioFlag": "N",
      "BitsAllocated": 16,
      "BitsStored": 16,
      "BodyPartExamined": "BRAIN",
      "Columns": 832,
      "EchoNumbers": 1,
      "EchoTime": 37.0,
      "EchoTrainLength": 104,
      "FlipAngle": 52.0,
      "HighBit": 15,
      "ImageOrientationPatient": [0.99874819279568, -0.0435653519495, 0.02457859835075, 0.04902172482649, 0.95019295254377, -0.3077827536286],
      "ImagePositionPatient": [-874.86880804535, -784.54220057497, 208.95626338011],
      "ImageType": [
        "ORIGINAL",
        "PRIMARY",
        "P",
        "MB",
        "ND",
        "MOSAIC"
],
      "ImagedNucleus": "1H",
      "ImagingFrequency": 123.258872,
      "InPlanePhaseEncodingDirection": "COL",
      "LargestImagePixelValue": 4095,
      "MRAcquisitionType": "2D",
      "MagneticFieldStrength": 3.0,
      "Manufacturer": "SIEMENS",
      "ManufacturerModelName": "Prisma_fit",
      "Modality": "MR",
      "NumberOfAverages": 1.0,
      "NumberOfPhaseEncodingSteps": 104,
      "PercentPhaseFieldOfView": 100.0,
      "PercentSampling": 100.0,
      "PerformedProcedureStepStartTime": "152009.125000",
      "PhotometricInterpretation": "MONOCHROME2",
      "PixelBandwidth": 2290.0,
      "PixelRepresentation": 0,
      "PixelSpacing": [2.0, 2.0],
      "ProtocolName": "func_task-mario_run-02",
      "RepetitionTime": 1490.0,
      "RescaleIntercept": -4096.0,
      "RescaleSlope": 2.0,
      "RescaleType": "US",
      "Rows": 832,
      "SAR": 0.03868964297269,
      "SamplesPerPixel": 1,
      "ScanOptions": "FS",
      "ScanningSequence": "EP",
      "SequenceName": "epfid2d1_104",
      "SequenceVariant": [
        "SK",
        "SS"
],
      "SeriesDescription": "func_task-mario_run-02",
      "SeriesNumber": 17,
      "SeriesTime": "162335.383000",
      "SliceLocation": -34.663865076788,
      "SliceThickness": 2.0,
      "SmallestImagePixelValue": 0,
      "SoftwareVersions": "syngo MR E11",
      "SpacingBetweenSlices": 2.0000000303686,
      "SpecificCharacterSet": "ISO_IR 100",
      "StudyID": "1",
      "StudyTime": "152009.040000",
      "TransmitCoilName": "Body",
      "VariableFlipAngleFlag": "N",
      "WindowCenterWidthExplanation": "Algo1",
      "dBdt": 0.0},
    "slices": {}
  },
  "time": {
    "samples": {
      "AcquisitionNumber": [1, 2, 3, 4, 5, 6, 7, 8, 9, 10, 11, 12, 13, 14, 15, 16, 17, 18, 19, 20, 21, 22, 23, 24, 25, 26, 27, 28, 29, 30, 31, 32, 33, 34, 35, 36, 37, 38, 39, 40, 41, 42, 43, 44, 45, 46, 47, 48, 49, 50, 51, 52, 53, 54, 55, 56, 57, 58, 59, 60, 61, 62, 63, 64, 65, 66, 67, 68, 69, 70, 71, 72, 73, 74, 75, 76, 77, 78, 79, 80, 81, 82, 83, 84, 85, 86, 87, 88, 89, 90, 91, 92, 93, 94, 95, 96, 97, 98, 99, 100, 101, 102, 103, 104, 105, 106, 107, 108, 109, 110, 111, 112, 113, 114, 115, 116, 117, 118, 119, 120, 121, 122, 123, 124, 125, 126, 127, 128, 129, 130, 131, 132, 133, 134, 135, 136, 137, 138, 139, 140, 141, 142, 143, 144, 145, 146, 147, 148, 149, 150, 151, 152, 153, 154, 155, 156, 157, 158, 159, 160, 161, 162, 163, 164, 165, 166, 167, 168, 169, 170, 171, 172, 173, 174, 175, 176, 177, 178, 179, 180, 181, 182, 183, 184, 185, 186, 187, 188, 189, 190, 191, 192, 193, 194, 195, 196, 197, 198, 199, 200, 201, 202, 203, 204, 205, 206, 207, 208, 209, 210, 211, 212, 213, 214, 215, 216, 217, 218, 219, 220, 221, 222, 223, 224, 225, 226, 227, 228, 229, 230, 231, 232, 233, 234, 235, 236, 237, 238, 239, 240, 241, 242, 243, 244, 245, 246, 247, 248, 249, 250, 251, 252, 253, 254, 255, 256, 257, 258, 259, 260, 261, 262, 263, 264, 265, 266, 267, 268, 269, 270, 271, 272, 273, 274, 275, 276, 277, 278, 279, 280, 281, 282, 283, 284, 285, 286, 287, 288, 289, 290, 291, 292, 293, 294, 295, 296, 297, 298, 299, 300, 301, 302, 303, 304, 305, 306, 307, 308, 309, 310, 311, 312, 313, 314, 315, 316, 317, 318, 319, 320, 321, 322, 323, 324, 325, 326, 327, 328, 329, 330, 331, 332, 333, 334, 335, 336, 337, 338, 339, 340, 341, 342, 343, 344, 345, 346, 347, 348, 349, 350, 351, 352, 353, 354, 355, 356, 357, 358, 359, 360, 361, 362, 363, 364, 365, 366, 367, 368, 369, 370, 371, 372, 373, 374, 375, 376, 377, 378, 379, 380, 381, 382, 383, 384, 385, 386, 387, 388, 389, 390, 391, 392, 393, 394, 395, 396, 397, 398, 399, 400, 401, 402, 403, 404, 405, 406, 407, 408, 409, 410, 411, 412, 413, 414, 415, 416, 417, 418, 419, 420, 421],
      "AcquisitionTime": ["162219.665000", "162221.155000", "162222.645000", "162224.135000", "162225.625000", "162227.115000", "162228.605000", "162230.095000", "162231.585000", "162233.075000", "162234.565000", "162236.055000", "162237.545000", "162239.035000", "162240.525000", "162242.015000", "162243.505000", "162244.995000", "162246.485000", "162247.975000", "162249.465000", "162250.955000", "162252.445000", "162253.935000", "162255.425000", "162256.915000", "162258.405000", "162259.895000", "162301.385000", "162302.875000", "162304.365000", "162305.855000", "162307.345000", "162308.835000", "162310.325000", "162311.815000", "162313.305000", "162314.795000", "162316.285000", "162317.775000", "162319.265000", "162320.755000", "162322.245000", "162323.735000", "162325.225000", "162326.715000", "162328.205000", "162329.695000", "162331.185000", "162332.675000", "162334.165000", "162335.655000", "162337.145000", "162338.635000", "162340.125000", "162341.615000", "162343.105000", "162344.595000", "162346.085000", "162347.575000", "162349.065000", "162350.555000", "162352.045000", "162353.535000", "162355.025000", "162356.515000", "162358.005000", "162359.495000", "162400.985000", "162402.475000", "162403.965000", "162405.455000", "162406.945000", "162408.435000", "162409.925000", "162411.415000", "162412.905000", "162414.395000", "162415.885000", "162417.375000", "162418.865000", "162420.355000", "162421.845000", "162423.335000", "162424.825000", "162426.315000", "162427.805000", "162429.295000", "162430.785000", "162432.275000", "162433.765000", "162435.255000", "162436.745000", "162438.235000", "162439.725000", "162441.215000", "162442.705000", "162444.195000", "162445.685000", "162447.175000", "162448.665000", "162450.155000", "162451.645000", "162453.135000", "162454.625000", "162456.115000", "162457.605000", "162459.095000", "162500.585000", "162502.075000", "162503.565000", "162505.055000", "162506.545000", "162508.035000", "162509.525000", "162511.015000", "162512.505000", "162513.995000", "162515.485000", "162516.975000", "162518.465000", "162519.955000", "162521.445000", "162522.935000", "162524.425000", "162525.915000", "162527.405000", "162528.895000", "162530.385000", "162531.875000", "162533.365000", "162534.855000", "162536.345000", "162537.835000", "162539.325000", "162540.815000", "162542.305000", "162543.795000", "162545.285000", "162546.775000", "162548.265000", "162549.755000", "162551.245000", "162552.735000", "162554.225000", "162555.715000", "162557.205000", "162558.695000", "162600.185000", "162601.675000", "162603.165000", "162604.655000", "162606.145000", "162607.635000", "162609.125000", "162610.615000", "162612.105000", "162613.595000", "162615.085000", "162616.575000", "162618.065000", "162619.555000", "162621.045000", "162622.535000", "162624.025000", "162625.515000", "162627.005000", "162628.495000", "162629.985000", "162631.475000", "162632.965000", "162634.455000", "162635.945000", "162637.435000", "162638.925000", "162640.415000", "162641.905000", "162643.395000", "162644.885000", "162646.375000", "162647.865000", "162649.355000", "162650.845000", "162652.335000", "162653.825000", "162655.315000", "162656.805000", "162658.295000", "162659.785000", "162701.275000", "162702.765000", "162704.255000", "162705.745000", "162707.235000", "162708.725000", "162710.215000", "162711.705000", "162713.195000", "162714.685000", "162716.175000", "162717.665000", "162719.155000", "162720.645000", "162722.135000", "162723.625000", "162725.115000", "162726.605000", "162728.095000", "162729.585000", "162731.075000", "162732.565000", "162734.055000", "162735.545000", "162737.035000", "162738.525000", "162740.015000", "162741.505000", "162742.995000", "162744.485000", "162745.975000", "162747.465000", "162748.955000", "162750.445000", "162751.935000", "162753.425000", "162754.915000", "162756.405000", "162757.895000", "162759.385000", "162800.875000", "162802.365000", "162803.855000", "162805.345000", "162806.835000", "162808.325000", "162809.815000", "162811.305000", "162812.795000", "162814.285000", "162815.775000", "162817.265000", "162818.755000", "162820.245000", "162821.735000", "162823.225000", "162824.715000", "162826.205000", "162827.695000", "162829.185000", "162830.675000", "162832.165000", "162833.655000", "162835.145000", "162836.635000", "162838.125000", "162839.615000", "162841.105000", "162842.595000", "162844.085000", "162845.575000", "162847.065000", "162848.555000", "162850.045000", "162851.535000", "162853.025000", "162854.515000", "162856.005000", "162857.495000", "162858.985000", "162900.475000", "162901.965000", "162903.455000", "162904.945000", "162906.435000", "162907.925000", "162909.415000", "162910.905000", "162912.395000", "162913.885000", "162915.375000", "162916.865000", "162918.355000", "162919.845000", "162921.335000", "162922.825000", "162924.315000", "162925.805000", "162927.295000", "162928.785000", "162930.275000", "162931.765000", "162933.255000", "162934.745000", "162936.235000", "162937.725000", "162939.215000", "162940.705000", "162942.195000", "162943.685000", "162945.175000", "162946.665000", "162948.155000", "162949.645000", "162951.135000", "162952.625000", "162954.115000", "162955.605000", "162957.095000", "162958.585000", "163000.075000", "163001.565000", "163003.055000", "163004.545000", "163006.035000", "163007.525000", "163009.015000", "163010.505000", "163011.995000", "163013.485000", "163014.975000", "163016.465000", "163017.955000", "163019.445000", "163020.935000", "163022.425000", "163023.915000", "163025.405000", "163026.895000", "163028.385000", "163029.875000", "163031.365000", "163032.855000", "163034.345000", "163035.835000", "163037.325000", "163038.815000", "163040.305000", "163041.795000", "163043.285000", "163044.775000", "163046.265000", "163047.755000", "163049.245000", "163050.735000", "163052.225000", "163053.715000", "163055.205000", "163056.695000", "163058.185000", "163059.675000", "163101.165000", "163102.655000", "163104.145000", "163105.635000", "163107.125000", "163108.615000", "163110.105000", "163111.595000", "163113.085000", "163114.575000", "163116.065000", "163117.555000", "163119.045000", "163120.535000", "163122.025000", "163123.515000", "163125.005000", "163126.495000", "163127.985000", "163129.475000", "163130.965000", "163132.455000", "163133.945000", "163135.435000", "163136.925000", "163138.415000", "163139.905000", "163141.395000", "163142.885000", "163144.375000", "163145.865000", "163147.355000", "163148.845000", "163150.335000", "163151.825000", "163153.315000", "163154.805000", "163156.295000", "163157.785000", "163159.275000", "163200.765000", "163202.255000", "163203.745000", "163205.235000", "163206.725000", "163208.215000", "163209.705000", "163211.195000", "163212.685000", "163214.175000", "163215.665000", "163217.155000", "163218.645000", "163220.135000", "163221.625000", "163223.115000", "163224.605000", "163226.095000", "163227.585000", "163229.075000", "163230.565000", "163232.055000", "163233.545000", "163235.035000", "163236.525000", "163238.015000", "163239.505000", "163240.995000", "163242.485000", "163243.975000", "163245.465000"],
      "ContentTime": ["162335.385000", "162335.388000", "162335.391000", "162335.393000", "162335.396000", "162335.398000", "162335.400000", "162335.403000", "162335.405000", "162335.408000", "162335.410000", "162335.412000", "162335.415000", "162335.417000", "162335.420000", "162335.426000", "162335.429000", "162335.431000", "162335.434000", "162335.436000", "162335.438000", "162335.441000", "162355.326000", "162355.329000", "162355.331000", "162355.334000", "162355.336000", "162355.339000", "162355.341000", "162355.344000", "162355.346000", "162355.348000", "162355.351000", "162355.353000", "162355.356000", "162355.358000", "162355.361000", "162355.363000", "162355.365000", "162355.368000", "162355.370000", "162355.381000", "162415.359000", "162415.362000", "162415.364000", "162415.367000", "162415.369000", "162415.372000", "162415.374000", "162415.377000", "162415.379000", "162415.381000", "162415.384000", "162415.386000", "162415.389000", "162415.391000", "162415.394000", "162415.396000", "162415.398000", "162415.401000", "162415.403000", "162415.406000", "162435.325000", "162435.327000", "162435.330000", "162435.332000", "162435.334000", "162435.337000", "162435.339000", "162435.342000", "162435.344000", "162435.347000", "162435.349000", "162435.354000", "162435.357000", "162435.359000", "162435.361000", "162435.364000", "162435.366000", "162435.369000", "162435.371000", "162435.374000", "162435.376000", "162455.324000", "162455.327000", "162455.329000", "162455.332000", "162455.334000", "162455.337000", "162455.339000", "162455.341000", "162455.344000", "162455.347000", "162455.349000", "162455.352000", "162455.354000", "162455.357000", "162455.359000", "162455.362000", "162455.364000", "162455.367000", "162455.369000", "162455.372000", "162535.361000", "162535.364000", "162535.366000", "162535.369000", "162535.371000", "162535.374000", "162535.376000", "162535.379000", "162535.381000", "162535.384000", "162535.386000", "162535.389000", "162535.391000", "162535.394000", "162535.396000", "162535.398000", "162535.401000", "162535.403000", "162535.411000", "162535.414000", "162535.416000", "162535.419000", "162535.421000", "162535.424000", "162535.426000", "162535.429000", "162535.432000", "162615.374000", "162615.376000", "162615.379000", "162615.381000", "162615.384000", "162615.386000", "162615.389000", "162615.391000", "162615.394000", "162615.396000", "162615.399000", "162615.401000", "162615.403000", "162615.406000", "162615.408000", "162615.411000", "162615.413000", "162615.416000", "162615.418000", "162615.420000", "162615.423000", "162615.425000", "162615.428000", "162615.430000", "162615.433000", "162615.435000", "162615.438000", "162635.320000", "162635.323000", "162635.325000", "162635.328000", "162635.330000", "162635.333000", "162635.336000", "162635.338000", "162635.340000", "162635.343000", "162635.346000", "162635.348000", "162635.351000", "162635.353000", "162715.358000", "162715.361000", "162715.363000", "162715.366000", "162715.368000", "162715.371000", "162715.373000", "162715.376000", "162715.378000", "162715.380000", "162715.383000", "162715.385000", "162715.388000", "162715.390000", "162715.393000", "162715.395000", "162715.398000", "162715.400000", "162715.402000", "162715.405000", "162715.407000", "162715.410000", "162715.412000", "162715.415000", "162715.417000", "162715.420000", "162755.349000", "162755.351000", "162755.354000", "162755.356000", "162755.359000", "162755.362000", "162755.380000", "162755.383000", "162755.385000", "162755.388000", "162755.397000", "162755.399000", "162755.402000", "162755.404000", "162755.407000", "162755.409000", "162755.412000", "162755.414000", "162755.418000", "162755.421000", "162755.423000", "162755.426000", "162755.428000", "162755.431000", "162755.433000", "162755.436000", "162755.438000", "162835.374000", "162835.376000", "162835.379000", "162835.381000", "162835.384000", "162835.386000", "162835.389000", "162835.391000", "162835.393000", "162835.396000", "162835.398000", "162835.401000", "162835.403000", "162835.406000", "162835.408000", "162835.411000", "162835.413000", "162835.415000", "162835.418000", "162835.420000", "162835.423000", "162835.425000", "162835.428000", "162835.430000", "162835.433000", "162835.435000", "162835.438000", "162915.360000", "162915.363000", "162915.365000", "162915.367000", "162915.370000", "162915.372000", "162915.375000", "162915.377000", "162915.380000", "162915.382000", "162915.385000", "162915.387000", "162915.390000", "162915.392000", "162915.395000", "162915.397000", "162915.400000", "162915.402000", "162915.405000", "162915.407000", "162915.410000", "162915.412000", "162915.415000", "162915.417000", "162915.420000", "162915.422000", "162915.424000", "162955.374000", "162955.376000", "162955.379000", "162955.381000", "162955.384000", "162955.386000", "162955.389000", "162955.391000", "162955.394000", "162955.396000", "162955.399000", "162955.401000", "162955.404000", "162955.406000", "162955.408000", "162955.411000", "162955.413000", "162955.416000", "162955.418000", "162955.421000", "162955.423000", "162955.426000", "162955.428000", "162955.431000", "162955.433000", "162955.435000", "162955.438000", "163035.377000", "163035.379000", "163035.388000", "163035.391000", "163035.393000", "163035.396000", "163035.398000", "163035.401000", "163035.403000", "163035.406000", "163035.408000", "163035.411000", "163035.413000", "163035.416000", "163035.419000", "163035.421000", "163035.424000", "163035.426000", "163035.429000", "163035.432000", "163035.434000", "163035.437000", "163035.439000", "163035.442000", "163035.445000", "163035.447000", "163035.450000", "163115.374000", "163115.377000", "163115.380000", "163115.382000", "163115.384000", "163115.387000", "163115.390000", "163115.392000", "163115.395000", "163115.397000", "163115.400000", "163115.402000", "163115.405000", "163115.408000", "163115.410000", "163115.413000", "163115.415000", "163115.418000", "163115.420000", "163115.423000", "163115.425000", "163115.428000", "163115.430000", "163115.433000", "163115.435000", "163115.438000", "163115.440000", "163155.358000", "163155.361000", "163155.364000", "163155.366000", "163155.369000", "163155.371000", "163155.375000", "163155.379000", "163155.382000", "163155.385000", "163155.388000", "163155.392000", "163155.394000", "163155.397000", "163155.399000", "163155.402000", "163155.404000", "163155.407000", "163155.409000", "163155.412000", "163155.414000", "163155.416000", "163155.419000", "163155.421000", "163155.424000", "163155.426000", "163235.379000", "163235.382000", "163235.384000", "163235.387000", "163235.389000", "163235.392000", "163235.395000", "163235.397000", "163235.399000", "163235.402000", "163235.405000", "163235.407000", "163235.410000", "163235.412000", "163235.414000", "163235.417000", "163235.419000", "163235.422000", "163235.424000", "163235.427000", "163235.429000", "163235.432000", "163235.434000", "163235.437000", "163235.439000", "163235.442000", "163235.444000", "163247.745000", "163247.748000", "163247.751000", "163247.753000", "163247.756000", "163247.758000", "163247.761000", "163247.763000", "163247.766000"],
      "InstanceCreationTime": ["162335.385000", "162335.388000", "162335.391000", "162335.393000", "162335.396000", "162335.398000", "162335.400000", "162335.403000", "162335.405000", "162335.408000", "162335.410000", "162335.412000", "162335.415000", "162335.417000", "162335.420000", "162335.426000", "162335.429000", "162335.431000", "162335.434000", "162335.436000", "162335.438000", "162335.441000", "162355.326000", "162355.329000", "162355.331000", "162355.334000", "162355.336000", "162355.339000", "162355.341000", "162355.344000", "162355.346000", "162355.348000", "162355.351000", "162355.353000", "162355.356000", "162355.358000", "162355.361000", "162355.363000", "162355.365000", "162355.368000", "162355.370000", "162355.381000", "162415.359000", "162415.362000", "162415.364000", "162415.367000", "162415.369000", "162415.372000", "162415.374000", "162415.377000", "162415.379000", "162415.381000", "162415.384000", "162415.386000", "162415.389000", "162415.391000", "162415.394000", "162415.396000", "162415.398000", "162415.401000", "162415.403000", "162415.406000", "162435.325000", "162435.327000", "162435.330000", "162435.332000", "162435.334000", "162435.337000", "162435.339000", "162435.342000", "162435.344000", "162435.347000", "162435.349000", "162435.354000", "162435.357000", "162435.359000", "162435.361000", "162435.364000", "162435.366000", "162435.369000", "162435.371000", "162435.374000", "162435.376000", "162455.324000", "162455.327000", "162455.329000", "162455.332000", "162455.334000", "162455.337000", "162455.339000", "162455.341000", "162455.344000", "162455.347000", "162455.349000", "162455.352000", "162455.354000", "162455.357000", "162455.359000", "162455.362000", "162455.364000", "162455.367000", "162455.369000", "162455.372000", "162535.361000", "162535.364000", "162535.366000", "162535.369000", "162535.371000", "162535.374000", "162535.376000", "162535.379000", "162535.381000", "162535.384000", "162535.386000", "162535.389000", "162535.391000", "162535.394000", "162535.396000", "162535.398000", "162535.401000", "162535.403000", "162535.411000", "162535.414000", "162535.416000", "162535.419000", "162535.421000", "162535.424000", "162535.426000", "162535.429000", "162535.432000", "162615.374000", "162615.376000", "162615.379000", "162615.381000", "162615.384000", "162615.386000", "162615.389000", "162615.391000", "162615.394000", "162615.396000", "162615.399000", "162615.401000", "162615.403000", "162615.406000", "162615.408000", "162615.411000", "162615.413000", "162615.416000", "162615.418000", "162615.420000", "162615.423000", "162615.425000", "162615.428000", "162615.430000", "162615.433000", "162615.435000", "162615.438000", "162635.320000", "162635.323000", "162635.325000", "162635.328000", "162635.330000", "162635.333000", "162635.336000", "162635.338000", "162635.340000", "162635.343000", "162635.346000", "162635.348000", "162635.351000", "162635.353000", "162715.358000", "162715.361000", "162715.363000", "162715.366000", "162715.368000", "162715.371000", "162715.373000", "162715.376000", "162715.378000", "162715.380000", "162715.383000", "162715.385000", "162715.388000", "162715.390000", "162715.393000", "162715.395000", "162715.398000", "162715.400000", "162715.402000", "162715.405000", "162715.407000", "162715.410000", "162715.412000", "162715.415000", "162715.417000", "162715.420000", "162755.349000", "162755.351000", "162755.354000", "162755.356000", "162755.359000", "162755.362000", "162755.380000", "162755.383000", "162755.385000", "162755.388000", "162755.397000", "162755.399000", "162755.402000", "162755.404000", "162755.407000", "162755.409000", "162755.412000", "162755.414000", "162755.418000", "162755.421000", "162755.423000", "162755.426000", "162755.428000", "162755.431000", "162755.433000", "162755.436000", "162755.438000", "162835.374000", "162835.376000", "162835.379000", "162835.381000", "162835.384000", "162835.386000", "162835.389000", "162835.391000", "162835.393000", "162835.396000", "162835.398000", "162835.401000", "162835.403000", "162835.406000", "162835.408000", "162835.411000", "162835.413000", "162835.415000", "162835.418000", "162835.420000", "162835.423000", "162835.425000", "162835.428000", "162835.430000", "162835.433000", "162835.435000", "162835.438000", "162915.360000", "162915.363000", "162915.365000", "162915.367000", "162915.370000", "162915.372000", "162915.375000", "162915.377000", "162915.380000", "162915.382000", "162915.385000", "162915.387000", "162915.390000", "162915.392000", "162915.395000", "162915.397000", "162915.400000", "162915.402000", "162915.405000", "162915.407000", "162915.410000", "162915.412000", "162915.415000", "162915.417000", "162915.420000", "162915.422000", "162915.424000", "162955.374000", "162955.376000", "162955.379000", "162955.381000", "162955.384000", "162955.386000", "162955.389000", "162955.391000", "162955.394000", "162955.396000", "162955.399000", "162955.401000", "162955.404000", "162955.406000", "162955.408000", "162955.411000", "162955.413000", "162955.416000", "162955.418000", "162955.421000", "162955.423000", "162955.426000", "162955.428000", "162955.431000", "162955.433000", "162955.435000", "162955.438000", "163035.377000", "163035.379000", "163035.388000", "163035.391000", "163035.393000", "163035.396000", "163035.398000", "163035.401000", "163035.403000", "163035.406000", "163035.408000", "163035.411000", "163035.413000", "163035.416000", "163035.419000", "163035.421000", "163035.424000", "163035.426000", "163035.429000", "163035.432000", "163035.434000", "163035.437000", "163035.439000", "163035.442000", "163035.445000", "163035.447000", "163035.450000", "163115.374000", "163115.377000", "163115.380000", "163115.382000", "163115.384000", "163115.387000", "163115.390000", "163115.392000", "163115.395000", "163115.397000", "163115.400000", "163115.402000", "163115.405000", "163115.408000", "163115.410000", "163115.413000", "163115.415000", "163115.418000", "163115.420000", "163115.423000", "163115.425000", "163115.428000", "163115.430000", "163115.433000", "163115.435000", "163115.438000", "163115.440000", "163155.358000", "163155.361000", "163155.364000", "163155.366000", "163155.369000", "163155.371000", "163155.375000", "163155.379000", "163155.382000", "163155.385000", "163155.388000", "163155.392000", "163155.394000", "163155.397000", "163155.399000", "163155.402000", "163155.404000", "163155.407000", "163155.409000", "163155.412000", "163155.414000", "163155.416000", "163155.419000", "163155.421000", "163155.424000", "163155.426000", "163235.379000", "163235.382000", "163235.384000", "163235.387000", "163235.389000", "163235.392000", "163235.395000", "163235.397000", "163235.399000", "163235.402000", "163235.405000", "163235.407000", "163235.410000", "163235.412000", "163235.414000", "163235.417000", "163235.419000", "163235.422000", "163235.424000", "163235.427000", "163235.429000", "163235.432000", "163235.434000", "163235.437000", "163235.439000", "163235.442000", "163235.444000", "163247.745000", "163247.748000", "163247.751000", "163247.753000", "163247.756000", "163247.758000", "163247.761000", "163247.763000", "163247.766000"],
