{
  "AcquisitionMatrixPE": 104,
  "AcquisitionNumber": 1,
  "AcquisitionTime": "16:09:53.442500",
  "BandwidthPerPixelPhaseEncode": 17.17,
  "BaseResolution": 104,
  "BodyPartExamined": "BRAIN",
  "CoilString": "HC1-7;NC1_2",
  "ConsistencyInfo": "N4_VE11C_LATEST_20160120",
  "ConversionSoftware": "dcm2niix",
  "ConversionSoftwareVersion": "v1.0.20190902",
  "DerivedVendorReportedEchoSpacing": 0.000560011,
  "DeviceSerialNumber": "167006",
  "DwellTime": 2.1e-06,
  "EchoTime": 0.037,
  "EchoTrainLength": 104,
  "EffectiveEchoSpacing": 0.000560011,
  "FlipAngle": 52,
  "HeudiconvVersion": "0.10.0",
  "ImageComments": "Unaliased_MB4_PE3_LB",
  "ImageOrientationPatientDICOM": [0.998748, -0.0435654, 0.0245786, 0.0490217, 0.950193, -0.307783],
  "ImageType": [
    "ORIGINAL",
    "PRIMARY",
    "M",
    "MB",
    "ND",
    "MOSAIC"
],
  "ImagingFrequency": 123.259,
  "InPlanePhaseEncodingDirectionDICOM": "COL",
  "InstitutionAddress": "Chemin_Queen-Mary_4565_Montreal_District_CA_H3W_1W5",
  "InstitutionName": "IUGM",
  "InstitutionalDepartmentName": "Department",
  "MRAcquisitionType": "2D",
  "MagneticFieldStrength": 3,
  "Manufacturer": "Siemens",
  "ManufacturersModelName": "Prisma_fit",
  "Modality": "MR",
  "MultibandAccelerationFactor": 4,
  "PartialFourier": 1,
  "PatientPosition": "HFS",
  "PercentPhaseFOV": 100,
  "PhaseEncodingDirection": "j",
  "PhaseEncodingSteps": 104,
  "PhaseResolution": 1,
  "PixelBandwidth": 2290,
  "ProcedureStepDescription": "games_mario",
  "ProtocolName": "func_task-mario_run-01",
  "PulseSequenceDetails": "%CustomerSeq%_cmrr_mbep2d_bold",
  "ReceiveCoilActiveElements": "HC1-7;NC1,2",
  "ReceiveCoilName": "HeadNeck_64",
  "ReconMatrixPE": 104,
  "RepetitionTime": 1.49,
  "SAR": 0.0386896,
  "ScanOptions": "FS",
  "ScanningSequence": "EP",
  "SequenceName": "epfid2d1_104",
  "SequenceVariant": "SK_SS",
  "SeriesDescription": "func_task-mario_run-01",
  "SeriesNumber": 13,
  "ShimSetting": [634, -7259, -8814, 599, 27, -199, -73, 10],
  "SliceThickness": 2,
  "SliceTiming": [0, 0.7825, 0.0975, 0.8825, 0.195, 0.98, 0.2925, 1.0775, 0.3925, 1.175, 0.49, 1.2725, 0.5875, 1.3725, 0.685, 0, 0.7825, 0.0975, 0.8825, 0.195, 0.98, 0.2925, 1.0775, 0.3925, 1.175, 0.49, 1.2725, 0.5875, 1.3725, 0.685, 0, 0.7825, 0.0975, 0.8825, 0.195, 0.98, 0.2925, 1.0775, 0.3925, 1.175, 0.49, 1.2725, 0.5875, 1.3725, 0.685, 0, 0.7825, 0.0975, 0.8825, 0.195, 0.98, 0.2925, 1.0775, 0.3925, 1.175, 0.49, 1.2725, 0.5875, 1.3725, 0.685],
  "SoftwareVersions": "syngo_MR_E11",
  "SpacingBetweenSlices": 2,
  "StationName": "MRC35049",
  "TaskName": "mario",
  "TotalReadoutTime": 0.0576811,
  "TxRefAmp": 236.921,
  "WipMemBlock": "5255d295-bc9e-4c0f-a1d3-1c04f69e5434||Sequence: R016 ve11c/master r/e634e98; Dec 19 2017 11:00:25 by eja",
  "dcmmeta_affine": [
    [-1.9974963665008545, 0.09804344922304153, 0.019891494885087013, 101.99383544921875],
    [0.08713070303201675, 1.900385856628418, -0.6172047257423401, -71.22244262695312],
    [0.04915719851851463, 0.6155654788017273, 1.9022783041000366, -60.61960983276367],
    [0.0, 0.0, 0.0, 1.0]
],
  "dcmmeta_reorient_transform": [
    [0.0, -1.0, 0.0, 103.0],
    [1.0, 0.0, 0.0, 0.0],
    [0.0, 0.0, 1.0, 0.0],
    [0.0, 0.0, 0.0, 1.0]
],
  "dcmmeta_shape": [104, 104, 60, 436],
  "dcmmeta_slice_dim": 2,
  "dcmmeta_version": 0.6,
  "global": {
    "const": {
      "AcquisitionMatrix": [104, 0, 0, 104],
      "AngioFlag": "N",
      "BitsAllocated": 16,
      "BitsStored": 16,
      "BodyPartExamined": "BRAIN",
      "Columns": 832,
      "EchoNumbers": 1,
      "EchoTime": 37.0,
      "EchoTrainLength": 104,
      "FlipAngle": 52.0,
      "HighBit": 15,
      "ImageOrientationPatient": [0.99874819279568, -0.0435653519495, 0.02457859835075, 0.04902172482649, 0.95019295254377, -0.3077827536286],
      "ImagePositionPatient": [-874.86880804535, -784.54220057497, 208.95626338011],
      "ImageType": [
        "ORIGINAL",
        "PRIMARY",
        "M",
        "MB",
        "ND",
        "MOSAIC"
],
      "ImagedNucleus": "1H",
      "ImagingFrequency": 123.258865,
      "InPlanePhaseEncodingDirection": "COL",
      "MRAcquisitionType": "2D",
      "MagneticFieldStrength": 3.0,
      "Manufacturer": "SIEMENS",
      "ManufacturerModelName": "Prisma_fit",
      "Modality": "MR",
      "NumberOfAverages": 1.0,
      "NumberOfPhaseEncodingSteps": 104,
      "PercentPhaseFieldOfView": 100.0,
      "PercentSampling": 100.0,
      "PerformedProcedureStepStartTime": "152009.125000",
      "PhotometricInterpretation": "MONOCHROME2",
      "PixelBandwidth": 2290.0,
      "PixelRepresentation": 0,
      "PixelSpacing": [2.0, 2.0],
      "ProtocolName": "func_task-mario_run-01",
      "RepetitionTime": 1490.0,
      "Rows": 832,
      "SAR": 0.03868964297269,
      "SamplesPerPixel": 1,
      "ScanOptions": "FS",
      "ScanningSequence": "EP",
      "SequenceName": "epfid2d1_104",
      "SequenceVariant": [
        "SK",
        "SS"
],
      "SeriesDescription": "func_task-mario_run-01",
      "SeriesNumber": 13,
      "SeriesTime": "161124.618000",
      "SliceLocation": -34.663865076788,
      "SliceThickness": 2.0,
      "SmallestImagePixelValue": 0,
      "SoftwareVersions": "syngo MR E11",
      "SpacingBetweenSlices": 2.0000000303686,
      "SpecificCharacterSet": "ISO_IR 100",
      "StudyID": "1",
      "StudyTime": "152009.040000",
      "TransmitCoilName": "Body",
      "VariableFlipAngleFlag": "N",
      "WindowCenterWidthExplanation": "Algo1",
      "dBdt": 0.0},
    "slices": {}
  },
  "time": {
    "samples": {
      "AcquisitionNumber": [1, 2, 3, 4, 5, 6, 7, 8, 9, 10, 11, 12, 13, 14, 15, 16, 17, 18, 19, 20, 21, 22, 23, 24, 25, 26, 27, 28, 29, 30, 31, 32, 33, 34, 35, 36, 37, 38, 39, 40, 41, 42, 43, 44, 45, 46, 47, 48, 49, 50, 51, 52, 53, 54, 55, 56, 57, 58, 59, 60, 61, 62, 63, 64, 65, 66, 67, 68, 69, 70, 71, 72, 73, 74, 75, 76, 77, 78, 79, 80, 81, 82, 83, 84, 85, 86, 87, 88, 89, 90, 91, 92, 93, 94, 95, 96, 97, 98, 99, 100, 101, 102, 103, 104, 105, 106, 107, 108, 109, 110, 111, 112, 113, 114, 115, 116, 117, 118, 119, 120, 121, 122, 123, 124, 125, 126, 127, 128, 129, 130, 131, 132, 133, 134, 135, 136, 137, 138, 139, 140, 141, 142, 143, 144, 145, 146, 147, 148, 149, 150, 151, 152, 153, 154, 155, 156, 157, 158, 159, 160, 161, 162, 163, 164, 165, 166, 167, 168, 169, 170, 171, 172, 173, 174, 175, 176, 177, 178, 179, 180, 181, 182, 183, 184, 185, 186, 187, 188, 189, 190, 191, 192, 193, 194, 195, 196, 197, 198, 199, 200, 201, 202, 203, 204, 205, 206, 207, 208, 209, 210, 211, 212, 213, 214, 215, 216, 217, 218, 219, 220, 221, 222, 223, 224, 225, 226, 227, 228, 229, 230, 231, 232, 233, 234, 235, 236, 237, 238, 239, 240, 241, 242, 243, 244, 245, 246, 247, 248, 249, 250, 251, 252, 253, 254, 255, 256, 257, 258, 259, 260, 261, 262, 263, 264, 265, 266, 267, 268, 269, 270, 271, 272, 273, 274, 275, 276, 277, 278, 279, 280, 281, 282, 283, 284, 285, 286, 287, 288, 289, 290, 291, 292, 293, 294, 295, 296, 297, 298, 299, 300, 301, 302, 303, 304, 305, 306, 307, 308, 309, 310, 311, 312, 313, 314, 315, 316, 317, 318, 319, 320, 321, 322, 323, 324, 325, 326, 327, 328, 329, 330, 331, 332, 333, 334, 335, 336, 337, 338, 339, 340, 341, 342, 343, 344, 345, 346, 347, 348, 349, 350, 351, 352, 353, 354, 355, 356, 357, 358, 359, 360, 361, 362, 363, 364, 365, 366, 367, 368, 369, 370, 371, 372, 373, 374, 375, 376, 377, 378, 379, 380, 381, 382, 383, 384, 385, 386, 387, 388, 389, 390, 391, 392, 393, 394, 395, 396, 397, 398, 399, 400, 401, 402, 403, 404, 405, 406, 407, 408, 409, 410, 411, 412, 413, 414, 415, 416, 417, 418, 419, 420, 421, 422, 423, 424, 425, 426, 427, 428, 429, 430, 431, 432, 433, 434, 435, 436],
      "AcquisitionTime": ["160953.442500", "160954.932500", "160956.422500", "160957.912500", "160959.402500", "161000.892500", "161002.382500", "161003.872500", "161005.362500", "161006.852500", "161008.342500", "161009.832500", "161011.322500", "161012.812500", "161014.302500", "161015.792500", "161017.282500", "161018.772500", "161020.262500", "161021.752500", "161023.242500", "161024.732500", "161026.222500", "161027.712500", "161029.202500", "161030.692500", "161032.182500", "161033.672500", "161035.162500", "161036.652500", "161038.142500", "161039.632500", "161041.122500", "161042.612500", "161044.102500", "161045.592500", "161047.082500", "161048.572500", "161050.062500", "161051.552500", "161053.042500", "161054.532500", "161056.022500", "161057.512500", "161059.002500", "161100.492500", "161101.982500", "161103.472500", "161104.962500", "161106.452500", "161107.942500", "161109.432500", "161110.922500", "161112.412500", "161113.902500", "161115.392500", "161116.882500", "161118.372500", "161119.862500", "161121.352500", "161122.842500", "161124.332500", "161125.822500", "161127.312500", "161128.802500", "161130.292500", "161131.782500", "161133.272500", "161134.762500", "161136.252500", "161137.742500", "161139.232500", "161140.722500", "161142.212500", "161143.702500", "161145.192500", "161146.682500", "161148.172500", "161149.662500", "161151.152500", "161152.642500", "161154.132500", "161155.622500", "161157.112500", "161158.602500", "161200.092500", "161201.582500", "161203.072500", "161204.562500", "161206.052500", "161207.542500", "161209.032500", "161210.522500", "161212.012500", "161213.502500", "161214.992500", "161216.482500", "161217.972500", "161219.462500", "161220.952500", "161222.442500", "161223.932500", "161225.422500", "161226.912500", "161228.402500", "161229.892500", "161231.382500", "161232.872500", "161234.362500", "161235.852500", "161237.342500", "161238.832500", "161240.322500", "161241.812500", "161243.302500", "161244.792500", "161246.282500", "161247.772500", "161249.262500", "161250.752500", "161252.242500", "161253.732500", "161255.222500", "161256.712500", "161258.202500", "161259.692500", "161301.182500", "161302.672500", "161304.162500", "161305.652500", "161307.142500", "161308.632500", "161310.122500", "161311.612500", "161313.102500", "161314.592500", "161316.082500", "161317.572500", "161319.062500", "161320.552500", "161322.042500", "161323.532500", "161325.022500", "161326.512500", "161328.002500", "161329.492500", "161330.982500", "161332.472500", "161333.962500", "161335.452500", "161336.942500", "161338.432500", "161339.922500", "161341.412500", "161342.902500", "161344.392500", "161345.882500", "161347.372500", "161348.862500", "161350.352500", "161351.842500", "161353.332500", "161354.822500", "161356.312500", "161357.802500", "161359.292500", "161400.782500", "161402.272500", "161403.762500", "161405.252500", "161406.742500", "161408.232500", "161409.722500", "161411.212500", "161412.702500", "161414.192500", "161415.682500", "161417.172500", "161418.662500", "161420.152500", "161421.642500", "161423.132500", "161424.622500", "161426.112500", "161427.602500", "161429.092500", "161430.582500", "161432.072500", "161433.562500", "161435.052500", "161436.542500", "161438.032500", "161439.522500", "161441.012500", "161442.502500", "161443.992500", "161445.482500", "161446.972500", "161448.462500", "161449.952500", "161451.442500", "161452.932500", "161454.422500", "161455.912500", "161457.402500", "161458.892500", "161500.382500", "161501.872500", "161503.362500", "161504.852500", "161506.342500", "161507.832500", "161509.322500", "161510.812500", "161512.302500", "161513.792500", "161515.282500", "161516.772500", "161518.262500", "161519.752500", "161521.242500", "161522.732500", "161524.222500", "161525.712500", "161527.202500", "161528.692500", "161530.182500", "161531.672500", "161533.162500", "161534.652500", "161536.142500", "161537.632500", "161539.122500", "161540.612500", "161542.102500", "161543.592500", "161545.082500", "161546.572500", "161548.062500", "161549.552500", "161551.042500", "161552.532500", "161554.022500", "161555.512500", "161557.002500", "161558.492500", "161559.982500", "161601.472500", "161602.962500", "161604.452500", "161605.942500", "161607.432500", "161608.922500", "161610.412500", "161611.902500", "161613.392500", "161614.882500", "161616.372500", "161617.862500", "161619.352500", "161620.842500", "161622.332500", "161623.822500", "161625.312500", "161626.802500", "161628.292500", "161629.782500", "161631.272500", "161632.762500", "161634.252500", "161635.742500", "161637.232500", "161638.722500", "161640.212500", "161641.702500", "161643.192500", "161644.682500", "161646.172500", "161647.662500", "161649.152500", "161650.642500", "161652.132500", "161653.622500", "161655.112500", "161656.602500", "161658.092500", "161659.582500", "161701.072500", "161702.562500", "161704.052500", "161705.542500", "161707.032500", "161708.522500", "161710.012500", "161711.502500", "161712.992500", "161714.482500", "161715.972500", "161717.462500", "161718.952500", "161720.442500", "161721.932500", "161723.422500", "161724.912500", "161726.402500", "161727.892500", "161729.382500", "161730.872500", "161732.362500", "161733.852500", "161735.342500", "161736.832500", "161738.322500", "161739.812500", "161741.302500", "161742.792500", "161744.282500", "161745.772500", "161747.262500", "161748.752500", "161750.242500", "161751.732500", "161753.222500", "161754.712500", "161756.202500", "161757.692500", "161759.182500", "161800.672500", "161802.162500", "161803.652500", "161805.142500", "161806.632500", "161808.122500", "161809.612500", "161811.102500", "161812.592500", "161814.082500", "161815.572500", "161817.062500", "161818.552500", "161820.042500", "161821.532500", "161823.022500", "161824.512500", "161826.002500", "161827.492500", "161828.982500", "161830.472500", "161831.962500", "161833.452500", "161834.942500", "161836.432500", "161837.922500", "161839.412500", "161840.902500", "161842.392500", "161843.882500", "161845.372500", "161846.862500", "161848.352500", "161849.842500", "161851.332500", "161852.822500", "161854.312500", "161855.802500", "161857.292500", "161858.782500", "161900.272500", "161901.762500", "161903.252500", "161904.742500", "161906.232500", "161907.722500", "161909.212500", "161910.702500", "161912.192500", "161913.682500", "161915.172500", "161916.662500", "161918.152500", "161919.642500", "161921.132500", "161922.622500", "161924.112500", "161925.602500", "161927.092500", "161928.582500", "161930.072500", "161931.562500", "161933.052500", "161934.542500", "161936.032500", "161937.522500", "161939.012500", "161940.502500", "161941.992500", "161943.482500", "161944.972500", "161946.462500", "161947.952500", "161949.442500", "161950.932500", "161952.422500", "161953.912500", "161955.402500", "161956.892500", "161958.382500", "161959.872500", "162001.362500", "162002.852500", "162004.342500", "162005.832500", "162007.322500", "162008.812500", "162010.302500", "162011.792500", "162013.282500", "162014.772500", "162016.262500", "162017.752500", "162019.242500", "162020.732500", "162022.222500", "162023.712500", "162025.202500", "162026.692500", "162028.182500", "162029.672500", "162031.162500", "162032.652500", "162034.142500", "162035.632500", "162037.122500", "162038.612500", "162040.102500", "162041.592500"],
      "ContentTime": ["161124.622000", "161124.626000", "161124.629000", "161124.632000", "161124.636000", "161124.639000", "161124.642000", "161124.645000", "161124.649000", "161124.652000", "161124.655000", "161124.658000", "161124.662000", "161124.675000", "161124.679000", "161124.682000", "161124.685000", "161124.688000", "161124.691000", "161124.695000", "161124.698000", "161124.701000", "161124.705000", "161124.708000", "161124.711000", "161124.714000", "161124.717000", "161124.721000", "161124.724000", "161124.727000", "161124.730000", "161124.734000", "161124.737000", "161124.740000", "161124.743000", "161124.747000", "161124.750000", "161144.588000", "161144.592000", "161144.595000", "161144.598000", "161144.602000", "161144.605000", "161144.608000", "161144.611000", "161144.615000", "161144.618000", "161144.621000", "161144.625000", "161144.628000", "161144.631000", "161144.634000", "161144.638000", "161144.641000", "161144.644000", "161144.647000", "161144.651000", "161144.654000", "161204.588000", "161204.592000", "161204.595000", "161204.598000", "161204.601000", "161204.604000", "161204.608000", "161204.611000", "161204.614000", "161204.618000", "161204.621000", "161204.624000", "161204.627000", "161204.630000", "161204.634000", "161204.637000", "161204.640000", "161204.644000", "161204.647000", "161204.650000", "161224.588000", "161224.592000", "161224.595000", "161224.598000", "161224.602000", "161224.605000", "161224.608000", "161224.612000", "161224.615000", "161224.618000", "161224.621000", "161224.624000", "161224.628000", "161224.631000", "161224.634000", "161224.638000", "161224.641000", "161224.644000", "161224.647000", "161224.651000", "161304.587000", "161304.591000", "161304.595000", "161304.598000", "161304.601000", "161304.605000", "161304.608000", "161304.611000", "161304.614000", "161304.618000", "161304.621000", "161304.625000", "161304.628000", "161304.631000", "161304.635000", "161304.638000", "161304.641000", "161304.644000", "161304.648000", "161304.651000", "161304.654000", "161304.658000", "161304.661000", "161304.664000", "161304.667000", "161304.671000", "161304.674000", "161304.677000", "161304.680000", "161344.587000", "161344.591000", "161344.594000", "161344.598000", "161344.601000", "161344.604000", "161344.607000", "161344.610000", "161344.614000", "161344.617000", "161344.620000", "161344.623000", "161344.627000", "161344.630000", "161344.633000", "161344.636000", "161344.640000", "161344.643000", "161344.647000", "161344.650000", "161344.653000", "161344.656000", "161344.659000", "161344.663000", "161344.666000", "161344.669000", "161344.673000", "161424.588000", "161424.603000", "161424.606000", "161424.609000", "161424.612000", "161424.616000", "161424.619000", "161424.622000", "161424.626000", "161424.629000", "161424.632000", "161424.635000", "161424.638000", "161424.642000", "161424.645000", "161424.648000", "161424.652000", "161424.655000", "161424.658000", "161424.661000", "161424.665000", "161424.668000", "161424.671000", "161424.674000", "161424.678000", "161424.681000", "161424.684000", "161504.588000", "161504.592000", "161504.595000", "161504.598000", "161504.602000", "161504.605000", "161504.608000", "161504.611000", "161504.615000", "161504.618000", "161504.621000", "161504.624000", "161504.628000", "161504.631000", "161504.634000", "161504.637000", "161504.641000", "161504.644000", "161504.647000", "161504.650000", "161504.656000", "161504.659000", "161504.663000", "161504.666000", "161504.669000", "161504.672000", "161504.676000", "161544.587000", "161544.591000", "161544.595000", "161544.598000", "161544.601000", "161544.605000", "161544.608000", "161544.612000", "161544.615000", "161544.618000", "161544.621000", "161544.625000", "161544.628000", "161544.631000", "161544.634000", "161544.638000", "161544.641000", "161544.644000", "161544.647000", "161544.650000", "161544.654000", "161544.657000", "161544.660000", "161544.664000", "161544.667000", "161544.670000", "161624.588000", "161624.592000", "161624.595000", "161624.598000", "161624.602000", "161624.605000", "161624.608000", "161624.612000", "161624.615000", "161624.618000", "161624.621000", "161624.625000", "161624.628000", "161624.631000", "161624.634000", "161624.638000", "161624.641000", "161624.644000", "161624.647000", "161624.651000", "161624.654000", "161624.672000", "161624.675000", "161624.678000", "161624.682000", "161624.686000", "161624.689000", "161644.588000", "161644.592000", "161644.595000", "161644.599000", "161644.602000", "161644.605000", "161644.608000", "161644.612000", "161644.615000", "161644.618000", "161644.622000", "161644.625000", "161644.628000", "161644.631000", "161724.588000", "161724.592000", "161724.595000", "161724.599000", "161724.602000", "161724.605000", "161724.608000", "161724.612000", "161724.615000", "161724.618000", "161724.622000", "161724.625000", "161724.628000", "161724.632000", "161724.635000", "161724.638000", "161724.641000", "161724.645000", "161724.648000", "161724.651000", "161724.655000", "161724.658000", "161724.661000", "161724.664000", "161724.668000", "161724.671000", "161724.674000", "161804.587000", "161804.591000", "161804.594000", "161804.597000", "161804.601000", "161804.604000", "161804.607000", "161804.611000", "161804.614000", "161804.617000", "161804.620000", "161804.624000", "161804.627000", "161804.630000", "161804.634000", "161804.639000", "161804.642000", "161804.646000", "161804.649000", "161804.653000", "161804.657000", "161804.662000", "161804.666000", "161804.669000", "161804.672000", "161804.676000", "161844.588000", "161844.592000", "161844.595000", "161844.599000", "161844.602000", "161844.605000", "161844.608000", "161844.611000", "161844.615000", "161844.618000", "161844.621000", "161844.624000", "161844.628000", "161844.631000", "161844.634000", "161844.638000", "161844.641000", "161844.644000", "161844.667000", "161844.670000", "161844.673000", "161844.677000", "161844.680000", "161844.683000", "161844.686000", "161844.690000", "161844.693000", "161924.588000", "161924.592000", "161924.595000", "161924.599000", "161924.602000", "161924.605000", "161924.608000", "161924.611000", "161924.615000", "161924.618000", "161924.621000", "161924.625000", "161924.628000", "161924.631000", "161924.635000", "161924.638000", "161924.641000", "161924.644000", "161924.648000", "161924.651000", "161924.655000", "161924.659000", "161924.662000", "161924.665000", "161924.668000", "161924.672000", "161924.675000", "162004.587000", "162004.591000", "162004.594000", "162004.597000", "162004.601000", "162004.604000", "162004.607000", "162004.610000", "162004.614000", "162004.617000", "162004.620000", "162004.624000", "162004.627000", "162004.630000", "162004.633000", "162004.636000", "162004.640000", "162004.643000", "162004.646000", "162004.649000", "162004.653000", "162004.656000", "162004.659000", "162004.662000", "162004.666000", "162004.669000", "162004.672000", "162044.113000", "162044.116000", "162044.120000", "162044.123000", "162044.126000", "162044.130000", "162044.133000", "162044.136000", "162044.139000", "162044.143000", "162044.146000", "162044.149000", "162044.152000", "162044.156000", "162044.159000", "162044.162000", "162044.165000", "162044.169000", "162044.172000", "162044.175000", "162044.178000", "162044.182000", "162044.195000", "162044.198000", "162044.202000", "162044.205000", "162044.208000"],
      "InstanceCreationTime": ["161124.622000", "161124.626000", "161124.629000", "161124.632000", "161124.636000", "161124.639000", "161124.642000", "161124.645000", "161124.649000", "161124.652000", "161124.655000", "161124.658000", "161124.662000", "161124.675000", "161124.679000", "161124.682000", "161124.685000", "161124.688000", "161124.691000", "161124.695000", "161124.698000", "161124.701000", "161124.705000", "161124.708000", "161124.711000", "161124.714000", "161124.717000", "161124.721000", "161124.724000", "161124.727000", "161124.730000", "161124.734000", "161124.737000", "161124.740000", "161124.743000", "161124.747000", "161124.750000", "161144.588000", "161144.592000", "161144.595000", "161144.598000", "161144.602000", "161144.605000", "161144.608000", "161144.611000", "161144.615000", "161144.618000", "161144.621000", "161144.625000", "161144.628000", "161144.631000", "161144.634000", "161144.638000", "161144.641000", "161144.644000", "161144.647000", "161144.651000", "161144.654000", "161204.588000", "161204.592000", "161204.595000", "161204.598000", "161204.601000", "161204.604000", "161204.608000", "161204.611000", "161204.614000", "161204.618000", "161204.621000", "161204.624000", "161204.627000", "161204.630000", "161204.634000", "161204.637000", "161204.640000", "161204.644000", "161204.647000", "161204.650000", "161224.588000", "161224.592000", "161224.595000", "161224.598000", "161224.602000", "161224.605000", "161224.608000", "161224.612000", "161224.615000", "161224.618000", "161224.621000", "161224.624000", "161224.628000", "161224.631000", "161224.634000", "161224.638000", "161224.641000", "161224.644000", "161224.647000", "161224.651000", "161304.587000", "161304.591000", "161304.595000", "161304.598000", "161304.601000", "161304.605000", "161304.608000", "161304.611000", "161304.614000", "161304.618000", "161304.621000", "161304.625000", "161304.628000", "161304.631000", "161304.635000", "161304.638000", "161304.641000", "161304.644000", "161304.648000", "161304.651000", "161304.654000", "161304.658000", "161304.661000", "161304.664000", "161304.667000", "161304.671000", "161304.674000", "161304.677000", "161304.680000", "161344.587000", "161344.591000", "161344.594000", "161344.598000", "161344.601000", "161344.604000", "161344.607000", "161344.610000", "161344.614000", "161344.617000", "161344.620000", "161344.623000", "161344.627000", "161344.630000", "161344.633000", "161344.636000", "161344.640000", "161344.643000", "161344.647000", "161344.650000", "161344.653000", "161344.656000", "161344.659000", "161344.663000", "161344.666000", "161344.669000", "161344.673000", "161424.588000", "161424.603000", "161424.606000", "161424.609000", "161424.612000", "161424.616000", "161424.619000", "161424.622000", "161424.626000", "161424.629000", "161424.632000", "161424.635000", "161424.638000", "161424.642000", "161424.645000", "161424.648000", "161424.652000", "161424.655000", "161424.658000", "161424.661000", "161424.665000", "161424.668000", "161424.671000", "161424.674000", "161424.678000", "161424.681000", "161424.684000", "161504.588000", "161504.592000", "161504.595000", "161504.598000", "161504.602000", "161504.605000", "161504.608000", "161504.611000", "161504.615000", "161504.618000", "161504.621000", "161504.624000", "161504.628000", "161504.631000", "161504.634000", "161504.637000", "161504.641000", "161504.644000", "161504.647000", "161504.650000", "161504.656000", "161504.659000", "161504.663000", "161504.666000", "161504.669000", "161504.672000", "161504.676000", "161544.587000", "161544.591000", "161544.595000", "161544.598000", "161544.601000", "161544.605000", "161544.608000", "161544.612000", "161544.615000", "161544.618000", "161544.621000", "161544.625000", "161544.628000", "161544.631000", "161544.634000", "161544.638000", "161544.641000", "161544.644000", "161544.647000", "161544.650000", "161544.654000", "161544.657000", "161544.660000", "161544.664000", "161544.667000", "161544.670000", "161624.588000", "161624.592000", "161624.595000", "161624.598000", "161624.602000", "161624.605000", "161624.608000", "161624.612000", "161624.615000", "161624.618000", "161624.621000", "161624.625000", "161624.628000", "161624.631000", "161624.634000", "161624.638000", "161624.641000", "161624.644000", "161624.647000", "161624.651000", "161624.654000", "161624.672000", "161624.675000", "161624.678000", "161624.682000", "161624.686000", "161624.689000", "161644.588000", "161644.592000", "161644.595000", "161644.599000", "161644.602000", "161644.605000", "161644.608000", "161644.612000", "161644.615000", "161644.618000", "161644.622000", "161644.625000", "161644.628000", "161644.631000", "161724.588000", "161724.592000", "161724.595000", "161724.599000", "161724.602000", "161724.605000", "161724.608000", "161724.612000", "161724.615000", "161724.618000", "161724.622000", "161724.625000", "161724.628000", "161724.632000", "161724.635000", "161724.638000", "161724.641000", "161724.645000", "161724.648000", "161724.651000", "161724.655000", "161724.658000", "161724.661000", "161724.664000", "161724.668000", "161724.671000", "161724.674000", "161804.587000", "161804.591000", "161804.594000", "161804.597000", "161804.601000", "161804.604000", "161804.607000", "161804.611000", "161804.614000", "161804.617000", "161804.620000", "161804.624000", "161804.627000", "161804.630000", "161804.634000", "161804.639000", "161804.642000", "161804.646000", "161804.649000", "161804.653000", "161804.657000", "161804.662000", "161804.666000", "161804.669000", "161804.672000", "161804.676000", "161844.588000", "161844.592000", "161844.595000", "161844.599000", "161844.602000", "161844.605000", "161844.608000", "161844.611000", "161844.615000", "161844.618000", "161844.621000", "161844.624000", "161844.628000", "161844.631000", "161844.634000", "161844.638000", "161844.641000", "161844.644000", "161844.667000", "161844.670000", "161844.673000", "161844.677000", "161844.680000", "161844.683000", "161844.686000", "161844.690000", "161844.693000", "161924.588000", "161924.592000", "161924.595000", "161924.599000", "161924.602000", "161924.605000", "161924.608000", "161924.611000", "161924.615000", "161924.618000", "161924.621000", "161924.625000", "161924.628000", "161924.631000", "161924.635000", "161924.638000", "161924.641000", "161924.644000", "161924.648000", "161924.651000", "161924.655000", "161924.659000", "161924.662000", "161924.665000", "161924.668000", "161924.672000", "161924.675000", "162004.587000", "162004.591000", "162004.594000", "162004.597000", "162004.601000", "162004.604000", "162004.607000", "162004.610000", "162004.614000", "162004.617000", "162004.620000", "162004.624000", "162004.627000", "162004.630000", "162004.633000", "162004.636000", "162004.640000", "162004.643000", "162004.646000", "162004.649000", "162004.653000", "162004.656000", "162004.659000", "162004.662000", "162004.666000", "162004.669000", "162004.672000", "162044.113000", "162044.116000", "162044.120000", "162044.123000", "162044.126000", "162044.130000", "162044.133000", "162044.136000", "162044.139000", "162044.143000", "162044.146000", "162044.149000", "162044.152000", "162044.156000", "162044.159000", "162044.162000", "162044.165000", "162044.169000", "162044.172000", "162044.175000", "162044.178000", "162044.182000", "162044.195000", "162044.198000", "162044.202000", "162044.205000", "162044.208000"],
