{
  "AcquisitionMatrixPE": 104,
  "AcquisitionNumber": 1,
  "AcquisitionTime": "16:09:53.442500",
  "BandwidthPerPixelPhaseEncode": 17.17,
  "BaseResolution": 104,
  "BodyPartExamined": "BRAIN",
  "CoilString": "HC1-7;NC1_2",
  "ConsistencyInfo": "N4_VE11C_LATEST_20160120",
  "ConversionSoftware": "dcm2niix",
  "ConversionSoftwareVersion": "v1.0.20190902",
  "DerivedVendorReportedEchoSpacing": 0.000560011,
  "DeviceSerialNumber": "167006",
  "DwellTime": 2.1e-06,
  "EchoTime": 0.037,
  "EchoTrainLength": 104,
  "EffectiveEchoSpacing": 0.000560011,
  "FlipAngle": 52,
  "HeudiconvVersion": "0.10.0",
  "ImageComments": "Unaliased_MB4_PE3_LB",
  "ImageOrientationPatientDICOM": [0.998748, -0.0435654, 0.0245786, 0.0490217, 0.950193, -0.307783],
  "ImageType": [
    "ORIGINAL",
    "PRIMARY",
    "P",
    "MB",
    "ND",
    "MOSAIC"
],
  "ImagingFrequency": 123.259,
  "InPlanePhaseEncodingDirectionDICOM": "COL",
  "InstitutionAddress": "Chemin_Queen-Mary_4565_Montreal_District_CA_H3W_1W5",
  "InstitutionName": "IUGM",
  "InstitutionalDepartmentName": "Department",
  "MRAcquisitionType": "2D",
  "MagneticFieldStrength": 3,
  "Manufacturer": "Siemens",
  "ManufacturersModelName": "Prisma_fit",
  "Modality": "MR",
  "MultibandAccelerationFactor": 4,
  "PartialFourier": 1,
  "PatientPosition": "HFS",
  "PercentPhaseFOV": 100,
  "PhaseEncodingDirection": "j",
  "PhaseEncodingSteps": 104,
  "PhaseResolution": 1,
  "PixelBandwidth": 2290,
  "ProcedureStepDescription": "games_mario",
  "ProtocolName": "func_task-mario_run-01",
  "PulseSequenceDetails": "%CustomerSeq%_cmrr_mbep2d_bold",
  "ReceiveCoilActiveElements": "HC1-7;NC1,2",
  "ReceiveCoilName": "HeadNeck_64",
  "ReconMatrixPE": 104,
  "RepetitionTime": 1.49,
  "SAR": 0.0386896,
  "ScanOptions": "FS",
  "ScanningSequence": "EP",
  "SequenceName": "epfid2d1_104",
  "SequenceVariant": "SK_SS",
  "SeriesDescription": "func_task-mario_run-01",
  "SeriesNumber": 14,
  "ShimSetting": [634, -7259, -8814, 599, 27, -199, -73, 10],
  "SliceThickness": 2,
  "SliceTiming": [0, 0.7825, 0.0975, 0.8825, 0.195, 0.98, 0.2925, 1.0775, 0.3925, 1.175, 0.49, 1.2725, 0.5875, 1.3725, 0.685, 0, 0.7825, 0.0975, 0.8825, 0.195, 0.98, 0.2925, 1.0775, 0.3925, 1.175, 0.49, 1.2725, 0.5875, 1.3725, 0.685, 0, 0.7825, 0.0975, 0.8825, 0.195, 0.98, 0.2925, 1.0775, 0.3925, 1.175, 0.49, 1.2725, 0.5875, 1.3725, 0.685, 0, 0.7825, 0.0975, 0.8825, 0.195, 0.98, 0.2925, 1.0775, 0.3925, 1.175, 0.49, 1.2725, 0.5875, 1.3725, 0.685],
  "SoftwareVersions": "syngo_MR_E11",
  "SpacingBetweenSlices": 2,
  "StationName": "MRC35049",
  "TaskName": "mario",
  "TotalReadoutTime": 0.0576811,
  "TxRefAmp": 236.921,
  "WipMemBlock": "5255d295-bc9e-4c0f-a1d3-1c04f69e5434||Sequence: R016 ve11c/master r/e634e98; Dec 19 2017 11:00:25 by eja",
  "dcmmeta_affine": [
    [-1.9974963665008545, 0.09804344922304153, 0.019891494885087013, 101.99383544921875],
    [0.08713070303201675, 1.900385856628418, -0.6172047257423401, -71.22244262695312],
    [0.04915719851851463, 0.6155654788017273, 1.9022783041000366, -60.61960983276367],
    [0.0, 0.0, 0.0, 1.0]
],
  "dcmmeta_reorient_transform": [
    [0.0, -1.0, 0.0, 103.0],
    [1.0, 0.0, 0.0, 0.0],
    [0.0, 0.0, 1.0, 0.0],
    [0.0, 0.0, 0.0, 1.0]
],
  "dcmmeta_shape": [104, 104, 60, 436],
  "dcmmeta_slice_dim": 2,
  "dcmmeta_version": 0.6,
  "global": {
    "const": {
      "AcquisitionMatrix": [104, 0, 0, 104],
      "AngioFlag": "N",
      "BitsAllocated": 16,
      "BitsStored": 16,
      "BodyPartExamined": "BRAIN",
      "Columns": 832,
      "EchoNumbers": 1,
      "EchoTime": 37.0,
      "EchoTrainLength": 104,
      "FlipAngle": 52.0,
      "HighBit": 15,
      "ImageOrientationPatient": [0.99874819279568, -0.0435653519495, 0.02457859835075, 0.04902172482649, 0.95019295254377, -0.3077827536286],
      "ImagePositionPatient": [-874.86880804535, -784.54220057497, 208.95626338011],
      "ImageType": [
        "ORIGINAL",
        "PRIMARY",
        "P",
        "MB",
        "ND",
        "MOSAIC"
],
      "ImagedNucleus": "1H",
      "ImagingFrequency": 123.258865,
      "InPlanePhaseEncodingDirection": "COL",
      "LargestImagePixelValue": 4095,
      "MRAcquisitionType": "2D",
      "MagneticFieldStrength": 3.0,
      "Manufacturer": "SIEMENS",
      "ManufacturerModelName": "Prisma_fit",
      "Modality": "MR",
      "NumberOfAverages": 1.0,
      "NumberOfPhaseEncodingSteps": 104,
      "PercentPhaseFieldOfView": 100.0,
      "PercentSampling": 100.0,
      "PerformedProcedureStepStartTime": "152009.125000",
      "PhotometricInterpretation": "MONOCHROME2",
      "PixelBandwidth": 2290.0,
      "PixelRepresentation": 0,
      "PixelSpacing": [2.0, 2.0],
      "ProtocolName": "func_task-mario_run-01",
      "RepetitionTime": 1490.0,
      "RescaleIntercept": -4096.0,
      "RescaleSlope": 2.0,
      "RescaleType": "US",
      "Rows": 832,
      "SAR": 0.03868964297269,
      "SamplesPerPixel": 1,
      "ScanOptions": "FS",
      "ScanningSequence": "EP",
      "SequenceName": "epfid2d1_104",
      "SequenceVariant": [
        "SK",
        "SS"
],
      "SeriesDescription": "func_task-mario_run-01",
      "SeriesNumber": 14,
      "SeriesTime": "161125.279000",
      "SliceLocation": -34.663865076788,
      "SliceThickness": 2.0,
      "SmallestImagePixelValue": 0,
      "SoftwareVersions": "syngo MR E11",
      "SpacingBetweenSlices": 2.0000000303686,
      "SpecificCharacterSet": "ISO_IR 100",
      "StudyID": "1",
      "StudyTime": "152009.040000",
      "TransmitCoilName": "Body",
      "VariableFlipAngleFlag": "N",
      "WindowCenterWidthExplanation": "Algo1",
      "dBdt": 0.0},
    "slices": {}
  },
  "time": {
    "samples": {
      "AcquisitionNumber": [1, 2, 3, 4, 5, 6, 7, 8, 9, 10, 11, 12, 13, 14, 15, 16, 17, 18, 19, 20, 21, 22, 23, 24, 25, 26, 27, 28, 29, 30, 31, 32, 33, 34, 35, 36, 37, 38, 39, 40, 41, 42, 43, 44, 45, 46, 47, 48, 49, 50, 51, 52, 53, 54, 55, 56, 57, 58, 59, 60, 61, 62, 63, 64, 65, 66, 67, 68, 69, 70, 71, 72, 73, 74, 75, 76, 77, 78, 79, 80, 81, 82, 83, 84, 85, 86, 87, 88, 89, 90, 91, 92, 93, 94, 95, 96, 97, 98, 99, 100, 101, 102, 103, 104, 105, 106, 107, 108, 109, 110, 111, 112, 113, 114, 115, 116, 117, 118, 119, 120, 121, 122, 123, 124, 125, 126, 127, 128, 129, 130, 131, 132, 133, 134, 135, 136, 137, 138, 139, 140, 141, 142, 143, 144, 145, 146, 147, 148, 149, 150, 151, 152, 153, 154, 155, 156, 157, 158, 159, 160, 161, 162, 163, 164, 165, 166, 167, 168, 169, 170, 171, 172, 173, 174, 175, 176, 177, 178, 179, 180, 181, 182, 183, 184, 185, 186, 187, 188, 189, 190, 191, 192, 193, 194, 195, 196, 197, 198, 199, 200, 201, 202, 203, 204, 205, 206, 207, 208, 209, 210, 211, 212, 213, 214, 215, 216, 217, 218, 219, 220, 221, 222, 223, 224, 225, 226, 227, 228, 229, 230, 231, 232, 233, 234, 235, 236, 237, 238, 239, 240, 241, 242, 243, 244, 245, 246, 247, 248, 249, 250, 251, 252, 253, 254, 255, 256, 257, 258, 259, 260, 261, 262, 263, 264, 265, 266, 267, 268, 269, 270, 271, 272, 273, 274, 275, 276, 277, 278, 279, 280, 281, 282, 283, 284, 285, 286, 287, 288, 289, 290, 291, 292, 293, 294, 295, 296, 297, 298, 299, 300, 301, 302, 303, 304, 305, 306, 307, 308, 309, 310, 311, 312, 313, 314, 315, 316, 317, 318, 319, 320, 321, 322, 323, 324, 325, 326, 327, 328, 329, 330, 331, 332, 333, 334, 335, 336, 337, 338, 339, 340, 341, 342, 343, 344, 345, 346, 347, 348, 349, 350, 351, 352, 353, 354, 355, 356, 357, 358, 359, 360, 361, 362, 363, 364, 365, 366, 367, 368, 369, 370, 371, 372, 373, 374, 375, 376, 377, 378, 379, 380, 381, 382, 383, 384, 385, 386, 387, 388, 389, 390, 391, 392, 393, 394, 395, 396, 397, 398, 399, 400, 401, 402, 403, 404, 405, 406, 407, 408, 409, 410, 411, 412, 413, 414, 415, 416, 417, 418, 419, 420, 421, 422, 423, 424, 425, 426, 427, 428, 429, 430, 431, 432, 433, 434, 435, 436],
      "AcquisitionTime": ["160953.442500", "160954.932500", "160956.422500", "160957.912500", "160959.402500", "161000.892500", "161002.382500", "161003.872500", "161005.362500", "161006.852500", "161008.342500", "161009.832500", "161011.322500", "161012.812500", "161014.302500", "161015.792500", "161017.282500", "161018.772500", "161020.262500", "161021.752500", "161023.242500", "161024.732500", "161026.222500", "161027.712500", "161029.202500", "161030.692500", "161032.182500", "161033.672500", "161035.162500", "161036.652500", "161038.142500", "161039.632500", "161041.122500", "161042.612500", "161044.102500", "161045.592500", "161047.082500", "161048.572500", "161050.062500", "161051.552500", "161053.042500", "161054.532500", "161056.022500", "161057.512500", "161059.002500", "161100.492500", "161101.982500", "161103.472500", "161104.962500", "161106.452500", "161107.942500", "161109.432500", "161110.922500", "161112.412500", "161113.902500", "161115.392500", "161116.882500", "161118.372500", "161119.862500", "161121.352500", "161122.842500", "161124.332500", "161125.822500", "161127.312500", "161128.802500", "161130.292500", "161131.782500", "161133.272500", "161134.762500", "161136.252500", "161137.742500", "161139.232500", "161140.722500", "161142.212500", "161143.702500", "161145.192500", "161146.682500", "161148.172500", "161149.662500", "161151.152500", "161152.642500", "161154.132500", "161155.622500", "161157.112500", "161158.602500", "161200.092500", "161201.582500", "161203.072500", "161204.562500", "161206.052500", "161207.542500", "161209.032500", "161210.522500", "161212.012500", "161213.502500", "161214.992500", "161216.482500", "161217.972500", "161219.462500", "161220.952500", "161222.442500", "161223.932500", "161225.422500", "161226.912500", "161228.402500", "161229.892500", "161231.382500", "161232.872500", "161234.362500", "161235.852500", "161237.342500", "161238.832500", "161240.322500", "161241.812500", "161243.302500", "161244.792500", "161246.282500", "161247.772500", "161249.262500", "161250.752500", "161252.242500", "161253.732500", "161255.222500", "161256.712500", "161258.202500", "161259.692500", "161301.182500", "161302.672500", "161304.162500", "161305.652500", "161307.142500", "161308.632500", "161310.122500", "161311.612500", "161313.102500", "161314.592500", "161316.082500", "161317.572500", "161319.062500", "161320.552500", "161322.042500", "161323.532500", "161325.022500", "161326.512500", "161328.002500", "161329.492500", "161330.982500", "161332.472500", "161333.962500", "161335.452500", "161336.942500", "161338.432500", "161339.922500", "161341.412500", "161342.902500", "161344.392500", "161345.882500", "161347.372500", "161348.862500", "161350.352500", "161351.842500", "161353.332500", "161354.822500", "161356.312500", "161357.802500", "161359.292500", "161400.782500", "161402.272500", "161403.762500", "161405.252500", "161406.742500", "161408.232500", "161409.722500", "161411.212500", "161412.702500", "161414.192500", "161415.682500", "161417.172500", "161418.662500", "161420.152500", "161421.642500", "161423.132500", "161424.622500", "161426.112500", "161427.602500", "161429.092500", "161430.582500", "161432.072500", "161433.562500", "161435.052500", "161436.542500", "161438.032500", "161439.522500", "161441.012500", "161442.502500", "161443.992500", "161445.482500", "161446.972500", "161448.462500", "161449.952500", "161451.442500", "161452.932500", "161454.422500", "161455.912500", "161457.402500", "161458.892500", "161500.382500", "161501.872500", "161503.362500", "161504.852500", "161506.342500", "161507.832500", "161509.322500", "161510.812500", "161512.302500", "161513.792500", "161515.282500", "161516.772500", "161518.262500", "161519.752500", "161521.242500", "161522.732500", "161524.222500", "161525.712500", "161527.202500", "161528.692500", "161530.182500", "161531.672500", "161533.162500", "161534.652500", "161536.142500", "161537.632500", "161539.122500", "161540.612500", "161542.102500", "161543.592500", "161545.082500", "161546.572500", "161548.062500", "161549.552500", "161551.042500", "161552.532500", "161554.022500", "161555.512500", "161557.002500", "161558.492500", "161559.982500", "161601.472500", "161602.962500", "161604.452500", "161605.942500", "161607.432500", "161608.922500", "161610.412500", "161611.902500", "161613.392500", "161614.882500", "161616.372500", "161617.862500", "161619.352500", "161620.842500", "161622.332500", "161623.822500", "161625.312500", "161626.802500", "161628.292500", "161629.782500", "161631.272500", "161632.762500", "161634.252500", "161635.742500", "161637.232500", "161638.722500", "161640.212500", "161641.702500", "161643.192500", "161644.682500", "161646.172500", "161647.662500", "161649.152500", "161650.642500", "161652.132500", "161653.622500", "161655.112500", "161656.602500", "161658.092500", "161659.582500", "161701.072500", "161702.562500", "161704.052500", "161705.542500", "161707.032500", "161708.522500", "161710.012500", "161711.502500", "161712.992500", "161714.482500", "161715.972500", "161717.462500", "161718.952500", "161720.442500", "161721.932500", "161723.422500", "161724.912500", "161726.402500", "161727.892500", "161729.382500", "161730.872500", "161732.362500", "161733.852500", "161735.342500", "161736.832500", "161738.322500", "161739.812500", "161741.302500", "161742.792500", "161744.282500", "161745.772500", "161747.262500", "161748.752500", "161750.242500", "161751.732500", "161753.222500", "161754.712500", "161756.202500", "161757.692500", "161759.182500", "161800.672500", "161802.162500", "161803.652500", "161805.142500", "161806.632500", "161808.122500", "161809.612500", "161811.102500", "161812.592500", "161814.082500", "161815.572500", "161817.062500", "161818.552500", "161820.042500", "161821.532500", "161823.022500", "161824.512500", "161826.002500", "161827.492500", "161828.982500", "161830.472500", "161831.962500", "161833.452500", "161834.942500", "161836.432500", "161837.922500", "161839.412500", "161840.902500", "161842.392500", "161843.882500", "161845.372500", "161846.862500", "161848.352500", "161849.842500", "161851.332500", "161852.822500", "161854.312500", "161855.802500", "161857.292500", "161858.782500", "161900.272500", "161901.762500", "161903.252500", "161904.742500", "161906.232500", "161907.722500", "161909.212500", "161910.702500", "161912.192500", "161913.682500", "161915.172500", "161916.662500", "161918.152500", "161919.642500", "161921.132500", "161922.622500", "161924.112500", "161925.602500", "161927.092500", "161928.582500", "161930.072500", "161931.562500", "161933.052500", "161934.542500", "161936.032500", "161937.522500", "161939.012500", "161940.502500", "161941.992500", "161943.482500", "161944.972500", "161946.462500", "161947.952500", "161949.442500", "161950.932500", "161952.422500", "161953.912500", "161955.402500", "161956.892500", "161958.382500", "161959.872500", "162001.362500", "162002.852500", "162004.342500", "162005.832500", "162007.322500", "162008.812500", "162010.302500", "162011.792500", "162013.282500", "162014.772500", "162016.262500", "162017.752500", "162019.242500", "162020.732500", "162022.222500", "162023.712500", "162025.202500", "162026.692500", "162028.182500", "162029.672500", "162031.162500", "162032.652500", "162034.142500", "162035.632500", "162037.122500", "162038.612500", "162040.102500", "162041.592500"],
      "ContentTime": ["161125.281000", "161125.284000", "161125.287000", "161125.289000", "161125.291000", "161125.294000", "161125.303000", "161125.305000", "161125.308000", "161125.310000", "161125.312000", "161125.315000", "161125.317000", "161125.320000", "161125.322000", "161125.325000", "161125.327000", "161125.329000", "161125.332000", "161125.334000", "161125.337000", "161125.339000", "161125.342000", "161125.344000", "161125.346000", "161125.349000", "161125.351000", "161125.354000", "161125.356000", "161125.359000", "161125.361000", "161125.364000", "161125.366000", "161125.369000", "161125.371000", "161125.374000", "161125.376000", "161144.685000", "161144.687000", "161144.690000", "161144.693000", "161144.695000", "161144.697000", "161144.700000", "161144.702000", "161144.705000", "161144.707000", "161144.710000", "161144.712000", "161144.716000", "161144.718000", "161144.721000", "161144.723000", "161144.754000", "161144.756000", "161144.759000", "161144.761000", "161144.764000", "161204.695000", "161204.698000", "161204.700000", "161204.703000", "161204.705000", "161204.708000", "161204.710000", "161204.713000", "161204.715000", "161204.718000", "161204.720000", "161204.723000", "161204.725000", "161204.728000", "161204.730000", "161204.732000", "161204.735000", "161204.737000", "161204.740000", "161204.742000", "161224.694000", "161224.697000", "161224.699000", "161224.702000", "161224.704000", "161224.707000", "161224.709000", "161224.712000", "161224.714000", "161224.717000", "161224.719000", "161224.722000", "161224.724000", "161224.727000", "161224.729000", "161224.732000", "161224.734000", "161224.737000", "161224.739000", "161224.741000", "161304.742000", "161304.745000", "161304.748000", "161304.750000", "161304.753000", "161304.755000", "161304.758000", "161304.760000", "161304.763000", "161304.765000", "161304.768000", "161304.770000", "161304.773000", "161304.775000", "161304.778000", "161304.780000", "161304.783000", "161304.785000", "161304.788000", "161304.790000", "161304.793000", "161304.795000", "161304.798000", "161304.800000", "161304.803000", "161304.805000", "161304.808000", "161304.810000", "161304.813000", "161344.721000", "161344.724000", "161344.726000", "161344.729000", "161344.731000", "161344.734000", "161344.736000", "161344.739000", "161344.741000", "161344.744000", "161344.746000", "161344.749000", "161344.751000", "161344.754000", "161344.756000", "161344.759000", "161344.761000", "161344.764000", "161344.766000", "161344.769000", "161344.771000", "161344.774000", "161344.776000", "161344.803000", "161344.806000", "161344.808000", "161344.811000", "161424.724000", "161424.726000", "161424.729000", "161424.731000", "161424.734000", "161424.736000", "161424.739000", "161424.741000", "161424.744000", "161424.746000", "161424.749000", "161424.751000", "161424.753000", "161424.756000", "161424.758000", "161424.761000", "161424.763000", "161424.766000", "161424.768000", "161424.796000", "161424.799000", "161424.801000", "161424.804000", "161424.806000", "161424.808000", "161424.811000", "161424.813000", "161504.720000", "161504.723000", "161504.725000", "161504.728000", "161504.730000", "161504.733000", "161504.735000", "161504.738000", "161504.740000", "161504.743000", "161504.745000", "161504.748000", "161504.750000", "161504.753000", "161504.755000", "161504.757000", "161504.760000", "161504.762000", "161504.765000", "161504.767000", "161504.803000", "161504.806000", "161504.808000", "161504.811000", "161504.813000", "161504.815000", "161504.818000", "161544.722000", "161544.724000", "161544.727000", "161544.729000", "161544.732000", "161544.734000", "161544.737000", "161544.744000", "161544.746000", "161544.749000", "161544.751000", "161544.754000", "161544.756000", "161544.759000", "161544.761000", "161544.764000", "161544.767000", "161544.827000", "161544.830000", "161544.833000", "161544.835000", "161544.837000", "161544.840000", "161544.842000", "161544.845000", "161544.847000", "161624.737000", "161624.739000", "161624.742000", "161624.744000", "161624.747000", "161624.749000", "161624.752000", "161624.754000", "161624.757000", "161624.759000", "161624.762000", "161624.764000", "161624.767000", "161624.769000", "161624.772000", "161624.774000", "161624.777000", "161624.779000", "161624.782000", "161624.784000", "161624.787000", "161624.789000", "161624.792000", "161624.794000", "161624.797000", "161624.799000", "161624.802000", "161644.666000", "161644.669000", "161644.671000", "161644.674000", "161644.676000", "161644.679000", "161644.681000", "161644.684000", "161644.686000", "161644.689000", "161644.691000", "161644.694000", "161644.696000", "161644.698000", "161724.731000", "161724.734000", "161724.736000", "161724.739000", "161724.742000", "161724.744000", "161724.747000", "161724.749000", "161724.752000", "161724.754000", "161724.757000", "161724.759000", "161724.762000", "161724.764000", "161724.767000", "161724.845000", "161724.847000", "161724.850000", "161724.852000", "161724.855000", "161724.857000", "161724.860000", "161724.862000", "161724.865000", "161724.867000", "161724.869000", "161724.872000", "161804.733000", "161804.736000", "161804.739000", "161804.741000", "161804.744000", "161804.746000", "161804.748000", "161804.751000", "161804.753000", "161804.756000", "161804.758000", "161804.761000", "161804.763000", "161804.766000", "161804.805000", "161804.808000", "161804.810000", "161804.813000", "161804.815000", "161804.818000", "161804.820000", "161804.823000", "161804.825000", "161804.828000", "161804.830000", "161804.832000", "161844.743000", "161844.746000", "161844.748000", "161844.751000", "161844.753000", "161844.756000", "161844.758000", "161844.761000", "161844.763000", "161844.766000", "161844.804000", "161844.806000", "161844.809000", "161844.811000", "161844.814000", "161844.816000", "161844.819000", "161844.821000", "161844.824000", "161844.826000", "161844.829000", "161844.831000", "161844.834000", "161844.837000", "161844.839000", "161844.841000", "161844.844000", "161924.728000", "161924.730000", "161924.733000", "161924.735000", "161924.738000", "161924.740000", "161924.743000", "161924.745000", "161924.748000", "161924.750000", "161924.753000", "161924.755000", "161924.758000", "161924.760000", "161924.763000", "161924.765000", "161924.768000", "161924.770000", "161924.773000", "161924.775000", "161924.778000", "161924.780000", "161924.783000", "161924.785000", "161924.788000", "161924.790000", "161924.792000", "162004.730000", "162004.733000", "162004.735000", "162004.738000", "162004.740000", "162004.743000", "162004.745000", "162004.748000", "162004.750000", "162004.753000", "162004.755000", "162004.757000", "162004.760000", "162004.763000", "162004.765000", "162004.768000", "162004.812000", "162004.814000", "162004.817000", "162004.819000", "162004.822000", "162004.824000", "162004.826000", "162004.829000", "162004.831000", "162004.834000", "162004.836000", "162044.254000", "162044.256000", "162044.259000", "162044.261000", "162044.264000", "162044.266000", "162044.269000", "162044.271000", "162044.274000", "162044.276000", "162044.279000", "162044.281000", "162044.284000", "162044.286000", "162044.289000", "162044.291000", "162044.294000", "162044.296000", "162044.299000", "162044.301000", "162044.304000", "162044.314000", "162044.316000", "162044.319000", "162044.321000", "162044.324000", "162044.326000"],
