{
  "AcquisitionMatrixPE": 104,
  "AcquisitionNumber": 1,
  "AcquisitionTime": "16:50:39.702500",
  "BandwidthPerPixelPhaseEncode": 17.17,
  "BaseResolution": 104,
  "BodyPartExamined": "BRAIN",
  "CoilString": "HC1-7;NC1_2",
  "ConsistencyInfo": "N4_VE11C_LATEST_20160120",
  "ConversionSoftware": "dcm2niix",
  "ConversionSoftwareVersion": "v1.0.20190902",
  "DerivedVendorReportedEchoSpacing": 0.000560011,
  "DeviceSerialNumber": "167006",
  "DwellTime": 2.1e-06,
  "EchoTime": 0.037,
  "EchoTrainLength": 104,
  "EffectiveEchoSpacing": 0.000560011,
  "FlipAngle": 52,
  "HeudiconvVersion": "0.10.0",
  "ImageComments": "Unaliased_MB4_PE3_LB",
  "ImageOrientationPatientDICOM": [0.998748, -0.0435654, 0.0245786, 0.0490217, 0.950193, -0.307783],
  "ImageType": [
    "ORIGINAL",
    "PRIMARY",
    "M",
    "MB",
    "ND",
    "MOSAIC"
],
  "ImagingFrequency": 123.259,
  "InPlanePhaseEncodingDirectionDICOM": "COL",
  "InstitutionAddress": "Chemin_Queen-Mary_4565_Montreal_District_CA_H3W_1W5",
  "InstitutionName": "IUGM",
  "InstitutionalDepartmentName": "Department",
  "MRAcquisitionType": "2D",
  "MagneticFieldStrength": 3,
  "Manufacturer": "Siemens",
  "ManufacturersModelName": "Prisma_fit",
  "Modality": "MR",
  "MultibandAccelerationFactor": 4,
  "PartialFourier": 1,
  "PatientPosition": "HFS",
  "PercentPhaseFOV": 100,
  "PhaseEncodingDirection": "j",
  "PhaseEncodingSteps": 104,
  "PhaseResolution": 1,
  "PixelBandwidth": 2290,
  "ProcedureStepDescription": "games_mario",
  "ProtocolName": "func_task-mario_run-04",
  "PulseSequenceDetails": "%CustomerSeq%_cmrr_mbep2d_bold",
  "ReceiveCoilActiveElements": "HC1-7;NC1,2",
  "ReceiveCoilName": "HeadNeck_64",
  "ReconMatrixPE": 104,
  "RepetitionTime": 1.49,
  "SAR": 0.0386896,
  "ScanOptions": "FS",
  "ScanningSequence": "EP",
  "SequenceName": "epfid2d1_104",
  "SequenceVariant": "SK_SS",
  "SeriesDescription": "func_task-mario_run-04",
  "SeriesNumber": 22,
  "ShimSetting": [634, -7259, -8814, 599, 27, -199, -73, 10],
  "SliceThickness": 2,
  "SliceTiming": [0, 0.785, 0.1, 0.8825, 0.1975, 0.98, 0.295, 1.0775, 0.3925, 1.1775, 0.49, 1.275, 0.5875, 1.3725, 0.6875, 0, 0.785, 0.1, 0.8825, 0.1975, 0.98, 0.295, 1.0775, 0.3925, 1.1775, 0.49, 1.275, 0.5875, 1.3725, 0.6875, 0, 0.785, 0.1, 0.8825, 0.1975, 0.98, 0.295, 1.0775, 0.3925, 1.1775, 0.49, 1.275, 0.5875, 1.3725, 0.6875, 0, 0.785, 0.1, 0.8825, 0.1975, 0.98, 0.295, 1.0775, 0.3925, 1.1775, 0.49, 1.275, 0.5875, 1.3725, 0.6875],
  "SoftwareVersions": "syngo_MR_E11",
  "SpacingBetweenSlices": 2,
  "StationName": "MRC35049",
  "TaskName": "mario",
  "TotalReadoutTime": 0.0576811,
  "TxRefAmp": 236.921,
  "WipMemBlock": "ae4db2c6-03cb-4554-a852-dd156bf2ab0a||Sequence: R016 ve11c/master r/e634e98; Dec 19 2017 11:00:25 by eja",
  "dcmmeta_affine": [
    [-1.9974963665008545, 0.09804344922304153, 0.019891494885087013, 101.99383544921875],
    [0.08713070303201675, 1.900385856628418, -0.6172047257423401, -71.22244262695312],
    [0.04915719851851463, 0.6155654788017273, 1.9022783041000366, -60.61960983276367],
    [0.0, 0.0, 0.0, 1.0]
],
  "dcmmeta_reorient_transform": [
    [0.0, -1.0, 0.0, 103.0],
    [1.0, 0.0, 0.0, 0.0],
    [0.0, 0.0, 1.0, 0.0],
    [0.0, 0.0, 0.0, 1.0]
],
  "dcmmeta_shape": [104, 104, 60, 491],
  "dcmmeta_slice_dim": 2,
  "dcmmeta_version": 0.6,
  "global": {
    "const": {
      "AcquisitionMatrix": [104, 0, 0, 104],
      "AngioFlag": "N",
      "BitsAllocated": 16,
      "BitsStored": 16,
      "BodyPartExamined": "BRAIN",
      "Columns": 832,
      "EchoNumbers": 1,
      "EchoTime": 37.0,
      "EchoTrainLength": 104,
      "FlipAngle": 52.0,
      "HighBit": 15,
      "ImageOrientationPatient": [0.99874819279568, -0.0435653519495, 0.02457859835075, 0.04902172482649, 0.95019295254377, -0.3077827536286],
      "ImagePositionPatient": [-874.86880804535, -784.54220057497, 208.95626338011],
      "ImageType": [
        "ORIGINAL",
        "PRIMARY",
        "M",
        "MB",
        "ND",
        "MOSAIC"
],
      "ImagedNucleus": "1H",
      "ImagingFrequency": 123.258882,
      "InPlanePhaseEncodingDirection": "COL",
      "MRAcquisitionType": "2D",
      "MagneticFieldStrength": 3.0,
      "Manufacturer": "SIEMENS",
      "ManufacturerModelName": "Prisma_fit",
      "Modality": "MR",
      "NumberOfAverages": 1.0,
      "NumberOfPhaseEncodingSteps": 104,
      "PercentPhaseFieldOfView": 100.0,
      "PercentSampling": 100.0,
      "PerformedProcedureStepStartTime": "152009.125000",
      "PhotometricInterpretation": "MONOCHROME2",
      "PixelBandwidth": 2290.0,
      "PixelRepresentation": 0,
      "PixelSpacing": [2.0, 2.0],
      "ProtocolName": "func_task-mario_run-04",
      "RepetitionTime": 1490.0,
      "Rows": 832,
      "SAR": 0.03868964297269,
      "SamplesPerPixel": 1,
      "ScanOptions": "FS",
      "ScanningSequence": "EP",
      "SequenceName": "epfid2d1_104",
      "SequenceVariant": [
        "SK",
        "SS"
],
      "SeriesDescription": "func_task-mario_run-04",
      "SeriesNumber": 22,
      "SeriesTime": "165204.627000",
      "SliceLocation": -34.663865076788,
      "SliceThickness": 2.0,
      "SmallestImagePixelValue": 0,
      "SoftwareVersions": "syngo MR E11",
      "SpacingBetweenSlices": 2.0000000303686,
      "SpecificCharacterSet": "ISO_IR 100",
      "StudyID": "1",
      "StudyTime": "152009.040000",
      "TransmitCoilName": "Body",
      "VariableFlipAngleFlag": "N",
      "WindowCenterWidthExplanation": "Algo1",
      "dBdt": 0.0},
    "slices": {}
  },
  "time": {
    "samples": {
      "AcquisitionNumber": [1, 2, 3, 4, 5, 6, 7, 8, 9, 10, 11, 12, 13, 14, 15, 16, 17, 18, 19, 20, 21, 22, 23, 24, 25, 26, 27, 28, 29, 30, 31, 32, 33, 34, 35, 36, 37, 38, 39, 40, 41, 42, 43, 44, 45, 46, 47, 48, 49, 50, 51, 52, 53, 54, 55, 56, 57, 58, 59, 60, 61, 62, 63, 64, 65, 66, 67, 68, 69, 70, 71, 72, 73, 74, 75, 76, 77, 78, 79, 80, 81, 82, 83, 84, 85, 86, 87, 88, 89, 90, 91, 92, 93, 94, 95, 96, 97, 98, 99, 100, 101, 102, 103, 104, 105, 106, 107, 108, 109, 110, 111, 112, 113, 114, 115, 116, 117, 118, 119, 120, 121, 122, 123, 124, 125, 126, 127, 128, 129, 130, 131, 132, 133, 134, 135, 136, 137, 138, 139, 140, 141, 142, 143, 144, 145, 146, 147, 148, 149, 150, 151, 152, 153, 154, 155, 156, 157, 158, 159, 160, 161, 162, 163, 164, 165, 166, 167, 168, 169, 170, 171, 172, 173, 174, 175, 176, 177, 178, 179, 180, 181, 182, 183, 184, 185, 186, 187, 188, 189, 190, 191, 192, 193, 194, 195, 196, 197, 198, 199, 200, 201, 202, 203, 204, 205, 206, 207, 208, 209, 210, 211, 212, 213, 214, 215, 216, 217, 218, 219, 220, 221, 222, 223, 224, 225, 226, 227, 228, 229, 230, 231, 232, 233, 234, 235, 236, 237, 238, 239, 240, 241, 242, 243, 244, 245, 246, 247, 248, 249, 250, 251, 252, 253, 254, 255, 256, 257, 258, 259, 260, 261, 262, 263, 264, 265, 266, 267, 268, 269, 270, 271, 272, 273, 274, 275, 276, 277, 278, 279, 280, 281, 282, 283, 284, 285, 286, 287, 288, 289, 290, 291, 292, 293, 294, 295, 296, 297, 298, 299, 300, 301, 302, 303, 304, 305, 306, 307, 308, 309, 310, 311, 312, 313, 314, 315, 316, 317, 318, 319, 320, 321, 322, 323, 324, 325, 326, 327, 328, 329, 330, 331, 332, 333, 334, 335, 336, 337, 338, 339, 340, 341, 342, 343, 344, 345, 346, 347, 348, 349, 350, 351, 352, 353, 354, 355, 356, 357, 358, 359, 360, 361, 362, 363, 364, 365, 366, 367, 368, 369, 370, 371, 372, 373, 374, 375, 376, 377, 378, 379, 380, 381, 382, 383, 384, 385, 386, 387, 388, 389, 390, 391, 392, 393, 394, 395, 396, 397, 398, 399, 400, 401, 402, 403, 404, 405, 406, 407, 408, 409, 410, 411, 412, 413, 414, 415, 416, 417, 418, 419, 420, 421, 422, 423, 424, 425, 426, 427, 428, 429, 430, 431, 432, 433, 434, 435, 436, 437, 438, 439, 440, 441, 442, 443, 444, 445, 446, 447, 448, 449, 450, 451, 452, 453, 454, 455, 456, 457, 458, 459, 460, 461, 462, 463, 464, 465, 466, 467, 468, 469, 470, 471, 472, 473, 474, 475, 476, 477, 478, 479, 480, 481, 482, 483, 484, 485, 486, 487, 488, 489, 490, 491],
      "AcquisitionTime": ["165039.702500", "165041.192500", "165042.682500", "165044.172500", "165045.662500", "165047.152500", "165048.642500", "165050.132500", "165051.622500", "165053.112500", "165054.602500", "165056.092500", "165057.582500", "165059.072500", "165100.562500", "165102.052500", "165103.542500", "165105.032500", "165106.522500", "165108.012500", "165109.502500", "165110.992500", "165112.482500", "165113.972500", "165115.462500", "165116.952500", "165118.442500", "165119.932500", "165121.422500", "165122.912500", "165124.402500", "165125.892500", "165127.382500", "165128.872500", "165130.362500", "165131.852500", "165133.342500", "165134.832500", "165136.322500", "165137.812500", "165139.302500", "165140.792500", "165142.282500", "165143.772500", "165145.262500", "165146.752500", "165148.242500", "165149.732500", "165151.222500", "165152.712500", "165154.202500", "165155.692500", "165157.182500", "165158.672500", "165200.162500", "165201.652500", "165203.142500", "165204.632500", "165206.122500", "165207.612500", "165209.102500", "165210.592500", "165212.082500", "165213.572500", "165215.062500", "165216.552500", "165218.042500", "165219.532500", "165221.022500", "165222.512500", "165224.002500", "165225.492500", "165226.982500", "165228.472500", "165229.962500", "165231.452500", "165232.942500", "165234.432500", "165235.922500", "165237.412500", "165238.902500", "165240.392500", "165241.882500", "165243.372500", "165244.862500", "165246.352500", "165247.842500", "165249.332500", "165250.822500", "165252.312500", "165253.802500", "165255.292500", "165256.782500", "165258.272500", "165259.762500", "165301.252500", "165302.742500", "165304.232500", "165305.722500", "165307.212500", "165308.702500", "165310.192500", "165311.682500", "165313.172500", "165314.662500", "165316.152500", "165317.642500", "165319.132500", "165320.622500", "165322.112500", "165323.602500", "165325.092500", "165326.582500", "165328.072500", "165329.562500", "165331.052500", "165332.542500", "165334.032500", "165335.522500", "165337.012500", "165338.502500", "165339.992500", "165341.482500", "165342.972500", "165344.462500", "165345.952500", "165347.442500", "165348.932500", "165350.422500", "165351.912500", "165353.402500", "165354.892500", "165356.382500", "165357.872500", "165359.362500", "165400.852500", "165402.342500", "165403.832500", "165405.322500", "165406.812500", "165408.302500", "165409.792500", "165411.282500", "165412.772500", "165414.262500", "165415.752500", "165417.242500", "165418.732500", "165420.222500", "165421.712500", "165423.202500", "165424.692500", "165426.182500", "165427.672500", "165429.162500", "165430.652500", "165432.142500", "165433.632500", "165435.122500", "165436.612500", "165438.102500", "165439.592500", "165441.082500", "165442.572500", "165444.062500", "165445.552500", "165447.042500", "165448.532500", "165450.022500", "165451.512500", "165453.002500", "165454.492500", "165455.982500", "165457.472500", "165458.962500", "165500.452500", "165501.942500", "165503.432500", "165504.922500", "165506.412500", "165507.902500", "165509.392500", "165510.882500", "165512.372500", "165513.862500", "165515.352500", "165516.842500", "165518.332500", "165519.822500", "165521.312500", "165522.802500", "165524.292500", "165525.782500", "165527.272500", "165528.762500", "165530.252500", "165531.742500", "165533.232500", "165534.722500", "165536.212500", "165537.702500", "165539.192500", "165540.682500", "165542.172500", "165543.662500", "165545.152500", "165546.642500", "165548.132500", "165549.622500", "165551.112500", "165552.602500", "165554.092500", "165555.582500", "165557.072500", "165558.562500", "165600.052500", "165601.542500", "165603.032500", "165604.522500", "165606.012500", "165607.502500", "165608.992500", "165610.482500", "165611.972500", "165613.462500", "165614.952500", "165616.442500", "165617.932500", "165619.422500", "165620.912500", "165622.402500", "165623.892500", "165625.382500", "165626.872500", "165628.362500", "165629.852500", "165631.342500", "165632.832500", "165634.322500", "165635.812500", "165637.302500", "165638.792500", "165640.282500", "165641.772500", "165643.262500", "165644.752500", "165646.242500", "165647.732500", "165649.222500", "165650.712500", "165652.202500", "165653.692500", "165655.182500", "165656.672500", "165658.162500", "165659.652500", "165701.142500", "165702.632500", "165704.122500", "165705.612500", "165707.102500", "165708.592500", "165710.082500", "165711.572500", "165713.062500", "165714.552500", "165716.042500", "165717.532500", "165719.022500", "165720.512500", "165722.002500", "165723.492500", "165724.982500", "165726.472500", "165727.962500", "165729.452500", "165730.942500", "165732.432500", "165733.922500", "165735.412500", "165736.902500", "165738.392500", "165739.882500", "165741.372500", "165742.862500", "165744.352500", "165745.842500", "165747.332500", "165748.822500", "165750.312500", "165751.802500", "165753.292500", "165754.782500", "165756.272500", "165757.762500", "165759.252500", "165800.742500", "165802.232500", "165803.722500", "165805.212500", "165806.702500", "165808.192500", "165809.682500", "165811.172500", "165812.662500", "165814.152500", "165815.642500", "165817.132500", "165818.622500", "165820.112500", "165821.602500", "165823.092500", "165824.582500", "165826.072500", "165827.562500", "165829.052500", "165830.542500", "165832.032500", "165833.522500", "165835.012500", "165836.502500", "165837.992500", "165839.482500", "165840.972500", "165842.462500", "165843.952500", "165845.442500", "165846.932500", "165848.422500", "165849.912500", "165851.402500", "165852.892500", "165854.382500", "165855.872500", "165857.362500", "165858.852500", "165900.342500", "165901.832500", "165903.322500", "165904.812500", "165906.302500", "165907.792500", "165909.282500", "165910.772500", "165912.262500", "165913.752500", "165915.242500", "165916.732500", "165918.222500", "165919.712500", "165921.202500", "165922.692500", "165924.182500", "165925.672500", "165927.162500", "165928.652500", "165930.142500", "165931.632500", "165933.122500", "165934.612500", "165936.102500", "165937.592500", "165939.082500", "165940.572500", "165942.062500", "165943.552500", "165945.042500", "165946.532500", "165948.022500", "165949.512500", "165951.002500", "165952.492500", "165953.982500", "165955.472500", "165956.962500", "165958.452500", "165959.942500", "170001.432500", "170002.922500", "170004.412500", "170005.902500", "170007.392500", "170008.882500", "170010.372500", "170011.862500", "170013.352500", "170014.842500", "170016.332500", "170017.822500", "170019.312500", "170020.802500", "170022.292500", "170023.782500", "170025.272500", "170026.762500", "170028.252500", "170029.742500", "170031.232500", "170032.722500", "170034.212500", "170035.702500", "170037.192500", "170038.682500", "170040.172500", "170041.662500", "170043.152500", "170044.642500", "170046.132500", "170047.622500", "170049.112500", "170050.602500", "170052.092500", "170053.582500", "170055.072500", "170056.562500", "170058.052500", "170059.542500", "170101.032500", "170102.522500", "170104.012500", "170105.502500", "170106.992500", "170108.482500", "170109.972500", "170111.462500", "170112.952500", "170114.442500", "170115.932500", "170117.422500", "170118.912500", "170120.402500", "170121.892500", "170123.382500", "170124.872500", "170126.362500", "170127.852500", "170129.342500", "170130.832500", "170132.322500", "170133.812500", "170135.302500", "170136.792500", "170138.282500", "170139.772500", "170141.262500", "170142.752500", "170144.242500", "170145.732500", "170147.222500", "170148.712500", "170150.202500", "170151.692500", "170153.182500", "170154.672500", "170156.162500", "170157.652500", "170159.142500", "170200.632500", "170202.122500", "170203.612500", "170205.102500", "170206.592500", "170208.082500", "170209.572500", "170211.062500", "170212.552500", "170214.042500", "170215.532500", "170217.022500", "170218.512500", "170220.002500", "170221.492500", "170222.982500", "170224.472500", "170225.962500", "170227.452500", "170228.942500", "170230.432500", "170231.922500", "170233.412500", "170234.902500", "170236.392500", "170237.882500", "170239.372500", "170240.862500", "170242.352500", "170243.842500", "170245.332500", "170246.822500", "170248.312500", "170249.802500"],
      "ContentTime": ["165204.630000", "165204.634000", "165204.637000", "165204.640000", "165204.643000", "165204.647000", "165204.650000", "165204.653000", "165204.656000", "165204.660000", "165204.663000", "165204.666000", "165204.669000", "165204.672000", "165204.676000", "165204.679000", "165204.682000", "165204.686000", "165204.689000", "165204.692000", "165204.696000", "165204.699000", "165204.702000", "165204.705000", "165204.708000", "165204.712000", "165204.715000", "165204.718000", "165204.721000", "165204.724000", "165204.728000", "165204.731000", "165224.587000", "165224.591000", "165224.594000", "165224.597000", "165224.600000", "165224.604000", "165224.607000", "165224.610000", "165224.613000", "165224.617000", "165224.620000", "165224.623000", "165224.626000", "165224.629000", "165224.633000", "165224.636000", "165224.639000", "165224.643000", "165224.646000", "165224.649000", "165224.652000", "165244.587000", "165244.591000", "165244.594000", "165244.597000", "165244.600000", "165244.603000", "165244.622000", "165244.625000", "165244.628000", "165244.632000", "165244.635000", "165244.638000", "165244.641000", "165244.644000", "165244.648000", "165244.651000", "165244.654000", "165244.657000", "165244.661000", "165244.664000", "165304.587000", "165304.591000", "165304.594000", "165304.597000", "165304.600000", "165304.604000", "165304.607000", "165304.610000", "165304.613000", "165304.617000", "165304.620000", "165304.623000", "165304.626000", "165304.629000", "165304.633000", "165304.636000", "165304.639000", "165304.642000", "165304.646000", "165304.649000", "165344.590000", "165344.595000", "165344.599000", "165344.602000", "165344.605000", "165344.608000", "165344.612000", "165344.615000", "165344.618000", "165344.621000", "165344.625000", "165344.628000", "165344.631000", "165344.634000", "165344.638000", "165344.641000", "165344.644000", "165344.647000", "165344.651000", "165344.654000", "165344.657000", "165344.660000", "165344.663000", "165344.667000", "165344.670000", "165344.673000", "165344.676000", "165344.679000", "165344.683000", "165344.686000", "165424.588000", "165424.592000", "165424.595000", "165424.598000", "165424.602000", "165424.605000", "165424.608000", "165424.611000", "165424.615000", "165424.618000", "165424.621000", "165424.624000", "165424.628000", "165424.631000", "165424.634000", "165424.637000", "165424.641000", "165424.644000", "165424.647000", "165424.650000", "165424.654000", "165424.657000", "165424.660000", "165424.663000", "165424.667000", "165424.670000", "165424.673000", "165504.587000", "165504.591000", "165504.594000", "165504.597000", "165504.601000", "165504.604000", "165504.607000", "165504.611000", "165504.614000", "165504.617000", "165504.632000", "165504.635000", "165504.639000", "165504.642000", "165504.645000", "165504.648000", "165504.652000", "165504.655000", "165504.658000", "165504.661000", "165504.664000", "165504.668000", "165504.671000", "165504.674000", "165504.677000", "165504.681000", "165504.684000", "165544.588000", "165544.592000", "165544.595000", "165544.598000", "165544.602000", "165544.605000", "165544.608000", "165544.611000", "165544.615000", "165544.618000", "165544.621000", "165544.625000", "165544.628000", "165544.631000", "165544.634000", "165544.637000", "165544.641000", "165544.644000", "165544.647000", "165544.650000", "165544.654000", "165544.657000", "165544.660000", "165544.663000", "165544.667000", "165544.670000", "165544.673000", "165624.588000", "165624.592000", "165624.595000", "165624.599000", "165624.602000", "165624.606000", "165624.609000", "165624.612000", "165624.615000", "165624.619000", "165624.622000", "165624.625000", "165624.629000", "165624.632000", "165624.635000", "165624.638000", "165624.642000", "165624.645000", "165624.648000", "165624.651000", "165624.655000", "165624.658000", "165624.661000", "165624.664000", "165624.668000", "165624.671000", "165624.674000", "165644.588000", "165644.592000", "165644.595000", "165644.598000", "165644.602000", "165644.605000", "165644.608000", "165644.611000", "165644.615000", "165644.618000", "165644.621000", "165644.624000", "165644.628000", "165724.587000", "165724.591000", "165724.594000", "165724.598000", "165724.601000", "165724.604000", "165724.607000", "165724.611000", "165724.614000", "165724.631000", "165724.634000", "165724.638000", "165724.641000", "165724.644000", "165724.647000", "165724.651000", "165724.654000", "165724.657000", "165724.660000", "165724.663000", "165724.667000", "165724.670000", "165724.673000", "165724.677000", "165724.680000", "165724.683000", "165724.686000", "165804.588000", "165804.592000", "165804.595000", "165804.599000", "165804.602000", "165804.605000", "165804.608000", "165804.612000", "165804.615000", "165804.618000", "165804.622000", "165804.625000", "165804.628000", "165804.631000", "165804.635000", "165804.638000", "165804.641000", "165804.645000", "165804.648000", "165804.651000", "165804.654000", "165804.658000", "165804.661000", "165804.664000", "165804.667000", "165804.671000", "165804.674000", "165844.588000", "165844.592000", "165844.595000", "165844.598000", "165844.602000", "165844.605000", "165844.608000", "165844.611000", "165844.615000", "165844.618000", "165844.621000", "165844.624000", "165844.628000", "165844.631000", "165844.634000", "165844.637000", "165844.641000", "165844.644000", "165844.647000", "165844.650000", "165844.654000", "165844.657000", "165844.660000", "165844.663000", "165844.667000", "165844.670000", "165844.673000", "165924.587000", "165924.591000", "165924.594000", "165924.597000", "165924.601000", "165924.604000", "165924.607000", "165924.611000", "165924.614000", "165924.617000", "165924.621000", "165924.624000", "165924.627000", "165924.630000", "165924.634000", "165924.637000", "165924.640000", "165924.644000", "165924.647000", "165924.650000", "165924.653000", "165924.657000", "165924.660000", "165924.663000", "165924.679000", "165924.682000", "165924.686000", "170004.587000", "170004.591000", "170004.594000", "170004.598000", "170004.601000", "170004.604000", "170004.607000", "170004.611000", "170004.614000", "170004.617000", "170004.620000", "170004.624000", "170004.627000", "170004.630000", "170004.633000", "170004.638000", "170004.642000", "170004.645000", "170004.648000", "170004.651000", "170004.655000", "170004.658000", "170004.661000", "170004.664000", "170004.668000", "170004.671000", "170004.674000", "170044.588000", "170044.592000", "170044.595000", "170044.598000", "170044.602000", "170044.605000", "170044.608000", "170044.612000", "170044.615000", "170044.618000", "170044.621000", "170044.625000", "170044.629000", "170044.632000", "170044.636000", "170044.639000", "170044.642000", "170044.646000", "170044.649000", "170044.652000", "170044.655000", "170044.659000", "170044.662000", "170044.665000", "170044.668000", "170044.672000", "170124.588000", "170124.592000", "170124.595000", "170124.599000", "170124.602000", "170124.605000", "170124.608000", "170124.612000", "170124.615000", "170124.618000", "170124.621000", "170124.625000", "170124.628000", "170124.631000", "170124.634000", "170124.637000", "170124.641000", "170124.644000", "170124.647000", "170124.650000", "170124.654000", "170124.657000", "170124.660000", "170124.663000", "170124.666000", "170124.670000", "170124.673000", "170204.587000", "170204.602000", "170204.606000", "170204.609000", "170204.612000", "170204.615000", "170204.619000", "170204.622000", "170204.625000", "170204.629000", "170204.632000", "170204.635000", "170204.638000", "170204.642000", "170204.645000", "170204.648000", "170204.652000", "170204.655000", "170204.658000", "170204.662000", "170204.665000", "170204.668000", "170204.671000", "170204.675000", "170204.678000", "170204.681000", "170204.684000", "170244.588000", "170244.592000", "170244.595000", "170244.599000", "170244.602000", "170244.606000", "170244.609000", "170244.612000", "170244.616000", "170244.619000", "170244.622000", "170244.625000", "170244.629000", "170244.632000", "170244.635000", "170244.639000", "170244.642000", "170244.645000", "170244.648000", "170244.652000", "170244.655000", "170244.658000", "170244.661000", "170244.665000", "170244.668000", "170244.671000", "170244.675000", "170252.632000", "170252.635000", "170252.639000", "170252.642000", "170252.645000"],
