{
  "AcquisitionMatrixPE": 104,
  "AcquisitionNumber": 1,
  "AcquisitionTime": "13:33:3.147500",
  "BandwidthPerPixelPhaseEncode": 17.17,
  "BaseResolution": 104,
  "BodyPartExamined": "BRAIN",
  "CoilCombinationMethod": "Sum of Squares",
  "ConsistencyInfo": "N4_VE11C_LATEST_20160120",
  "ConversionSoftware": "dcm2niix",
  "ConversionSoftwareVersion": "v1.0.20211006",
  "DerivedVendorReportedEchoSpacing": 0.000560011,
  "DeviceSerialNumber": "167006",
  "DwellTime": 2.1e-06,
  "EchoTime": 0.037,
  "EchoTrainLength": 104,
  "EffectiveEchoSpacing": 0.000560011,
  "FlipAngle": 52,
  "HeudiconvVersion": "0.10.0",
  "ImageComments": "Unaliased MB4/PE3/LB",
  "ImageOrientationPatientDICOM": [0.999707, 0.00762089, 0.0229538, 0.00436202, 0.876684, -0.481047],
  "ImageOrientationText": "Tra>Cor(-28.8)>Sag(1.4)",
  "ImageType": [
    "ORIGINAL",
    "PRIMARY",
    "M",
    "MB",
    "ND",
    "MOSAIC"
],
  "ImagingFrequency": 123.259,
  "InPlanePhaseEncodingDirectionDICOM": "COL",
  "InstitutionAddress": "Chemin Queen-Mary 4565,Montreal,District,CA,H3W 1W5",
  "InstitutionName": "IUGM",
  "InstitutionalDepartmentName": "Department",
  "MRAcquisitionType": "2D",
  "MagneticFieldStrength": 3,
  "Manufacturer": "Siemens",
  "ManufacturersModelName": "Prisma_fit",
  "MatrixCoilMode": "SENSE",
  "Modality": "MR",
  "MultibandAccelerationFactor": 4,
  "PartialFourier": 1,
  "PatientPosition": "HFS",
  "PercentPhaseFOV": 100,
  "PercentSampling": 100,
  "PhaseEncodingDirection": "j",
  "PhaseEncodingSteps": 104,
  "PhaseResolution": 1,
  "PixelBandwidth": 2290,
  "ProcedureStepDescription": "games^mario",
  "ProtocolName": "func_task-mario_run-02",
  "PulseSequenceDetails": "%CustomerSeq%\\cmrr_mbep2d_bold",
  "ReceiveCoilActiveElements": "HC1-7;NC1,2",
  "ReceiveCoilName": "HeadNeck_64",
  "ReconMatrixPE": 104,
  "RepetitionTime": 1.49,
  "SAR": 0.0617665,
  "ScanOptions": "FS",
  "ScanningSequence": "EP",
  "SequenceName": "epfid2d1_104",
  "SequenceVariant": "SK\\SS",
  "SeriesDescription": "func_task-mario_run-02",
  "SeriesNumber": 13,
  "ShimSetting": [616, -7184, -8859, 314, 3, -156, -49, -8],
  "SliceThickness": 2,
  "SliceTiming": [0, 0.785, 0.0975, 0.8825, 0.1975, 0.98, 0.295, 1.0775, 0.3925, 1.1775, 0.49, 1.275, 0.5875, 1.3725, 0.6875, 0, 0.785, 0.0975, 0.8825, 0.1975, 0.98, 0.295, 1.0775, 0.3925, 1.1775, 0.49, 1.275, 0.5875, 1.3725, 0.6875, 0, 0.785, 0.0975, 0.8825, 0.1975, 0.98, 0.295, 1.0775, 0.3925, 1.1775, 0.49, 1.275, 0.5875, 1.3725, 0.6875, 0, 0.785, 0.0975, 0.8825, 0.1975, 0.98, 0.295, 1.0775, 0.3925, 1.1775, 0.49, 1.275, 0.5875, 1.3725, 0.6875],
  "SoftwareVersions": "syngo MR E11",
  "SpacingBetweenSlices": 2,
  "StationName": "MRC35049",
  "TaskName": "mario",
  "TotalReadoutTime": 0.0576811,
  "TxRefAmp": 292.35,
  "WipMemBlock": "1dd542c1-d11e-4e7c-af21-a3d9c2f02952||Sequence: R016 ve11c/master r/e634e98; Dec 19 2017 11:00:25 by eja",
  "dcmmeta_affine": [
    [-1.9994149208068848, 0.008724045008420944, 0.04757844656705856, 104.82805633544922],
    [-0.015241787768900394, 1.7533674240112305, -0.9620136022567749, -52.70093536376953],
    [0.04590757563710213, 0.962094783782959, 1.7527880668640137, -95.80907440185547],
    [0.0, 0.0, 0.0, 1.0]
],
  "dcmmeta_reorient_transform": [
    [0.0, -1.0, 0.0, 103.0],
    [1.0, 0.0, 0.0, 0.0],
    [0.0, 0.0, 1.0, 0.0],
    [0.0, 0.0, 0.0, 1.0]
],
  "dcmmeta_shape": [104, 104, 60, 457],
  "dcmmeta_slice_dim": 2,
  "dcmmeta_version": 0.6,
  "global": {
    "const": {
      "AcquisitionMatrix": [104, 0, 0, 104],
      "AngioFlag": "N",
      "BitsAllocated": 16,
      "BitsStored": 16,
      "BodyPartExamined": "BRAIN",
      "Columns": 832,
      "EchoNumbers": 1,
      "EchoTime": 37.0,
      "EchoTrainLength": 104,
      "FlipAngle": 52.0,
      "HighBit": 15,
      "ImageOrientationPatient": [0.99970748000563, 0.00762089376109, 0.02295378833826, 0.00436202239732, 0.87668373878418, -0.4810473936235],
      "ImagePositionPatient": [-836.68923426437, -771.66968837801, 336.77883427875],
      "ImageType": [
        "ORIGINAL",
        "PRIMARY",
        "M",
        "MB",
        "ND",
        "MOSAIC"
],
      "ImagedNucleus": "1H",
      "ImagingFrequency": 123.258898,
      "InPlanePhaseEncodingDirection": "COL",
      "MRAcquisitionType": "2D",
      "MagneticFieldStrength": 3.0,
      "Manufacturer": "SIEMENS",
      "ManufacturerModelName": "Prisma_fit",
      "Modality": "MR",
      "NumberOfAverages": 1.0,
      "NumberOfPhaseEncodingSteps": 104,
      "PercentPhaseFieldOfView": 100.0,
      "PercentSampling": 100.0,
      "PerformedProcedureStepStartTime": "125019.919000",
      "PhotometricInterpretation": "MONOCHROME2",
      "PixelBandwidth": 2290.0,
      "PixelRepresentation": 0,
      "PixelSpacing": [2.0, 2.0],
      "ProtocolName": "func_task-mario_run-02",
      "RepetitionTime": 1490.0,
      "Rows": 832,
      "SAR": 0.06176649247625,
      "SamplesPerPixel": 1,
      "ScanOptions": "FS",
      "ScanningSequence": "EP",
      "SequenceName": "epfid2d1_104",
      "SequenceVariant": [
        "SK",
        "SS"
],
      "SeriesDescription": "func_task-mario_run-02",
      "SeriesNumber": 13,
      "SeriesTime": "133408.306000",
      "SliceLocation": -56.123215685119,
      "SliceThickness": 2.0,
      "SmallestImagePixelValue": 0,
      "SoftwareVersions": "syngo MR E11",
      "SpacingBetweenSlices": 1.999999991589,
      "SpecificCharacterSet": "ISO_IR 100",
      "StudyID": "1",
      "StudyTime": "125019.797000",
      "TransmitCoilName": "Body",
      "VariableFlipAngleFlag": "N",
      "WindowCenterWidthExplanation": "Algo1",
      "dBdt": 0.0},
    "slices": {}
  },
  "time": {
    "samples": {
      "AcquisitionNumber": [1, 2, 3, 4, 5, 6, 7, 8, 9, 10, 11, 12, 13, 14, 15, 16, 17, 18, 19, 20, 21, 22, 23, 24, 25, 26, 27, 28, 29, 30, 31, 32, 33, 34, 35, 36, 37, 38, 39, 40, 41, 42, 43, 44, 45, 46, 47, 48, 49, 50, 51, 52, 53, 54, 55, 56, 57, 58, 59, 60, 61, 62, 63, 64, 65, 66, 67, 68, 69, 70, 71, 72, 73, 74, 75, 76, 77, 78, 79, 80, 81, 82, 83, 84, 85, 86, 87, 88, 89, 90, 91, 92, 93, 94, 95, 96, 97, 98, 99, 100, 101, 102, 103, 104, 105, 106, 107, 108, 109, 110, 111, 112, 113, 114, 115, 116, 117, 118, 119, 120, 121, 122, 123, 124, 125, 126, 127, 128, 129, 130, 131, 132, 133, 134, 135, 136, 137, 138, 139, 140, 141, 142, 143, 144, 145, 146, 147, 148, 149, 150, 151, 152, 153, 154, 155, 156, 157, 158, 159, 160, 161, 162, 163, 164, 165, 166, 167, 168, 169, 170, 171, 172, 173, 174, 175, 176, 177, 178, 179, 180, 181, 182, 183, 184, 185, 186, 187, 188, 189, 190, 191, 192, 193, 194, 195, 196, 197, 198, 199, 200, 201, 202, 203, 204, 205, 206, 207, 208, 209, 210, 211, 212, 213, 214, 215, 216, 217, 218, 219, 220, 221, 222, 223, 224, 225, 226, 227, 228, 229, 230, 231, 232, 233, 234, 235, 236, 237, 238, 239, 240, 241, 242, 243, 244, 245, 246, 247, 248, 249, 250, 251, 252, 253, 254, 255, 256, 257, 258, 259, 260, 261, 262, 263, 264, 265, 266, 267, 268, 269, 270, 271, 272, 273, 274, 275, 276, 277, 278, 279, 280, 281, 282, 283, 284, 285, 286, 287, 288, 289, 290, 291, 292, 293, 294, 295, 296, 297, 298, 299, 300, 301, 302, 303, 304, 305, 306, 307, 308, 309, 310, 311, 312, 313, 314, 315, 316, 317, 318, 319, 320, 321, 322, 323, 324, 325, 326, 327, 328, 329, 330, 331, 332, 333, 334, 335, 336, 337, 338, 339, 340, 341, 342, 343, 344, 345, 346, 347, 348, 349, 350, 351, 352, 353, 354, 355, 356, 357, 358, 359, 360, 361, 362, 363, 364, 365, 366, 367, 368, 369, 370, 371, 372, 373, 374, 375, 376, 377, 378, 379, 380, 381, 382, 383, 384, 385, 386, 387, 388, 389, 390, 391, 392, 393, 394, 395, 396, 397, 398, 399, 400, 401, 402, 403, 404, 405, 406, 407, 408, 409, 410, 411, 412, 413, 414, 415, 416, 417, 418, 419, 420, 421, 422, 423, 424, 425, 426, 427, 428, 429, 430, 431, 432, 433, 434, 435, 436, 437, 438, 439, 440, 441, 442, 443, 444, 445, 446, 447, 448, 449, 450, 451, 452, 453, 454, 455, 456, 457],
      "AcquisitionTime": ["133303.147500", "133304.637500", "133306.127500", "133307.617500", "133309.107500", "133310.597500", "133312.087500", "133313.577500", "133315.067500", "133316.557500", "133318.047500", "133319.537500", "133321.027500", "133322.517500", "133324.007500", "133325.497500", "133326.987500", "133328.477500", "133329.967500", "133331.457500", "133332.947500", "133334.437500", "133335.927500", "133337.417500", "133338.907500", "133340.397500", "133341.887500", "133343.377500", "133344.867500", "133346.357500", "133347.847500", "133349.337500", "133350.827500", "133352.317500", "133353.807500", "133355.297500", "133356.787500", "133358.277500", "133359.767500", "133401.257500", "133402.747500", "133404.237500", "133405.727500", "133407.217500", "133408.707500", "133410.197500", "133411.687500", "133413.177500", "133414.667500", "133416.157500", "133417.647500", "133419.137500", "133420.627500", "133422.117500", "133423.607500", "133425.097500", "133426.587500", "133428.077500", "133429.567500", "133431.057500", "133432.547500", "133434.037500", "133435.527500", "133437.017500", "133438.507500", "133439.997500", "133441.487500", "133442.977500", "133444.467500", "133445.957500", "133447.447500", "133448.937500", "133450.427500", "133451.917500", "133453.407500", "133454.897500", "133456.387500", "133457.877500", "133459.367500", "133500.857500", "133502.347500", "133503.837500", "133505.327500", "133506.817500", "133508.307500", "133509.797500", "133511.287500", "133512.777500", "133514.267500", "133515.757500", "133517.247500", "133518.737500", "133520.227500", "133521.717500", "133523.207500", "133524.697500", "133526.187500", "133527.677500", "133529.167500", "133530.657500", "133532.147500", "133533.637500", "133535.127500", "133536.617500", "133538.107500", "133539.597500", "133541.087500", "133542.577500", "133544.067500", "133545.557500", "133547.047500", "133548.537500", "133550.027500", "133551.517500", "133553.007500", "133554.497500", "133555.987500", "133557.477500", "133558.967500", "133600.457500", "133601.947500", "133603.437500", "133604.927500", "133606.417500", "133607.907500", "133609.397500", "133610.887500", "133612.377500", "133613.867500", "133615.357500", "133616.847500", "133618.337500", "133619.827500", "133621.317500", "133622.807500", "133624.297500", "133625.787500", "133627.277500", "133628.767500", "133630.257500", "133631.747500", "133633.237500", "133634.727500", "133636.217500", "133637.707500", "133639.197500", "133640.687500", "133642.177500", "133643.667500", "133645.157500", "133646.647500", "133648.137500", "133649.627500", "133651.117500", "133652.607500", "133654.097500", "133655.587500", "133657.077500", "133658.567500", "133700.057500", "133701.547500", "133703.037500", "133704.527500", "133706.017500", "133707.507500", "133708.997500", "133710.487500", "133711.977500", "133713.467500", "133714.957500", "133716.447500", "133717.937500", "133719.427500", "133720.917500", "133722.407500", "133723.897500", "133725.387500", "133726.877500", "133728.367500", "133729.857500", "133731.347500", "133732.837500", "133734.327500", "133735.817500", "133737.307500", "133738.797500", "133740.287500", "133741.777500", "133743.267500", "133744.757500", "133746.247500", "133747.737500", "133749.227500", "133750.717500", "133752.207500", "133753.697500", "133755.187500", "133756.677500", "133758.167500", "133759.657500", "133801.147500", "133802.637500", "133804.127500", "133805.617500", "133807.107500", "133808.597500", "133810.087500", "133811.577500", "133813.067500", "133814.557500", "133816.047500", "133817.537500", "133819.027500", "133820.517500", "133822.007500", "133823.497500", "133824.987500", "133826.477500", "133827.967500", "133829.457500", "133830.947500", "133832.437500", "133833.927500", "133835.417500", "133836.907500", "133838.397500", "133839.887500", "133841.377500", "133842.867500", "133844.357500", "133845.847500", "133847.337500", "133848.827500", "133850.317500", "133851.807500", "133853.297500", "133854.787500", "133856.277500", "133857.767500", "133859.257500", "133900.747500", "133902.237500", "133903.727500", "133905.217500", "133906.707500", "133908.197500", "133909.687500", "133911.177500", "133912.667500", "133914.157500", "133915.647500", "133917.137500", "133918.627500", "133920.117500", "133921.607500", "133923.097500", "133924.587500", "133926.077500", "133927.567500", "133929.057500", "133930.547500", "133932.037500", "133933.527500", "133935.017500", "133936.507500", "133937.997500", "133939.487500", "133940.977500", "133942.467500", "133943.957500", "133945.447500", "133946.937500", "133948.427500", "133949.917500", "133951.407500", "133952.897500", "133954.387500", "133955.877500", "133957.367500", "133958.857500", "134000.347500", "134001.837500", "134003.327500", "134004.817500", "134006.307500", "134007.797500", "134009.287500", "134010.777500", "134012.267500", "134013.757500", "134015.247500", "134016.737500", "134018.227500", "134019.717500", "134021.207500", "134022.697500", "134024.187500", "134025.677500", "134027.167500", "134028.657500", "134030.147500", "134031.637500", "134033.127500", "134034.617500", "134036.107500", "134037.597500", "134039.087500", "134040.577500", "134042.067500", "134043.557500", "134045.047500", "134046.537500", "134048.027500", "134049.517500", "134051.007500", "134052.497500", "134053.987500", "134055.477500", "134056.967500", "134058.457500", "134059.947500", "134101.437500", "134102.927500", "134104.417500", "134105.907500", "134107.397500", "134108.887500", "134110.377500", "134111.867500", "134113.357500", "134114.847500", "134116.337500", "134117.827500", "134119.317500", "134120.807500", "134122.297500", "134123.787500", "134125.277500", "134126.767500", "134128.257500", "134129.747500", "134131.237500", "134132.727500", "134134.217500", "134135.707500", "134137.197500", "134138.687500", "134140.177500", "134141.667500", "134143.157500", "134144.647500", "134146.137500", "134147.627500", "134149.117500", "134150.607500", "134152.097500", "134153.587500", "134155.077500", "134156.567500", "134158.057500", "134159.547500", "134201.037500", "134202.527500", "134204.017500", "134205.507500", "134206.997500", "134208.487500", "134209.977500", "134211.467500", "134212.957500", "134214.447500", "134215.937500", "134217.427500", "134218.917500", "134220.407500", "134221.897500", "134223.387500", "134224.877500", "134226.367500", "134227.857500", "134229.347500", "134230.837500", "134232.327500", "134233.817500", "134235.307500", "134236.797500", "134238.287500", "134239.777500", "134241.267500", "134242.757500", "134244.247500", "134245.737500", "134247.227500", "134248.717500", "134250.207500", "134251.697500", "134253.187500", "134254.677500", "134256.167500", "134257.657500", "134259.147500", "134300.637500", "134302.127500", "134303.617500", "134305.107500", "134306.597500", "134308.087500", "134309.577500", "134311.067500", "134312.557500", "134314.047500", "134315.537500", "134317.027500", "134318.517500", "134320.007500", "134321.497500", "134322.987500", "134324.477500", "134325.967500", "134327.457500", "134328.947500", "134330.437500", "134331.927500", "134333.417500", "134334.907500", "134336.397500", "134337.887500", "134339.377500", "134340.867500", "134342.357500", "134343.847500", "134345.337500", "134346.827500", "134348.317500", "134349.807500", "134351.297500", "134352.787500", "134354.277500", "134355.767500", "134357.257500", "134358.747500", "134400.237500", "134401.727500", "134403.217500", "134404.707500", "134406.197500", "134407.687500", "134409.177500", "134410.667500", "134412.157500", "134413.647500", "134415.137500", "134416.627500", "134418.117500", "134419.607500", "134421.097500", "134422.587500"],
      "ContentTime": ["133408.309000", "133408.317000", "133408.321000", "133408.324000", "133408.327000", "133408.331000", "133408.334000", "133408.338000", "133408.341000", "133408.345000", "133428.262000", "133428.266000", "133428.269000", "133428.282000", "133428.285000", "133428.289000", "133428.292000", "133428.295000", "133428.299000", "133428.302000", "133428.305000", "133428.309000", "133428.312000", "133428.316000", "133428.319000", "133428.322000", "133428.326000", "133428.329000", "133428.332000", "133428.336000", "133448.262000", "133448.266000", "133448.269000", "133448.273000", "133448.276000", "133448.280000", "133448.283000", "133448.286000", "133448.290000", "133448.293000", "133448.297000", "133448.300000", "133448.304000", "133448.307000", "133448.310000", "133448.314000", "133448.317000", "133448.321000", "133448.324000", "133448.327000", "133508.262000", "133508.266000", "133508.269000", "133508.273000", "133508.276000", "133508.280000", "133508.283000", "133508.287000", "133508.290000", "133508.293000", "133508.297000", "133508.301000", "133508.304000", "133508.307000", "133508.311000", "133508.315000", "133508.318000", "133508.322000", "133508.325000", "133508.330000", "133528.263000", "133528.267000", "133528.270000", "133528.274000", "133528.278000", "133528.281000", "133528.284000", "133528.288000", "133528.291000", "133528.295000", "133528.298000", "133528.302000", "133528.305000", "133528.309000", "133528.312000", "133528.316000", "133528.319000", "133528.322000", "133528.326000", "133528.329000", "133528.333000", "133548.262000", "133548.266000", "133548.270000", "133548.273000", "133548.276000", "133548.280000", "133548.283000", "133548.287000", "133548.290000", "133548.294000", "133548.297000", "133548.300000", "133548.304000", "133548.307000", "133548.311000", "133548.314000", "133548.318000", "133548.321000", "133548.334000", "133628.262000", "133628.266000", "133628.269000", "133628.273000", "133628.276000", "133628.280000", "133628.283000", "133628.287000", "133628.290000", "133628.293000", "133628.297000", "133628.300000", "133628.304000", "133628.307000", "133628.311000", "133628.314000", "133628.318000", "133628.321000", "133628.324000", "133628.328000", "133628.331000", "133628.335000", "133628.338000", "133628.342000", "133628.345000", "133628.349000", "133628.352000", "133708.262000", "133708.266000", "133708.270000", "133708.273000", "133708.276000", "133708.280000", "133708.283000", "133708.287000", "133708.290000", "133708.294000", "133708.297000", "133708.301000", "133708.304000", "133708.308000", "133708.311000", "133708.314000", "133708.318000", "133708.321000", "133708.325000", "133708.328000", "133708.331000", "133708.335000", "133708.338000", "133708.342000", "133708.345000", "133708.349000", "133708.352000", "133748.262000", "133748.266000", "133748.270000", "133748.273000", "133748.277000", "133748.280000", "133748.284000", "133748.287000", "133748.291000", "133748.295000", "133748.301000", "133748.304000", "133748.308000", "133748.312000", "133748.316000", "133748.320000", "133748.323000", "133748.326000", "133748.330000", "133748.333000", "133748.337000", "133748.340000", "133748.344000", "133748.347000", "133748.350000", "133748.354000", "133828.262000", "133828.266000", "133828.270000", "133828.273000", "133828.277000", "133828.280000", "133828.283000", "133828.287000", "133828.290000", "133828.294000", "133828.297000", "133828.301000", "133828.304000", "133828.308000", "133828.311000", "133828.315000", "133828.318000", "133828.321000", "133828.325000", "133828.328000", "133828.332000", "133828.335000", "133828.338000", "133828.342000", "133828.345000", "133828.349000", "133828.352000", "133908.262000", "133908.266000", "133908.270000", "133908.273000", "133908.276000", "133908.280000", "133908.283000", "133908.287000", "133908.290000", "133908.294000", "133908.297000", "133908.301000", "133908.304000", "133908.308000", "133908.311000", "133908.314000", "133908.318000", "133908.321000", "133908.325000", "133908.328000", "133908.331000", "133908.335000", "133908.338000", "133908.342000", "133908.345000", "133908.349000", "133908.352000", "133948.262000", "133948.266000", "133948.270000", "133948.273000", "133948.277000", "133948.280000", "133948.283000", "133948.287000", "133948.290000", "133948.294000", "133948.297000", "133948.301000", "133948.304000", "133948.307000", "133948.311000", "133948.314000", "133948.318000", "133948.321000", "133948.325000", "133948.328000", "133948.332000", "133948.335000", "133948.338000", "133948.342000", "133948.345000", "133948.349000", "133948.352000", "134028.262000", "134028.266000", "134028.270000", "134028.273000", "134028.277000", "134028.280000", "134028.284000", "134028.287000", "134028.305000", "134028.309000", "134028.312000", "134028.316000", "134028.319000", "134028.323000", "134028.326000", "134028.329000", "134028.333000", "134028.336000", "134028.340000", "134028.343000", "134028.347000", "134028.350000", "134028.354000", "134028.357000", "134028.360000", "134028.364000", "134028.367000", "134108.262000", "134108.266000", "134108.270000", "134108.273000", "134108.276000", "134108.280000", "134108.283000", "134108.287000", "134108.290000", "134108.294000", "134108.297000", "134108.301000", "134108.304000", "134108.307000", "134108.311000", "134108.314000", "134108.318000", "134108.321000", "134108.325000", "134108.328000", "134108.332000", "134108.335000", "134108.338000", "134108.342000", "134108.345000", "134108.349000", "134108.360000", "134148.263000", "134148.270000", "134148.274000", "134148.277000", "134148.280000", "134148.284000", "134148.287000", "134148.291000", "134148.294000", "134148.298000", "134148.301000", "134148.305000", "134148.308000", "134148.312000", "134148.315000", "134148.319000", "134148.322000", "134148.326000", "134148.329000", "134148.332000", "134148.336000", "134148.339000", "134148.343000", "134148.346000", "134148.350000", "134148.353000", "134148.356000", "134228.262000", "134228.266000", "134228.270000", "134228.274000", "134228.278000", "134228.281000", "134228.284000", "134228.288000", "134228.291000", "134228.295000", "134228.298000", "134228.302000", "134228.305000", "134228.309000", "134228.312000", "134228.316000", "134228.319000", "134228.322000", "134228.326000", "134228.330000", "134228.333000", "134228.336000", "134228.341000", "134228.345000", "134228.348000", "134228.352000", "134308.262000", "134308.266000", "134308.270000", "134308.273000", "134308.277000", "134308.280000", "134308.283000", "134308.287000", "134308.290000", "134308.294000", "134308.297000", "134308.301000", "134308.304000", "134308.307000", "134308.311000", "134308.314000", "134308.318000", "134308.321000", "134308.324000", "134308.328000", "134308.331000", "134308.335000", "134308.338000", "134308.342000", "134308.345000", "134308.348000", "134308.352000", "134348.262000", "134348.266000", "134348.270000", "134348.273000", "134348.277000", "134348.280000", "134348.284000", "134348.287000", "134348.290000", "134348.294000", "134348.298000", "134348.301000", "134348.305000", "134348.308000", "134348.312000", "134348.315000", "134348.319000", "134348.322000", "134348.325000", "134348.329000", "134348.332000", "134348.336000", "134348.339000", "134348.343000", "134348.346000", "134348.350000", "134348.353000", "134425.239000", "134425.243000", "134425.246000", "134425.250000", "134425.253000", "134425.257000", "134425.260000", "134425.264000", "134425.267000", "134425.271000", "134425.274000", "134425.278000", "134425.281000", "134425.285000", "134425.289000", "134425.293000", "134425.297000", "134425.300000", "134425.304000", "134425.308000", "134425.311000", "134425.315000", "134425.318000", "134425.322000", "134425.326000"],
