{
  "AcquisitionMatrixPE": 104,
  "AcquisitionNumber": 1,
  "AcquisitionTime": "13:19:25.515000",
  "BandwidthPerPixelPhaseEncode": 17.17,
  "BaseResolution": 104,
  "BodyPartExamined": "BRAIN",
  "CoilCombinationMethod": "Sum of Squares",
  "ConsistencyInfo": "N4_VE11C_LATEST_20160120",
  "ConversionSoftware": "dcm2niix",
  "ConversionSoftwareVersion": "v1.0.20211006",
  "DerivedVendorReportedEchoSpacing": 0.000560011,
  "DeviceSerialNumber": "167006",
  "DwellTime": 2.1e-06,
  "EchoTime": 0.037,
  "EchoTrainLength": 104,
  "EffectiveEchoSpacing": 0.000560011,
  "FlipAngle": 52,
  "HeudiconvVersion": "0.10.0",
  "ImageComments": "Unaliased MB4/PE3/LB",
  "ImageOrientationPatientDICOM": [0.999707, 0.00762089, 0.0229538, 0.00436202, 0.876684, -0.481047],
  "ImageOrientationText": "Tra>Cor(-28.8)>Sag(1.4)",
  "ImageType": [
    "ORIGINAL",
    "PRIMARY",
    "M",
    "MB",
    "ND",
    "MOSAIC"
],
  "ImagingFrequency": 123.259,
  "InPlanePhaseEncodingDirectionDICOM": "COL",
  "InstitutionAddress": "Chemin Queen-Mary 4565,Montreal,District,CA,H3W 1W5",
  "InstitutionName": "IUGM",
  "InstitutionalDepartmentName": "Department",
  "MRAcquisitionType": "2D",
  "MagneticFieldStrength": 3,
  "Manufacturer": "Siemens",
  "ManufacturersModelName": "Prisma_fit",
  "MatrixCoilMode": "SENSE",
  "Modality": "MR",
  "MultibandAccelerationFactor": 4,
  "PartialFourier": 1,
  "PatientPosition": "HFS",
  "PercentPhaseFOV": 100,
  "PercentSampling": 100,
  "PhaseEncodingDirection": "j",
  "PhaseEncodingSteps": 104,
  "PhaseResolution": 1,
  "PixelBandwidth": 2290,
  "ProcedureStepDescription": "games^mario",
  "ProtocolName": "func_task-mario_run-01",
  "PulseSequenceDetails": "%CustomerSeq%\\cmrr_mbep2d_bold",
  "ReceiveCoilActiveElements": "HC1-7;NC1,2",
  "ReceiveCoilName": "HeadNeck_64",
  "ReconMatrixPE": 104,
  "RepetitionTime": 1.49,
  "SAR": 0.0617665,
  "ScanOptions": "FS",
  "ScanningSequence": "EP",
  "SequenceName": "epfid2d1_104",
  "SequenceVariant": "SK\\SS",
  "SeriesDescription": "func_task-mario_run-01",
  "SeriesNumber": 10,
  "ShimSetting": [616, -7184, -8859, 314, 3, -156, -49, -8],
  "SliceThickness": 2,
  "SliceTiming": [0, 0.7825, 0.0975, 0.8825, 0.195, 0.98, 0.2925, 1.0775, 0.3925, 1.175, 0.49, 1.2725, 0.5875, 1.3725, 0.685, 0, 0.7825, 0.0975, 0.8825, 0.195, 0.98, 0.2925, 1.0775, 0.3925, 1.175, 0.49, 1.2725, 0.5875, 1.3725, 0.685, 0, 0.7825, 0.0975, 0.8825, 0.195, 0.98, 0.2925, 1.0775, 0.3925, 1.175, 0.49, 1.2725, 0.5875, 1.3725, 0.685, 0, 0.7825, 0.0975, 0.8825, 0.195, 0.98, 0.2925, 1.0775, 0.3925, 1.175, 0.49, 1.2725, 0.5875, 1.3725, 0.685],
  "SoftwareVersions": "syngo MR E11",
  "SpacingBetweenSlices": 2,
  "StationName": "MRC35049",
  "TaskName": "mario",
  "TotalReadoutTime": 0.0576811,
  "TxRefAmp": 292.35,
  "WipMemBlock": "863000ce-9eac-4c65-b516-3929f827f543||Sequence: R016 ve11c/master r/e634e98; Dec 19 2017 11:00:25 by eja",
  "dcmmeta_affine": [
    [-1.9994149208068848, 0.008724045008420944, 0.04757844656705856, 104.82805633544922],
    [-0.015241787768900394, 1.7533674240112305, -0.9620136022567749, -52.70093536376953],
    [0.04590757563710213, 0.962094783782959, 1.7527880668640137, -95.80907440185547],
    [0.0, 0.0, 0.0, 1.0]
],
  "dcmmeta_reorient_transform": [
    [0.0, -1.0, 0.0, 103.0],
    [1.0, 0.0, 0.0, 0.0],
    [0.0, 0.0, 1.0, 0.0],
    [0.0, 0.0, 0.0, 1.0]
],
  "dcmmeta_shape": [104, 104, 60, 461],
  "dcmmeta_slice_dim": 2,
  "dcmmeta_version": 0.6,
  "global": {
    "const": {
      "AcquisitionMatrix": [104, 0, 0, 104],
      "AngioFlag": "N",
      "BitsAllocated": 16,
      "BitsStored": 16,
      "BodyPartExamined": "BRAIN",
      "Columns": 832,
      "EchoNumbers": 1,
      "EchoTime": 37.0,
      "EchoTrainLength": 104,
      "FlipAngle": 52.0,
      "HighBit": 15,
      "ImageOrientationPatient": [0.99970748000563, 0.00762089376109, 0.02295378833826, 0.00436202239732, 0.87668373878418, -0.4810473936235],
      "ImagePositionPatient": [-836.68923426437, -771.66968837801, 336.77883427875],
      "ImageType": [
        "ORIGINAL",
        "PRIMARY",
        "M",
        "MB",
        "ND",
        "MOSAIC"
],
      "ImagedNucleus": "1H",
      "ImagingFrequency": 123.258886,
      "InPlanePhaseEncodingDirection": "COL",
      "MRAcquisitionType": "2D",
      "MagneticFieldStrength": 3.0,
      "Manufacturer": "SIEMENS",
      "ManufacturerModelName": "Prisma_fit",
      "Modality": "MR",
      "NumberOfAverages": 1.0,
      "NumberOfPhaseEncodingSteps": 104,
      "PercentPhaseFieldOfView": 100.0,
      "PercentSampling": 100.0,
      "PerformedProcedureStepStartTime": "125019.919000",
      "PhotometricInterpretation": "MONOCHROME2",
      "PixelBandwidth": 2290.0,
      "PixelRepresentation": 0,
      "PixelSpacing": [2.0, 2.0],
      "ProtocolName": "func_task-mario_run-01",
      "RepetitionTime": 1490.0,
      "Rows": 832,
      "SAR": 0.06176649247625,
      "SamplesPerPixel": 1,
      "ScanOptions": "FS",
      "ScanningSequence": "EP",
      "SequenceName": "epfid2d1_104",
      "SequenceVariant": [
        "SK",
        "SS"
],
      "SeriesDescription": "func_task-mario_run-01",
      "SeriesNumber": 10,
      "SeriesTime": "132054.110000",
      "SliceLocation": -56.123215685119,
      "SliceThickness": 2.0,
      "SmallestImagePixelValue": 0,
      "SoftwareVersions": "syngo MR E11",
      "SpacingBetweenSlices": 1.999999991589,
      "SpecificCharacterSet": "ISO_IR 100",
      "StudyID": "1",
      "StudyTime": "125019.797000",
      "TransmitCoilName": "Body",
      "VariableFlipAngleFlag": "N",
      "WindowCenterWidthExplanation": "Algo1",
      "dBdt": 0.0},
    "slices": {}
  },
  "time": {
    "samples": {
      "AcquisitionNumber": [1, 2, 3, 4, 5, 6, 7, 8, 9, 10, 11, 12, 13, 14, 15, 16, 17, 18, 19, 20, 21, 22, 23, 24, 25, 26, 27, 28, 29, 30, 31, 32, 33, 34, 35, 36, 37, 38, 39, 40, 41, 42, 43, 44, 45, 46, 47, 48, 49, 50, 51, 52, 53, 54, 55, 56, 57, 58, 59, 60, 61, 62, 63, 64, 65, 66, 67, 68, 69, 70, 71, 72, 73, 74, 75, 76, 77, 78, 79, 80, 81, 82, 83, 84, 85, 86, 87, 88, 89, 90, 91, 92, 93, 94, 95, 96, 97, 98, 99, 100, 101, 102, 103, 104, 105, 106, 107, 108, 109, 110, 111, 112, 113, 114, 115, 116, 117, 118, 119, 120, 121, 122, 123, 124, 125, 126, 127, 128, 129, 130, 131, 132, 133, 134, 135, 136, 137, 138, 139, 140, 141, 142, 143, 144, 145, 146, 147, 148, 149, 150, 151, 152, 153, 154, 155, 156, 157, 158, 159, 160, 161, 162, 163, 164, 165, 166, 167, 168, 169, 170, 171, 172, 173, 174, 175, 176, 177, 178, 179, 180, 181, 182, 183, 184, 185, 186, 187, 188, 189, 190, 191, 192, 193, 194, 195, 196, 197, 198, 199, 200, 201, 202, 203, 204, 205, 206, 207, 208, 209, 210, 211, 212, 213, 214, 215, 216, 217, 218, 219, 220, 221, 222, 223, 224, 225, 226, 227, 228, 229, 230, 231, 232, 233, 234, 235, 236, 237, 238, 239, 240, 241, 242, 243, 244, 245, 246, 247, 248, 249, 250, 251, 252, 253, 254, 255, 256, 257, 258, 259, 260, 261, 262, 263, 264, 265, 266, 267, 268, 269, 270, 271, 272, 273, 274, 275, 276, 277, 278, 279, 280, 281, 282, 283, 284, 285, 286, 287, 288, 289, 290, 291, 292, 293, 294, 295, 296, 297, 298, 299, 300, 301, 302, 303, 304, 305, 306, 307, 308, 309, 310, 311, 312, 313, 314, 315, 316, 317, 318, 319, 320, 321, 322, 323, 324, 325, 326, 327, 328, 329, 330, 331, 332, 333, 334, 335, 336, 337, 338, 339, 340, 341, 342, 343, 344, 345, 346, 347, 348, 349, 350, 351, 352, 353, 354, 355, 356, 357, 358, 359, 360, 361, 362, 363, 364, 365, 366, 367, 368, 369, 370, 371, 372, 373, 374, 375, 376, 377, 378, 379, 380, 381, 382, 383, 384, 385, 386, 387, 388, 389, 390, 391, 392, 393, 394, 395, 396, 397, 398, 399, 400, 401, 402, 403, 404, 405, 406, 407, 408, 409, 410, 411, 412, 413, 414, 415, 416, 417, 418, 419, 420, 421, 422, 423, 424, 425, 426, 427, 428, 429, 430, 431, 432, 433, 434, 435, 436, 437, 438, 439, 440, 441, 442, 443, 444, 445, 446, 447, 448, 449, 450, 451, 452, 453, 454, 455, 456, 457, 458, 459, 460, 461],
      "AcquisitionTime": ["131925.515000", "131927.005000", "131928.495000", "131929.985000", "131931.475000", "131932.965000", "131934.455000", "131935.945000", "131937.435000", "131938.925000", "131940.415000", "131941.905000", "131943.395000", "131944.885000", "131946.375000", "131947.865000", "131949.355000", "131950.845000", "131952.335000", "131953.825000", "131955.315000", "131956.805000", "131958.295000", "131959.785000", "132001.275000", "132002.765000", "132004.255000", "132005.745000", "132007.235000", "132008.725000", "132010.215000", "132011.705000", "132013.195000", "132014.685000", "132016.175000", "132017.665000", "132019.155000", "132020.645000", "132022.135000", "132023.625000", "132025.115000", "132026.605000", "132028.095000", "132029.585000", "132031.075000", "132032.565000", "132034.055000", "132035.545000", "132037.035000", "132038.525000", "132040.015000", "132041.505000", "132042.995000", "132044.485000", "132045.975000", "132047.465000", "132048.955000", "132050.445000", "132051.935000", "132053.425000", "132054.915000", "132056.405000", "132057.895000", "132059.385000", "132100.875000", "132102.365000", "132103.855000", "132105.345000", "132106.835000", "132108.325000", "132109.815000", "132111.305000", "132112.795000", "132114.285000", "132115.775000", "132117.265000", "132118.755000", "132120.245000", "132121.735000", "132123.225000", "132124.715000", "132126.205000", "132127.695000", "132129.185000", "132130.675000", "132132.165000", "132133.655000", "132135.145000", "132136.635000", "132138.125000", "132139.615000", "132141.105000", "132142.595000", "132144.085000", "132145.575000", "132147.065000", "132148.555000", "132150.045000", "132151.535000", "132153.025000", "132154.515000", "132156.005000", "132157.495000", "132158.985000", "132200.475000", "132201.965000", "132203.455000", "132204.945000", "132206.435000", "132207.925000", "132209.415000", "132210.905000", "132212.395000", "132213.885000", "132215.375000", "132216.865000", "132218.355000", "132219.845000", "132221.335000", "132222.825000", "132224.315000", "132225.805000", "132227.295000", "132228.785000", "132230.275000", "132231.765000", "132233.255000", "132234.745000", "132236.235000", "132237.725000", "132239.215000", "132240.705000", "132242.195000", "132243.685000", "132245.175000", "132246.665000", "132248.155000", "132249.645000", "132251.135000", "132252.625000", "132254.115000", "132255.605000", "132257.095000", "132258.585000", "132300.075000", "132301.565000", "132303.055000", "132304.545000", "132306.035000", "132307.525000", "132309.015000", "132310.505000", "132311.995000", "132313.485000", "132314.975000", "132316.465000", "132317.955000", "132319.445000", "132320.935000", "132322.425000", "132323.915000", "132325.405000", "132326.895000", "132328.385000", "132329.875000", "132331.365000", "132332.855000", "132334.345000", "132335.835000", "132337.325000", "132338.815000", "132340.305000", "132341.795000", "132343.285000", "132344.775000", "132346.265000", "132347.755000", "132349.245000", "132350.735000", "132352.225000", "132353.715000", "132355.205000", "132356.695000", "132358.185000", "132359.675000", "132401.165000", "132402.655000", "132404.145000", "132405.635000", "132407.125000", "132408.615000", "132410.105000", "132411.595000", "132413.085000", "132414.575000", "132416.065000", "132417.555000", "132419.045000", "132420.535000", "132422.025000", "132423.515000", "132425.005000", "132426.495000", "132427.985000", "132429.475000", "132430.965000", "132432.455000", "132433.945000", "132435.435000", "132436.925000", "132438.415000", "132439.905000", "132441.395000", "132442.885000", "132444.375000", "132445.865000", "132447.355000", "132448.845000", "132450.335000", "132451.825000", "132453.315000", "132454.805000", "132456.295000", "132457.785000", "132459.275000", "132500.765000", "132502.255000", "132503.745000", "132505.235000", "132506.725000", "132508.215000", "132509.705000", "132511.195000", "132512.685000", "132514.175000", "132515.665000", "132517.155000", "132518.645000", "132520.135000", "132521.625000", "132523.115000", "132524.605000", "132526.095000", "132527.585000", "132529.075000", "132530.565000", "132532.055000", "132533.545000", "132535.035000", "132536.525000", "132538.015000", "132539.505000", "132540.995000", "132542.485000", "132543.975000", "132545.465000", "132546.955000", "132548.445000", "132549.935000", "132551.425000", "132552.915000", "132554.405000", "132555.895000", "132557.385000", "132558.875000", "132600.365000", "132601.855000", "132603.345000", "132604.835000", "132606.325000", "132607.815000", "132609.305000", "132610.795000", "132612.285000", "132613.775000", "132615.265000", "132616.755000", "132618.245000", "132619.735000", "132621.225000", "132622.715000", "132624.205000", "132625.695000", "132627.185000", "132628.675000", "132630.165000", "132631.655000", "132633.145000", "132634.635000", "132636.125000", "132637.615000", "132639.105000", "132640.595000", "132642.085000", "132643.575000", "132645.065000", "132646.555000", "132648.045000", "132649.535000", "132651.025000", "132652.515000", "132654.005000", "132655.495000", "132656.985000", "132658.475000", "132659.965000", "132701.455000", "132702.945000", "132704.435000", "132705.925000", "132707.415000", "132708.905000", "132710.395000", "132711.885000", "132713.375000", "132714.865000", "132716.355000", "132717.845000", "132719.335000", "132720.825000", "132722.315000", "132723.805000", "132725.295000", "132726.785000", "132728.275000", "132729.765000", "132731.255000", "132732.745000", "132734.235000", "132735.725000", "132737.215000", "132738.705000", "132740.195000", "132741.685000", "132743.175000", "132744.665000", "132746.155000", "132747.645000", "132749.135000", "132750.625000", "132752.115000", "132753.605000", "132755.095000", "132756.585000", "132758.075000", "132759.565000", "132801.055000", "132802.545000", "132804.035000", "132805.525000", "132807.015000", "132808.505000", "132809.995000", "132811.485000", "132812.975000", "132814.465000", "132815.955000", "132817.445000", "132818.935000", "132820.425000", "132821.915000", "132823.405000", "132824.895000", "132826.385000", "132827.875000", "132829.365000", "132830.855000", "132832.345000", "132833.835000", "132835.325000", "132836.815000", "132838.305000", "132839.795000", "132841.285000", "132842.775000", "132844.265000", "132845.755000", "132847.245000", "132848.735000", "132850.225000", "132851.715000", "132853.205000", "132854.695000", "132856.185000", "132857.675000", "132859.165000", "132900.655000", "132902.145000", "132903.635000", "132905.125000", "132906.615000", "132908.105000", "132909.595000", "132911.085000", "132912.575000", "132914.065000", "132915.555000", "132917.045000", "132918.535000", "132920.025000", "132921.515000", "132923.005000", "132924.495000", "132925.985000", "132927.475000", "132928.965000", "132930.455000", "132931.945000", "132933.435000", "132934.925000", "132936.415000", "132937.905000", "132939.395000", "132940.885000", "132942.375000", "132943.865000", "132945.355000", "132946.845000", "132948.335000", "132949.825000", "132951.315000", "132952.805000", "132954.295000", "132955.785000", "132957.275000", "132958.765000", "133000.255000", "133001.745000", "133003.235000", "133004.725000", "133006.215000", "133007.705000", "133009.195000", "133010.685000", "133012.175000", "133013.665000", "133015.155000", "133016.645000", "133018.135000", "133019.625000", "133021.115000", "133022.605000", "133024.095000", "133025.585000", "133027.075000", "133028.565000", "133030.055000", "133031.545000", "133033.035000", "133034.525000", "133036.015000", "133037.505000", "133038.995000", "133040.485000", "133041.975000", "133043.465000", "133044.955000", "133046.445000", "133047.935000", "133049.425000", "133050.915000"],
      "ContentTime": ["132054.113000", "132054.117000", "132054.120000", "132054.124000", "132054.127000", "132054.131000", "132054.134000", "132054.138000", "132054.141000", "132054.144000", "132054.148000", "132054.151000", "132054.154000", "132054.158000", "132054.162000", "132054.165000", "132054.168000", "132054.172000", "132054.175000", "132054.188000", "132054.191000", "132054.195000", "132054.198000", "132054.201000", "132054.205000", "132054.208000", "132054.212000", "132054.215000", "132054.218000", "132054.222000", "132054.225000", "132054.229000", "132054.232000", "132054.236000", "132054.239000", "132114.072000", "132114.076000", "132114.079000", "132114.083000", "132114.086000", "132114.090000", "132114.093000", "132114.096000", "132114.100000", "132114.103000", "132114.106000", "132114.110000", "132114.113000", "132114.117000", "132114.120000", "132114.123000", "132114.127000", "132114.130000", "132114.134000", "132114.137000", "132134.072000", "132134.076000", "132134.079000", "132134.083000", "132134.086000", "132134.090000", "132134.093000", "132134.096000", "132134.100000", "132134.103000", "132134.107000", "132134.110000", "132134.113000", "132134.117000", "132134.120000", "132134.124000", "132134.127000", "132134.130000", "132134.134000", "132134.137000", "132154.071000", "132154.075000", "132154.079000", "132154.082000", "132154.085000", "132154.089000", "132154.092000", "132154.095000", "132154.099000", "132154.102000", "132154.106000", "132154.109000", "132154.112000", "132154.116000", "132154.119000", "132154.123000", "132154.126000", "132154.130000", "132154.133000", "132154.137000", "132234.071000", "132234.094000", "132234.097000", "132234.101000", "132234.104000", "132234.107000", "132234.111000", "132234.114000", "132234.118000", "132234.121000", "132234.125000", "132234.128000", "132234.131000", "132234.135000", "132234.138000", "132234.142000", "132234.145000", "132234.149000", "132234.152000", "132234.155000", "132234.159000", "132234.162000", "132234.166000", "132234.169000", "132234.173000", "132234.176000", "132234.180000", "132234.183000", "132234.186000", "132234.190000", "132234.193000", "132254.072000", "132254.076000", "132254.079000", "132254.083000", "132254.086000", "132254.090000", "132254.093000", "132254.097000", "132254.100000", "132254.103000", "132254.107000", "132254.111000", "132254.114000", "132334.072000", "132334.076000", "132334.080000", "132334.083000", "132334.086000", "132334.090000", "132334.093000", "132334.096000", "132334.100000", "132334.103000", "132334.107000", "132334.110000", "132334.113000", "132334.117000", "132334.120000", "132334.124000", "132334.127000", "132334.131000", "132334.134000", "132334.138000", "132334.141000", "132334.144000", "132334.148000", "132334.151000", "132334.155000", "132334.158000", "132334.162000", "132414.071000", "132414.075000", "132414.078000", "132414.082000", "132414.085000", "132414.089000", "132414.092000", "132414.096000", "132414.099000", "132414.102000", "132414.106000", "132414.109000", "132414.113000", "132414.116000", "132414.119000", "132414.123000", "132414.126000", "132414.130000", "132414.133000", "132414.136000", "132414.140000", "132414.143000", "132414.147000", "132414.150000", "132414.171000", "132414.174000", "132414.178000", "132454.071000", "132454.075000", "132454.079000", "132454.082000", "132454.086000", "132454.089000", "132454.093000", "132454.096000", "132454.099000", "132454.103000", "132454.106000", "132454.110000", "132454.113000", "132454.117000", "132454.120000", "132454.123000", "132454.127000", "132454.130000", "132454.134000", "132454.137000", "132454.140000", "132454.144000", "132454.147000", "132454.151000", "132454.154000", "132454.158000", "132454.161000", "132534.072000", "132534.076000", "132534.080000", "132534.084000", "132534.088000", "132534.091000", "132534.095000", "132534.098000", "132534.102000", "132534.105000", "132534.108000", "132534.112000", "132534.116000", "132534.119000", "132534.122000", "132534.126000", "132534.129000", "132534.133000", "132534.136000", "132534.140000", "132534.143000", "132534.147000", "132534.150000", "132534.154000", "132534.157000", "132534.160000", "132614.072000", "132614.076000", "132614.079000", "132614.083000", "132614.086000", "132614.090000", "132614.093000", "132614.097000", "132614.100000", "132614.103000", "132614.107000", "132614.118000", "132614.121000", "132614.125000", "132614.128000", "132614.132000", "132614.135000", "132614.138000", "132614.142000", "132614.145000", "132614.149000", "132614.152000", "132614.155000", "132614.159000", "132614.162000", "132614.166000", "132614.169000", "132654.071000", "132654.075000", "132654.079000", "132654.082000", "132654.086000", "132654.089000", "132654.100000", "132654.105000", "132654.108000", "132654.112000", "132654.115000", "132654.119000", "132654.122000", "132654.126000", "132654.129000", "132654.132000", "132654.136000", "132654.139000", "132654.143000", "132654.146000", "132654.150000", "132654.153000", "132654.157000", "132654.160000", "132654.163000", "132654.167000", "132654.170000", "132734.072000", "132734.076000", "132734.080000", "132734.083000", "132734.087000", "132734.090000", "132734.093000", "132734.105000", "132734.109000", "132734.112000", "132734.115000", "132734.119000", "132734.122000", "132734.126000", "132734.129000", "132734.133000", "132734.136000", "132734.140000", "132734.143000", "132734.146000", "132734.150000", "132734.153000", "132734.157000", "132734.160000", "132734.164000", "132734.167000", "132734.170000", "132814.072000", "132814.076000", "132814.080000", "132814.083000", "132814.087000", "132814.090000", "132814.094000", "132814.097000", "132814.100000", "132814.104000", "132814.107000", "132814.111000", "132814.114000", "132814.118000", "132814.121000", "132814.124000", "132814.128000", "132814.131000", "132814.135000", "132814.138000", "132814.141000", "132814.145000", "132814.148000", "132814.152000", "132814.155000", "132814.159000", "132814.162000", "132854.071000", "132854.075000", "132854.078000", "132854.082000", "132854.086000", "132854.089000", "132854.092000", "132854.096000", "132854.099000", "132854.103000", "132854.106000", "132854.110000", "132854.113000", "132854.116000", "132854.120000", "132854.126000", "132854.130000", "132854.133000", "132854.137000", "132854.140000", "132854.144000", "132854.147000", "132854.150000", "132854.154000", "132854.159000", "132854.177000", "132854.180000", "132934.072000", "132934.076000", "132934.080000", "132934.083000", "132934.087000", "132934.090000", "132934.094000", "132934.097000", "132934.101000", "132934.104000", "132934.108000", "132934.112000", "132934.116000", "132934.119000", "132934.123000", "132934.127000", "132934.131000", "132934.135000", "132934.138000", "132934.142000", "132934.145000", "132934.149000", "132934.152000", "132934.156000", "132934.159000", "132934.163000", "133014.072000", "133014.076000", "133014.080000", "133014.083000", "133014.086000", "133014.090000", "133014.093000", "133014.097000", "133014.100000", "133014.104000", "133014.107000", "133014.110000", "133014.114000", "133014.117000", "133014.121000", "133014.124000", "133014.127000", "133014.131000", "133014.134000", "133014.138000", "133014.141000", "133014.145000", "133014.148000", "133014.151000", "133014.155000", "133014.158000", "133014.162000", "133054.072000", "133054.076000", "133054.080000", "133054.083000", "133054.087000", "133054.090000", "133054.095000", "133054.104000", "133054.110000", "133054.116000", "133054.120000", "133054.124000", "133054.128000", "133054.132000", "133054.136000", "133054.139000", "133054.144000", "133054.149000", "133054.153000", "133054.157000", "133054.161000", "133054.164000", "133054.168000", "133054.172000", "133054.176000", "133054.180000", "133054.184000"],
