{
  "AcquisitionMatrixPE": 104,
  "AcquisitionNumber": 1,
  "AcquisitionTime": "13:19:25.515000",
  "BandwidthPerPixelPhaseEncode": 17.17,
  "BaseResolution": 104,
  "BodyPartExamined": "BRAIN",
  "CoilCombinationMethod": "Sum of Squares",
  "ConsistencyInfo": "N4_VE11C_LATEST_20160120",
  "ConversionSoftware": "dcm2niix",
  "ConversionSoftwareVersion": "v1.0.20211006",
  "DerivedVendorReportedEchoSpacing": 0.000560011,
  "DeviceSerialNumber": "167006",
  "DwellTime": 2.1e-06,
  "EchoTime": 0.037,
  "EchoTime1": 0.037,
  "EchoTime2": 0.001,
  "EchoTrainLength": 104,
  "EffectiveEchoSpacing": 0.000560011,
  "FlipAngle": 52,
  "HeudiconvVersion": "0.10.0",
  "ImageComments": "Unaliased MB4/PE3/LB",
  "ImageOrientationPatientDICOM": [0.999707, 0.00762089, 0.0229538, 0.00436202, 0.876684, -0.481047],
  "ImageOrientationText": "Tra>Cor(-28.8)>Sag(1.4)",
  "ImageType": [
    "ORIGINAL",
    "PRIMARY",
    "P",
    "MB",
    "ND",
    "MOSAIC",
    "PHASE"
],
  "ImagingFrequency": 123.259,
  "InPlanePhaseEncodingDirectionDICOM": "COL",
  "InstitutionAddress": "Chemin Queen-Mary 4565,Montreal,District,CA,H3W 1W5",
  "InstitutionName": "IUGM",
  "InstitutionalDepartmentName": "Department",
  "MRAcquisitionType": "2D",
  "MagneticFieldStrength": 3,
  "Manufacturer": "Siemens",
  "ManufacturersModelName": "Prisma_fit",
  "MatrixCoilMode": "SENSE",
  "Modality": "MR",
  "MultibandAccelerationFactor": 4,
  "PartialFourier": 1,
  "PatientPosition": "HFS",
  "PercentPhaseFOV": 100,
  "PercentSampling": 100,
  "PhaseEncodingDirection": "j",
  "PhaseEncodingSteps": 104,
  "PhaseResolution": 1,
  "PixelBandwidth": 2290,
  "ProcedureStepDescription": "games^mario",
  "ProtocolName": "func_task-mario_run-01",
  "PulseSequenceDetails": "%CustomerSeq%\\cmrr_mbep2d_bold",
  "ReceiveCoilActiveElements": "HC1-7;NC1,2",
  "ReceiveCoilName": "HeadNeck_64",
  "ReconMatrixPE": 104,
  "RepetitionTime": 1.49,
  "SAR": 0.0617665,
  "ScanOptions": "FS",
  "ScanningSequence": "EP",
  "SequenceName": "epfid2d1_104",
  "SequenceVariant": "SK\\SS",
  "SeriesDescription": "func_task-mario_run-01",
  "SeriesNumber": 11,
  "ShimSetting": [616, -7184, -8859, 314, 3, -156, -49, -8],
  "SliceThickness": 2,
  "SliceTiming": [0, 0.7825, 0.0975, 0.8825, 0.195, 0.98, 0.2925, 1.0775, 0.3925, 1.175, 0.49, 1.2725, 0.5875, 1.3725, 0.685, 0, 0.7825, 0.0975, 0.8825, 0.195, 0.98, 0.2925, 1.0775, 0.3925, 1.175, 0.49, 1.2725, 0.5875, 1.3725, 0.685, 0, 0.7825, 0.0975, 0.8825, 0.195, 0.98, 0.2925, 1.0775, 0.3925, 1.175, 0.49, 1.2725, 0.5875, 1.3725, 0.685, 0, 0.7825, 0.0975, 0.8825, 0.195, 0.98, 0.2925, 1.0775, 0.3925, 1.175, 0.49, 1.2725, 0.5875, 1.3725, 0.685],
  "SoftwareVersions": "syngo MR E11",
  "SpacingBetweenSlices": 2,
  "StationName": "MRC35049",
  "TaskName": "mario",
  "TotalReadoutTime": 0.0576811,
  "TxRefAmp": 292.35,
  "WipMemBlock": "863000ce-9eac-4c65-b516-3929f827f543||Sequence: R016 ve11c/master r/e634e98; Dec 19 2017 11:00:25 by eja",
  "dcmmeta_affine": [
    [-1.9994149208068848, 0.008724045008420944, 0.04757844656705856, 104.82805633544922],
    [-0.015241787768900394, 1.7533674240112305, -0.9620136022567749, -52.70093536376953],
    [0.04590757563710213, 0.962094783782959, 1.7527880668640137, -95.80907440185547],
    [0.0, 0.0, 0.0, 1.0]
],
  "dcmmeta_reorient_transform": [
    [0.0, -1.0, 0.0, 103.0],
    [1.0, 0.0, 0.0, 0.0],
    [0.0, 0.0, 1.0, 0.0],
    [0.0, 0.0, 0.0, 1.0]
],
  "dcmmeta_shape": [104, 104, 60, 461],
  "dcmmeta_slice_dim": 2,
  "dcmmeta_version": 0.6,
  "global": {
    "const": {
      "AcquisitionMatrix": [104, 0, 0, 104],
      "AngioFlag": "N",
      "BitsAllocated": 16,
      "BitsStored": 16,
      "BodyPartExamined": "BRAIN",
      "Columns": 832,
      "EchoNumbers": 1,
      "EchoTime": 37.0,
      "EchoTrainLength": 104,
      "FlipAngle": 52.0,
      "HighBit": 15,
      "ImageOrientationPatient": [0.99970748000563, 0.00762089376109, 0.02295378833826, 0.00436202239732, 0.87668373878418, -0.4810473936235],
      "ImagePositionPatient": [-836.68923426437, -771.66968837801, 336.77883427875],
      "ImageType": [
        "ORIGINAL",
        "PRIMARY",
        "P",
        "MB",
        "ND",
        "MOSAIC"
],
      "ImagedNucleus": "1H",
      "ImagingFrequency": 123.258886,
      "InPlanePhaseEncodingDirection": "COL",
      "LargestImagePixelValue": 4095,
      "MRAcquisitionType": "2D",
      "MagneticFieldStrength": 3.0,
      "Manufacturer": "SIEMENS",
      "ManufacturerModelName": "Prisma_fit",
      "Modality": "MR",
      "NumberOfAverages": 1.0,
      "NumberOfPhaseEncodingSteps": 104,
      "PercentPhaseFieldOfView": 100.0,
      "PercentSampling": 100.0,
      "PerformedProcedureStepStartTime": "125019.919000",
      "PhotometricInterpretation": "MONOCHROME2",
      "PixelBandwidth": 2290.0,
      "PixelRepresentation": 0,
      "PixelSpacing": [2.0, 2.0],
      "ProtocolName": "func_task-mario_run-01",
      "RepetitionTime": 1490.0,
      "RescaleIntercept": -4096.0,
      "RescaleSlope": 2.0,
      "RescaleType": "US",
      "Rows": 832,
      "SAR": 0.06176649247625,
      "SamplesPerPixel": 1,
      "ScanOptions": "FS",
      "ScanningSequence": "EP",
      "SequenceName": "epfid2d1_104",
      "SequenceVariant": [
        "SK",
        "SS"
],
      "SeriesDescription": "func_task-mario_run-01",
      "SeriesNumber": 11,
      "SeriesTime": "132054.280000",
      "SliceLocation": -56.123215685119,
      "SliceThickness": 2.0,
      "SmallestImagePixelValue": 0,
      "SoftwareVersions": "syngo MR E11",
      "SpacingBetweenSlices": 1.999999991589,
      "SpecificCharacterSet": "ISO_IR 100",
      "StudyID": "1",
      "StudyTime": "125019.797000",
      "TransmitCoilName": "Body",
      "VariableFlipAngleFlag": "N",
      "WindowCenterWidthExplanation": "Algo1",
      "dBdt": 0.0},
    "slices": {}
  },
  "time": {
    "samples": {
      "AcquisitionNumber": [1, 2, 3, 4, 5, 6, 7, 8, 9, 10, 11, 12, 13, 14, 15, 16, 17, 18, 19, 20, 21, 22, 23, 24, 25, 26, 27, 28, 29, 30, 31, 32, 33, 34, 35, 36, 37, 38, 39, 40, 41, 42, 43, 44, 45, 46, 47, 48, 49, 50, 51, 52, 53, 54, 55, 56, 57, 58, 59, 60, 61, 62, 63, 64, 65, 66, 67, 68, 69, 70, 71, 72, 73, 74, 75, 76, 77, 78, 79, 80, 81, 82, 83, 84, 85, 86, 87, 88, 89, 90, 91, 92, 93, 94, 95, 96, 97, 98, 99, 100, 101, 102, 103, 104, 105, 106, 107, 108, 109, 110, 111, 112, 113, 114, 115, 116, 117, 118, 119, 120, 121, 122, 123, 124, 125, 126, 127, 128, 129, 130, 131, 132, 133, 134, 135, 136, 137, 138, 139, 140, 141, 142, 143, 144, 145, 146, 147, 148, 149, 150, 151, 152, 153, 154, 155, 156, 157, 158, 159, 160, 161, 162, 163, 164, 165, 166, 167, 168, 169, 170, 171, 172, 173, 174, 175, 176, 177, 178, 179, 180, 181, 182, 183, 184, 185, 186, 187, 188, 189, 190, 191, 192, 193, 194, 195, 196, 197, 198, 199, 200, 201, 202, 203, 204, 205, 206, 207, 208, 209, 210, 211, 212, 213, 214, 215, 216, 217, 218, 219, 220, 221, 222, 223, 224, 225, 226, 227, 228, 229, 230, 231, 232, 233, 234, 235, 236, 237, 238, 239, 240, 241, 242, 243, 244, 245, 246, 247, 248, 249, 250, 251, 252, 253, 254, 255, 256, 257, 258, 259, 260, 261, 262, 263, 264, 265, 266, 267, 268, 269, 270, 271, 272, 273, 274, 275, 276, 277, 278, 279, 280, 281, 282, 283, 284, 285, 286, 287, 288, 289, 290, 291, 292, 293, 294, 295, 296, 297, 298, 299, 300, 301, 302, 303, 304, 305, 306, 307, 308, 309, 310, 311, 312, 313, 314, 315, 316, 317, 318, 319, 320, 321, 322, 323, 324, 325, 326, 327, 328, 329, 330, 331, 332, 333, 334, 335, 336, 337, 338, 339, 340, 341, 342, 343, 344, 345, 346, 347, 348, 349, 350, 351, 352, 353, 354, 355, 356, 357, 358, 359, 360, 361, 362, 363, 364, 365, 366, 367, 368, 369, 370, 371, 372, 373, 374, 375, 376, 377, 378, 379, 380, 381, 382, 383, 384, 385, 386, 387, 388, 389, 390, 391, 392, 393, 394, 395, 396, 397, 398, 399, 400, 401, 402, 403, 404, 405, 406, 407, 408, 409, 410, 411, 412, 413, 414, 415, 416, 417, 418, 419, 420, 421, 422, 423, 424, 425, 426, 427, 428, 429, 430, 431, 432, 433, 434, 435, 436, 437, 438, 439, 440, 441, 442, 443, 444, 445, 446, 447, 448, 449, 450, 451, 452, 453, 454, 455, 456, 457, 458, 459, 460, 461],
      "AcquisitionTime": ["131925.515000", "131927.005000", "131928.495000", "131929.985000", "131931.475000", "131932.965000", "131934.455000", "131935.945000", "131937.435000", "131938.925000", "131940.415000", "131941.905000", "131943.395000", "131944.885000", "131946.375000", "131947.865000", "131949.355000", "131950.845000", "131952.335000", "131953.825000", "131955.315000", "131956.805000", "131958.295000", "131959.785000", "132001.275000", "132002.765000", "132004.255000", "132005.745000", "132007.235000", "132008.725000", "132010.215000", "132011.705000", "132013.195000", "132014.685000", "132016.175000", "132017.665000", "132019.155000", "132020.645000", "132022.135000", "132023.625000", "132025.115000", "132026.605000", "132028.095000", "132029.585000", "132031.075000", "132032.565000", "132034.055000", "132035.545000", "132037.035000", "132038.525000", "132040.015000", "132041.505000", "132042.995000", "132044.485000", "132045.975000", "132047.465000", "132048.955000", "132050.445000", "132051.935000", "132053.425000", "132054.915000", "132056.405000", "132057.895000", "132059.385000", "132100.875000", "132102.365000", "132103.855000", "132105.345000", "132106.835000", "132108.325000", "132109.815000", "132111.305000", "132112.795000", "132114.285000", "132115.775000", "132117.265000", "132118.755000", "132120.245000", "132121.735000", "132123.225000", "132124.715000", "132126.205000", "132127.695000", "132129.185000", "132130.675000", "132132.165000", "132133.655000", "132135.145000", "132136.635000", "132138.125000", "132139.615000", "132141.105000", "132142.595000", "132144.085000", "132145.575000", "132147.065000", "132148.555000", "132150.045000", "132151.535000", "132153.025000", "132154.515000", "132156.005000", "132157.495000", "132158.985000", "132200.475000", "132201.965000", "132203.455000", "132204.945000", "132206.435000", "132207.925000", "132209.415000", "132210.905000", "132212.395000", "132213.885000", "132215.375000", "132216.865000", "132218.355000", "132219.845000", "132221.335000", "132222.825000", "132224.315000", "132225.805000", "132227.295000", "132228.785000", "132230.275000", "132231.765000", "132233.255000", "132234.745000", "132236.235000", "132237.725000", "132239.215000", "132240.705000", "132242.195000", "132243.685000", "132245.175000", "132246.665000", "132248.155000", "132249.645000", "132251.135000", "132252.625000", "132254.115000", "132255.605000", "132257.095000", "132258.585000", "132300.075000", "132301.565000", "132303.055000", "132304.545000", "132306.035000", "132307.525000", "132309.015000", "132310.505000", "132311.995000", "132313.485000", "132314.975000", "132316.465000", "132317.955000", "132319.445000", "132320.935000", "132322.425000", "132323.915000", "132325.405000", "132326.895000", "132328.385000", "132329.875000", "132331.365000", "132332.855000", "132334.345000", "132335.835000", "132337.325000", "132338.815000", "132340.305000", "132341.795000", "132343.285000", "132344.775000", "132346.265000", "132347.755000", "132349.245000", "132350.735000", "132352.225000", "132353.715000", "132355.205000", "132356.695000", "132358.185000", "132359.675000", "132401.165000", "132402.655000", "132404.145000", "132405.635000", "132407.125000", "132408.615000", "132410.105000", "132411.595000", "132413.085000", "132414.575000", "132416.065000", "132417.555000", "132419.045000", "132420.535000", "132422.025000", "132423.515000", "132425.005000", "132426.495000", "132427.985000", "132429.475000", "132430.965000", "132432.455000", "132433.945000", "132435.435000", "132436.925000", "132438.415000", "132439.905000", "132441.395000", "132442.885000", "132444.375000", "132445.865000", "132447.355000", "132448.845000", "132450.335000", "132451.825000", "132453.315000", "132454.805000", "132456.295000", "132457.785000", "132459.275000", "132500.765000", "132502.255000", "132503.745000", "132505.235000", "132506.725000", "132508.215000", "132509.705000", "132511.195000", "132512.685000", "132514.175000", "132515.665000", "132517.155000", "132518.645000", "132520.135000", "132521.625000", "132523.115000", "132524.605000", "132526.095000", "132527.585000", "132529.075000", "132530.565000", "132532.055000", "132533.545000", "132535.035000", "132536.525000", "132538.015000", "132539.505000", "132540.995000", "132542.485000", "132543.975000", "132545.465000", "132546.955000", "132548.445000", "132549.935000", "132551.425000", "132552.915000", "132554.405000", "132555.895000", "132557.385000", "132558.875000", "132600.365000", "132601.855000", "132603.345000", "132604.835000", "132606.325000", "132607.815000", "132609.305000", "132610.795000", "132612.285000", "132613.775000", "132615.265000", "132616.755000", "132618.245000", "132619.735000", "132621.225000", "132622.715000", "132624.205000", "132625.695000", "132627.185000", "132628.675000", "132630.165000", "132631.655000", "132633.145000", "132634.635000", "132636.125000", "132637.615000", "132639.105000", "132640.595000", "132642.085000", "132643.575000", "132645.065000", "132646.555000", "132648.045000", "132649.535000", "132651.025000", "132652.515000", "132654.005000", "132655.495000", "132656.985000", "132658.475000", "132659.965000", "132701.455000", "132702.945000", "132704.435000", "132705.925000", "132707.415000", "132708.905000", "132710.395000", "132711.885000", "132713.375000", "132714.865000", "132716.355000", "132717.845000", "132719.335000", "132720.825000", "132722.315000", "132723.805000", "132725.295000", "132726.785000", "132728.275000", "132729.765000", "132731.255000", "132732.745000", "132734.235000", "132735.725000", "132737.215000", "132738.705000", "132740.195000", "132741.685000", "132743.175000", "132744.665000", "132746.155000", "132747.645000", "132749.135000", "132750.625000", "132752.115000", "132753.605000", "132755.095000", "132756.585000", "132758.075000", "132759.565000", "132801.055000", "132802.545000", "132804.035000", "132805.525000", "132807.015000", "132808.505000", "132809.995000", "132811.485000", "132812.975000", "132814.465000", "132815.955000", "132817.445000", "132818.935000", "132820.425000", "132821.915000", "132823.405000", "132824.895000", "132826.385000", "132827.875000", "132829.365000", "132830.855000", "132832.345000", "132833.835000", "132835.325000", "132836.815000", "132838.305000", "132839.795000", "132841.285000", "132842.775000", "132844.265000", "132845.755000", "132847.245000", "132848.735000", "132850.225000", "132851.715000", "132853.205000", "132854.695000", "132856.185000", "132857.675000", "132859.165000", "132900.655000", "132902.145000", "132903.635000", "132905.125000", "132906.615000", "132908.105000", "132909.595000", "132911.085000", "132912.575000", "132914.065000", "132915.555000", "132917.045000", "132918.535000", "132920.025000", "132921.515000", "132923.005000", "132924.495000", "132925.985000", "132927.475000", "132928.965000", "132930.455000", "132931.945000", "132933.435000", "132934.925000", "132936.415000", "132937.905000", "132939.395000", "132940.885000", "132942.375000", "132943.865000", "132945.355000", "132946.845000", "132948.335000", "132949.825000", "132951.315000", "132952.805000", "132954.295000", "132955.785000", "132957.275000", "132958.765000", "133000.255000", "133001.745000", "133003.235000", "133004.725000", "133006.215000", "133007.705000", "133009.195000", "133010.685000", "133012.175000", "133013.665000", "133015.155000", "133016.645000", "133018.135000", "133019.625000", "133021.115000", "133022.605000", "133024.095000", "133025.585000", "133027.075000", "133028.565000", "133030.055000", "133031.545000", "133033.035000", "133034.525000", "133036.015000", "133037.505000", "133038.995000", "133040.485000", "133041.975000", "133043.465000", "133044.955000", "133046.445000", "133047.935000", "133049.425000", "133050.915000"],
      "ContentTime": ["132054.283000", "132054.286000", "132054.288000", "132054.291000", "132054.293000", "132054.296000", "132054.298000", "132054.301000", "132054.303000", "132054.306000", "132054.309000", "132054.311000", "132054.314000", "132054.316000", "132054.319000", "132054.322000", "132054.324000", "132054.327000", "132054.329000", "132054.332000", "132054.335000", "132054.337000", "132054.340000", "132054.343000", "132054.346000", "132054.349000", "132054.352000", "132054.376000", "132054.379000", "132054.382000", "132054.384000", "132054.387000", "132054.389000", "132054.392000", "132054.394000", "132114.175000", "132114.178000", "132114.181000", "132114.183000", "132114.186000", "132114.188000", "132114.191000", "132114.193000", "132114.196000", "132114.199000", "132114.201000", "132114.204000", "132114.206000", "132114.209000", "132114.211000", "132114.214000", "132114.216000", "132114.219000", "132114.222000", "132114.224000", "132134.186000", "132134.189000", "132134.192000", "132134.195000", "132134.198000", "132134.200000", "132134.203000", "132134.206000", "132134.208000", "132134.211000", "132134.214000", "132134.216000", "132134.219000", "132134.222000", "132134.225000", "132134.227000", "132134.230000", "132134.232000", "132134.235000", "132134.238000", "132154.185000", "132154.188000", "132154.190000", "132154.193000", "132154.196000", "132154.198000", "132154.201000", "132154.203000", "132154.206000", "132154.209000", "132154.211000", "132154.214000", "132154.216000", "132154.219000", "132154.222000", "132154.224000", "132154.227000", "132154.229000", "132154.232000", "132154.234000", "132234.245000", "132234.247000", "132234.250000", "132234.253000", "132234.255000", "132234.258000", "132234.261000", "132234.263000", "132234.266000", "132234.268000", "132234.271000", "132234.274000", "132234.276000", "132234.279000", "132234.281000", "132234.284000", "132234.287000", "132234.289000", "132234.292000", "132234.294000", "132234.297000", "132234.300000", "132234.302000", "132234.305000", "132234.307000", "132234.311000", "132234.314000", "132234.316000", "132234.319000", "132234.321000", "132234.324000", "132254.158000", "132254.161000", "132254.163000", "132254.166000", "132254.169000", "132254.171000", "132254.174000", "132254.176000", "132254.179000", "132254.182000", "132254.184000", "132254.187000", "132254.189000", "132334.205000", "132334.208000", "132334.211000", "132334.213000", "132334.216000", "132334.219000", "132334.221000", "132334.224000", "132334.227000", "132334.230000", "132334.232000", "132334.235000", "132334.238000", "132334.240000", "132334.243000", "132334.245000", "132334.248000", "132334.251000", "132334.253000", "132334.256000", "132334.258000", "132334.261000", "132334.264000", "132334.266000", "132334.269000", "132334.271000", "132334.274000", "132414.224000", "132414.227000", "132414.230000", "132414.232000", "132414.235000", "132414.238000", "132414.240000", "132414.243000", "132414.245000", "132414.248000", "132414.250000", "132414.253000", "132414.256000", "132414.258000", "132414.261000", "132414.263000", "132414.266000", "132414.269000", "132414.271000", "132414.274000", "132414.276000", "132414.279000", "132414.281000", "132414.284000", "132414.287000", "132414.289000", "132414.292000", "132454.210000", "132454.213000", "132454.216000", "132454.218000", "132454.221000", "132454.223000", "132454.226000", "132454.229000", "132454.231000", "132454.234000", "132454.237000", "132454.239000", "132454.242000", "132454.244000", "132454.247000", "132454.250000", "132454.252000", "132454.255000", "132454.257000", "132454.260000", "132454.263000", "132454.265000", "132454.268000", "132454.270000", "132454.273000", "132454.276000", "132454.278000", "132534.219000", "132534.222000", "132534.225000", "132534.228000", "132534.230000", "132534.233000", "132534.236000", "132534.239000", "132534.242000", "132534.245000", "132534.247000", "132534.250000", "132534.252000", "132534.255000", "132534.258000", "132534.260000", "132534.263000", "132534.266000", "132534.268000", "132534.271000", "132534.273000", "132534.276000", "132534.279000", "132534.282000", "132534.284000", "132534.287000", "132614.225000", "132614.228000", "132614.231000", "132614.233000", "132614.236000", "132614.239000", "132614.241000", "132614.244000", "132614.246000", "132614.249000", "132614.251000", "132614.254000", "132614.257000", "132614.259000", "132614.262000", "132614.264000", "132614.267000", "132614.269000", "132614.272000", "132614.275000", "132614.277000", "132614.280000", "132614.283000", "132614.285000", "132614.288000", "132614.291000", "132614.293000", "132654.211000", "132654.213000", "132654.216000", "132654.219000", "132654.221000", "132654.224000", "132654.227000", "132654.229000", "132654.232000", "132654.234000", "132654.237000", "132654.240000", "132654.242000", "132654.245000", "132654.247000", "132654.250000", "132654.253000", "132654.255000", "132654.258000", "132654.260000", "132654.263000", "132654.265000", "132654.268000", "132654.271000", "132654.273000", "132654.276000", "132654.279000", "132734.636000", "132734.639000", "132734.642000", "132734.644000", "132734.647000", "132734.650000", "132734.652000", "132734.655000", "132734.657000", "132734.660000", "132734.662000", "132734.665000", "132734.668000", "132734.670000", "132734.673000", "132734.676000", "132734.678000", "132734.681000", "132734.683000", "132734.686000", "132734.689000", "132734.691000", "132734.694000", "132734.696000", "132734.699000", "132734.702000", "132734.704000", "132814.216000", "132814.219000", "132814.222000", "132814.224000", "132814.227000", "132814.229000", "132814.232000", "132814.235000", "132814.237000", "132814.240000", "132814.242000", "132814.245000", "132814.247000", "132814.250000", "132814.253000", "132814.255000", "132814.258000", "132814.260000", "132814.263000", "132814.266000", "132814.268000", "132814.271000", "132814.273000", "132814.276000", "132814.279000", "132814.281000", "132814.284000", "132854.230000", "132854.233000", "132854.235000", "132854.238000", "132854.241000", "132854.243000", "132854.246000", "132854.249000", "132854.251000", "132854.254000", "132854.256000", "132854.259000", "132854.262000", "132854.264000", "132854.267000", "132854.269000", "132854.272000", "132854.275000", "132854.277000", "132854.280000", "132854.283000", "132854.285000", "132854.288000", "132854.290000", "132854.293000", "132854.296000", "132854.298000", "132934.216000", "132934.219000", "132934.222000", "132934.224000", "132934.227000", "132934.230000", "132934.232000", "132934.235000", "132934.238000", "132934.240000", "132934.243000", "132934.245000", "132934.248000", "132934.251000", "132934.253000", "132934.256000", "132934.258000", "132934.261000", "132934.263000", "132934.266000", "132934.269000", "132934.271000", "132934.274000", "132934.277000", "132934.279000", "132934.282000", "133014.219000", "133014.222000", "133014.224000", "133014.227000", "133014.230000", "133014.232000", "133014.235000", "133014.237000", "133014.240000", "133014.243000", "133014.245000", "133014.248000", "133014.250000", "133014.253000", "133014.256000", "133014.258000", "133014.261000", "133014.263000", "133014.266000", "133014.269000", "133014.271000", "133014.274000", "133014.277000", "133014.279000", "133014.282000", "133014.284000", "133014.287000", "133054.235000", "133054.238000", "133054.241000", "133054.245000", "133054.248000", "133054.251000", "133054.254000", "133054.256000", "133054.259000", "133054.262000", "133054.264000", "133054.267000", "133054.270000", "133054.272000", "133054.275000", "133054.277000", "133054.280000", "133054.283000", "133054.285000", "133054.288000", "133054.290000", "133054.293000", "133054.296000", "133054.298000", "133054.301000", "133054.304000", "133054.306000"],
