{
  "AcquisitionMatrixPE": 104,
  "AcquisitionNumber": 1,
  "AcquisitionTime": "13:33:3.147500",
  "BandwidthPerPixelPhaseEncode": 17.17,
  "BaseResolution": 104,
  "BodyPartExamined": "BRAIN",
  "CoilCombinationMethod": "Sum of Squares",
  "ConsistencyInfo": "N4_VE11C_LATEST_20160120",
  "ConversionSoftware": "dcm2niix",
  "ConversionSoftwareVersion": "v1.0.20211006",
  "DerivedVendorReportedEchoSpacing": 0.000560011,
  "DeviceSerialNumber": "167006",
  "DwellTime": 2.1e-06,
  "EchoTime": 0.037,
  "EchoTime1": 0.037,
  "EchoTime2": 0.001,
  "EchoTrainLength": 104,
  "EffectiveEchoSpacing": 0.000560011,
  "FlipAngle": 52,
  "HeudiconvVersion": "0.10.0",
  "ImageComments": "Unaliased MB4/PE3/LB",
  "ImageOrientationPatientDICOM": [0.999707, 0.00762089, 0.0229538, 0.00436202, 0.876684, -0.481047],
  "ImageOrientationText": "Tra>Cor(-28.8)>Sag(1.4)",
  "ImageType": [
    "ORIGINAL",
    "PRIMARY",
    "P",
    "MB",
    "ND",
    "MOSAIC",
    "PHASE"
],
  "ImagingFrequency": 123.259,
  "InPlanePhaseEncodingDirectionDICOM": "COL",
  "InstitutionAddress": "Chemin Queen-Mary 4565,Montreal,District,CA,H3W 1W5",
  "InstitutionName": "IUGM",
  "InstitutionalDepartmentName": "Department",
  "MRAcquisitionType": "2D",
  "MagneticFieldStrength": 3,
  "Manufacturer": "Siemens",
  "ManufacturersModelName": "Prisma_fit",
  "MatrixCoilMode": "SENSE",
  "Modality": "MR",
  "MultibandAccelerationFactor": 4,
  "PartialFourier": 1,
  "PatientPosition": "HFS",
  "PercentPhaseFOV": 100,
  "PercentSampling": 100,
  "PhaseEncodingDirection": "j",
  "PhaseEncodingSteps": 104,
  "PhaseResolution": 1,
  "PixelBandwidth": 2290,
  "ProcedureStepDescription": "games^mario",
  "ProtocolName": "func_task-mario_run-02",
  "PulseSequenceDetails": "%CustomerSeq%\\cmrr_mbep2d_bold",
  "ReceiveCoilActiveElements": "HC1-7;NC1,2",
  "ReceiveCoilName": "HeadNeck_64",
  "ReconMatrixPE": 104,
  "RepetitionTime": 1.49,
  "SAR": 0.0617665,
  "ScanOptions": "FS",
  "ScanningSequence": "EP",
  "SequenceName": "epfid2d1_104",
  "SequenceVariant": "SK\\SS",
  "SeriesDescription": "func_task-mario_run-02",
  "SeriesNumber": 14,
  "ShimSetting": [616, -7184, -8859, 314, 3, -156, -49, -8],
  "SliceThickness": 2,
  "SliceTiming": [0, 0.785, 0.0975, 0.8825, 0.1975, 0.98, 0.295, 1.0775, 0.3925, 1.1775, 0.49, 1.275, 0.5875, 1.3725, 0.6875, 0, 0.785, 0.0975, 0.8825, 0.1975, 0.98, 0.295, 1.0775, 0.3925, 1.1775, 0.49, 1.275, 0.5875, 1.3725, 0.6875, 0, 0.785, 0.0975, 0.8825, 0.1975, 0.98, 0.295, 1.0775, 0.3925, 1.1775, 0.49, 1.275, 0.5875, 1.3725, 0.6875, 0, 0.785, 0.0975, 0.8825, 0.1975, 0.98, 0.295, 1.0775, 0.3925, 1.1775, 0.49, 1.275, 0.5875, 1.3725, 0.6875],
  "SoftwareVersions": "syngo MR E11",
  "SpacingBetweenSlices": 2,
  "StationName": "MRC35049",
  "TaskName": "mario",
  "TotalReadoutTime": 0.0576811,
  "TxRefAmp": 292.35,
  "WipMemBlock": "1dd542c1-d11e-4e7c-af21-a3d9c2f02952||Sequence: R016 ve11c/master r/e634e98; Dec 19 2017 11:00:25 by eja",
  "dcmmeta_affine": [
    [-1.9994149208068848, 0.008724045008420944, 0.04757844656705856, 104.82805633544922],
    [-0.015241787768900394, 1.7533674240112305, -0.9620136022567749, -52.70093536376953],
    [0.04590757563710213, 0.962094783782959, 1.7527880668640137, -95.80907440185547],
    [0.0, 0.0, 0.0, 1.0]
],
  "dcmmeta_reorient_transform": [
    [0.0, -1.0, 0.0, 103.0],
    [1.0, 0.0, 0.0, 0.0],
    [0.0, 0.0, 1.0, 0.0],
    [0.0, 0.0, 0.0, 1.0]
],
  "dcmmeta_shape": [104, 104, 60, 457],
  "dcmmeta_slice_dim": 2,
  "dcmmeta_version": 0.6,
  "global": {
    "const": {
      "AcquisitionMatrix": [104, 0, 0, 104],
      "AngioFlag": "N",
      "BitsAllocated": 16,
      "BitsStored": 16,
      "BodyPartExamined": "BRAIN",
      "Columns": 832,
      "EchoNumbers": 1,
      "EchoTime": 37.0,
      "EchoTrainLength": 104,
      "FlipAngle": 52.0,
      "HighBit": 15,
      "ImageOrientationPatient": [0.99970748000563, 0.00762089376109, 0.02295378833826, 0.00436202239732, 0.87668373878418, -0.4810473936235],
      "ImagePositionPatient": [-836.68923426437, -771.66968837801, 336.77883427875],
      "ImageType": [
        "ORIGINAL",
        "PRIMARY",
        "P",
        "MB",
        "ND",
        "MOSAIC"
],
      "ImagedNucleus": "1H",
      "ImagingFrequency": 123.258898,
      "InPlanePhaseEncodingDirection": "COL",
      "LargestImagePixelValue": 4095,
      "MRAcquisitionType": "2D",
      "MagneticFieldStrength": 3.0,
      "Manufacturer": "SIEMENS",
      "ManufacturerModelName": "Prisma_fit",
      "Modality": "MR",
      "NumberOfAverages": 1.0,
      "NumberOfPhaseEncodingSteps": 104,
      "PercentPhaseFieldOfView": 100.0,
      "PercentSampling": 100.0,
      "PerformedProcedureStepStartTime": "125019.919000",
      "PhotometricInterpretation": "MONOCHROME2",
      "PixelBandwidth": 2290.0,
      "PixelRepresentation": 0,
      "PixelSpacing": [2.0, 2.0],
      "ProtocolName": "func_task-mario_run-02",
      "RepetitionTime": 1490.0,
      "RescaleIntercept": -4096.0,
      "RescaleSlope": 2.0,
      "RescaleType": "US",
      "Rows": 832,
      "SAR": 0.06176649247625,
      "SamplesPerPixel": 1,
      "ScanOptions": "FS",
      "ScanningSequence": "EP",
      "SequenceName": "epfid2d1_104",
      "SequenceVariant": [
        "SK",
        "SS"
],
      "SeriesDescription": "func_task-mario_run-02",
      "SeriesNumber": 14,
      "SeriesTime": "133408.376000",
      "SliceLocation": -56.123215685119,
      "SliceThickness": 2.0,
      "SmallestImagePixelValue": 0,
      "SoftwareVersions": "syngo MR E11",
      "SpacingBetweenSlices": 1.999999991589,
      "SpecificCharacterSet": "ISO_IR 100",
      "StudyID": "1",
      "StudyTime": "125019.797000",
      "TransmitCoilName": "Body",
      "VariableFlipAngleFlag": "N",
      "WindowCenterWidthExplanation": "Algo1",
      "dBdt": 0.0},
    "slices": {}
  },
  "time": {
    "samples": {
      "AcquisitionNumber": [1, 2, 3, 4, 5, 6, 7, 8, 9, 10, 11, 12, 13, 14, 15, 16, 17, 18, 19, 20, 21, 22, 23, 24, 25, 26, 27, 28, 29, 30, 31, 32, 33, 34, 35, 36, 37, 38, 39, 40, 41, 42, 43, 44, 45, 46, 47, 48, 49, 50, 51, 52, 53, 54, 55, 56, 57, 58, 59, 60, 61, 62, 63, 64, 65, 66, 67, 68, 69, 70, 71, 72, 73, 74, 75, 76, 77, 78, 79, 80, 81, 82, 83, 84, 85, 86, 87, 88, 89, 90, 91, 92, 93, 94, 95, 96, 97, 98, 99, 100, 101, 102, 103, 104, 105, 106, 107, 108, 109, 110, 111, 112, 113, 114, 115, 116, 117, 118, 119, 120, 121, 122, 123, 124, 125, 126, 127, 128, 129, 130, 131, 132, 133, 134, 135, 136, 137, 138, 139, 140, 141, 142, 143, 144, 145, 146, 147, 148, 149, 150, 151, 152, 153, 154, 155, 156, 157, 158, 159, 160, 161, 162, 163, 164, 165, 166, 167, 168, 169, 170, 171, 172, 173, 174, 175, 176, 177, 178, 179, 180, 181, 182, 183, 184, 185, 186, 187, 188, 189, 190, 191, 192, 193, 194, 195, 196, 197, 198, 199, 200, 201, 202, 203, 204, 205, 206, 207, 208, 209, 210, 211, 212, 213, 214, 215, 216, 217, 218, 219, 220, 221, 222, 223, 224, 225, 226, 227, 228, 229, 230, 231, 232, 233, 234, 235, 236, 237, 238, 239, 240, 241, 242, 243, 244, 245, 246, 247, 248, 249, 250, 251, 252, 253, 254, 255, 256, 257, 258, 259, 260, 261, 262, 263, 264, 265, 266, 267, 268, 269, 270, 271, 272, 273, 274, 275, 276, 277, 278, 279, 280, 281, 282, 283, 284, 285, 286, 287, 288, 289, 290, 291, 292, 293, 294, 295, 296, 297, 298, 299, 300, 301, 302, 303, 304, 305, 306, 307, 308, 309, 310, 311, 312, 313, 314, 315, 316, 317, 318, 319, 320, 321, 322, 323, 324, 325, 326, 327, 328, 329, 330, 331, 332, 333, 334, 335, 336, 337, 338, 339, 340, 341, 342, 343, 344, 345, 346, 347, 348, 349, 350, 351, 352, 353, 354, 355, 356, 357, 358, 359, 360, 361, 362, 363, 364, 365, 366, 367, 368, 369, 370, 371, 372, 373, 374, 375, 376, 377, 378, 379, 380, 381, 382, 383, 384, 385, 386, 387, 388, 389, 390, 391, 392, 393, 394, 395, 396, 397, 398, 399, 400, 401, 402, 403, 404, 405, 406, 407, 408, 409, 410, 411, 412, 413, 414, 415, 416, 417, 418, 419, 420, 421, 422, 423, 424, 425, 426, 427, 428, 429, 430, 431, 432, 433, 434, 435, 436, 437, 438, 439, 440, 441, 442, 443, 444, 445, 446, 447, 448, 449, 450, 451, 452, 453, 454, 455, 456, 457],
      "AcquisitionTime": ["133303.147500", "133304.637500", "133306.127500", "133307.617500", "133309.107500", "133310.597500", "133312.087500", "133313.577500", "133315.067500", "133316.557500", "133318.047500", "133319.537500", "133321.027500", "133322.517500", "133324.007500", "133325.497500", "133326.987500", "133328.477500", "133329.967500", "133331.457500", "133332.947500", "133334.437500", "133335.927500", "133337.417500", "133338.907500", "133340.397500", "133341.887500", "133343.377500", "133344.867500", "133346.357500", "133347.847500", "133349.337500", "133350.827500", "133352.317500", "133353.807500", "133355.297500", "133356.787500", "133358.277500", "133359.767500", "133401.257500", "133402.747500", "133404.237500", "133405.727500", "133407.217500", "133408.707500", "133410.197500", "133411.687500", "133413.177500", "133414.667500", "133416.157500", "133417.647500", "133419.137500", "133420.627500", "133422.117500", "133423.607500", "133425.097500", "133426.587500", "133428.077500", "133429.567500", "133431.057500", "133432.547500", "133434.037500", "133435.527500", "133437.017500", "133438.507500", "133439.997500", "133441.487500", "133442.977500", "133444.467500", "133445.957500", "133447.447500", "133448.937500", "133450.427500", "133451.917500", "133453.407500", "133454.897500", "133456.387500", "133457.877500", "133459.367500", "133500.857500", "133502.347500", "133503.837500", "133505.327500", "133506.817500", "133508.307500", "133509.797500", "133511.287500", "133512.777500", "133514.267500", "133515.757500", "133517.247500", "133518.737500", "133520.227500", "133521.717500", "133523.207500", "133524.697500", "133526.187500", "133527.677500", "133529.167500", "133530.657500", "133532.147500", "133533.637500", "133535.127500", "133536.617500", "133538.107500", "133539.597500", "133541.087500", "133542.577500", "133544.067500", "133545.557500", "133547.047500", "133548.537500", "133550.027500", "133551.517500", "133553.007500", "133554.497500", "133555.987500", "133557.477500", "133558.967500", "133600.457500", "133601.947500", "133603.437500", "133604.927500", "133606.417500", "133607.907500", "133609.397500", "133610.887500", "133612.377500", "133613.867500", "133615.357500", "133616.847500", "133618.337500", "133619.827500", "133621.317500", "133622.807500", "133624.297500", "133625.787500", "133627.277500", "133628.767500", "133630.257500", "133631.747500", "133633.237500", "133634.727500", "133636.217500", "133637.707500", "133639.197500", "133640.687500", "133642.177500", "133643.667500", "133645.157500", "133646.647500", "133648.137500", "133649.627500", "133651.117500", "133652.607500", "133654.097500", "133655.587500", "133657.077500", "133658.567500", "133700.057500", "133701.547500", "133703.037500", "133704.527500", "133706.017500", "133707.507500", "133708.997500", "133710.487500", "133711.977500", "133713.467500", "133714.957500", "133716.447500", "133717.937500", "133719.427500", "133720.917500", "133722.407500", "133723.897500", "133725.387500", "133726.877500", "133728.367500", "133729.857500", "133731.347500", "133732.837500", "133734.327500", "133735.817500", "133737.307500", "133738.797500", "133740.287500", "133741.777500", "133743.267500", "133744.757500", "133746.247500", "133747.737500", "133749.227500", "133750.717500", "133752.207500", "133753.697500", "133755.187500", "133756.677500", "133758.167500", "133759.657500", "133801.147500", "133802.637500", "133804.127500", "133805.617500", "133807.107500", "133808.597500", "133810.087500", "133811.577500", "133813.067500", "133814.557500", "133816.047500", "133817.537500", "133819.027500", "133820.517500", "133822.007500", "133823.497500", "133824.987500", "133826.477500", "133827.967500", "133829.457500", "133830.947500", "133832.437500", "133833.927500", "133835.417500", "133836.907500", "133838.397500", "133839.887500", "133841.377500", "133842.867500", "133844.357500", "133845.847500", "133847.337500", "133848.827500", "133850.317500", "133851.807500", "133853.297500", "133854.787500", "133856.277500", "133857.767500", "133859.257500", "133900.747500", "133902.237500", "133903.727500", "133905.217500", "133906.707500", "133908.197500", "133909.687500", "133911.177500", "133912.667500", "133914.157500", "133915.647500", "133917.137500", "133918.627500", "133920.117500", "133921.607500", "133923.097500", "133924.587500", "133926.077500", "133927.567500", "133929.057500", "133930.547500", "133932.037500", "133933.527500", "133935.017500", "133936.507500", "133937.997500", "133939.487500", "133940.977500", "133942.467500", "133943.957500", "133945.447500", "133946.937500", "133948.427500", "133949.917500", "133951.407500", "133952.897500", "133954.387500", "133955.877500", "133957.367500", "133958.857500", "134000.347500", "134001.837500", "134003.327500", "134004.817500", "134006.307500", "134007.797500", "134009.287500", "134010.777500", "134012.267500", "134013.757500", "134015.247500", "134016.737500", "134018.227500", "134019.717500", "134021.207500", "134022.697500", "134024.187500", "134025.677500", "134027.167500", "134028.657500", "134030.147500", "134031.637500", "134033.127500", "134034.617500", "134036.107500", "134037.597500", "134039.087500", "134040.577500", "134042.067500", "134043.557500", "134045.047500", "134046.537500", "134048.027500", "134049.517500", "134051.007500", "134052.497500", "134053.987500", "134055.477500", "134056.967500", "134058.457500", "134059.947500", "134101.437500", "134102.927500", "134104.417500", "134105.907500", "134107.397500", "134108.887500", "134110.377500", "134111.867500", "134113.357500", "134114.847500", "134116.337500", "134117.827500", "134119.317500", "134120.807500", "134122.297500", "134123.787500", "134125.277500", "134126.767500", "134128.257500", "134129.747500", "134131.237500", "134132.727500", "134134.217500", "134135.707500", "134137.197500", "134138.687500", "134140.177500", "134141.667500", "134143.157500", "134144.647500", "134146.137500", "134147.627500", "134149.117500", "134150.607500", "134152.097500", "134153.587500", "134155.077500", "134156.567500", "134158.057500", "134159.547500", "134201.037500", "134202.527500", "134204.017500", "134205.507500", "134206.997500", "134208.487500", "134209.977500", "134211.467500", "134212.957500", "134214.447500", "134215.937500", "134217.427500", "134218.917500", "134220.407500", "134221.897500", "134223.387500", "134224.877500", "134226.367500", "134227.857500", "134229.347500", "134230.837500", "134232.327500", "134233.817500", "134235.307500", "134236.797500", "134238.287500", "134239.777500", "134241.267500", "134242.757500", "134244.247500", "134245.737500", "134247.227500", "134248.717500", "134250.207500", "134251.697500", "134253.187500", "134254.677500", "134256.167500", "134257.657500", "134259.147500", "134300.637500", "134302.127500", "134303.617500", "134305.107500", "134306.597500", "134308.087500", "134309.577500", "134311.067500", "134312.557500", "134314.047500", "134315.537500", "134317.027500", "134318.517500", "134320.007500", "134321.497500", "134322.987500", "134324.477500", "134325.967500", "134327.457500", "134328.947500", "134330.437500", "134331.927500", "134333.417500", "134334.907500", "134336.397500", "134337.887500", "134339.377500", "134340.867500", "134342.357500", "134343.847500", "134345.337500", "134346.827500", "134348.317500", "134349.807500", "134351.297500", "134352.787500", "134354.277500", "134355.767500", "134357.257500", "134358.747500", "134400.237500", "134401.727500", "134403.217500", "134404.707500", "134406.197500", "134407.687500", "134409.177500", "134410.667500", "134412.157500", "134413.647500", "134415.137500", "134416.627500", "134418.117500", "134419.607500", "134421.097500", "134422.587500"],
      "ContentTime": ["133408.378000", "133408.381000", "133408.383000", "133408.386000", "133408.388000", "133408.391000", "133408.395000", "133408.398000", "133408.401000", "133408.403000", "133428.381000", "133428.384000", "133428.386000", "133428.389000", "133428.392000", "133428.398000", "133428.401000", "133428.404000", "133428.406000", "133428.409000", "133428.411000", "133428.414000", "133428.416000", "133428.419000", "133428.421000", "133428.424000", "133428.427000", "133428.429000", "133428.432000", "133428.434000", "133448.374000", "133448.377000", "133448.379000", "133448.382000", "133448.385000", "133448.387000", "133448.390000", "133448.392000", "133448.395000", "133448.397000", "133448.400000", "133448.403000", "133448.405000", "133448.408000", "133448.415000", "133448.418000", "133448.421000", "133448.423000", "133448.426000", "133448.429000", "133508.397000", "133508.400000", "133508.402000", "133508.405000", "133508.408000", "133508.410000", "133508.413000", "133508.416000", "133508.418000", "133508.421000", "133508.423000", "133508.426000", "133508.428000", "133508.431000", "133508.433000", "133508.436000", "133508.439000", "133508.441000", "133508.444000", "133508.446000", "133528.367000", "133528.370000", "133528.379000", "133528.381000", "133528.384000", "133528.386000", "133528.389000", "133528.392000", "133528.394000", "133528.397000", "133528.399000", "133528.402000", "133528.422000", "133528.424000", "133528.430000", "133528.433000", "133528.435000", "133528.438000", "133528.441000", "133528.443000", "133548.378000", "133548.380000", "133548.383000", "133548.386000", "133548.388000", "133548.391000", "133548.393000", "133548.396000", "133548.399000", "133548.401000", "133548.404000", "133548.406000", "133548.409000", "133548.412000", "133548.414000", "133548.417000", "133548.419000", "133548.422000", "133548.424000", "133548.427000", "133628.396000", "133628.399000", "133628.402000", "133628.404000", "133628.407000", "133628.410000", "133628.412000", "133628.415000", "133628.417000", "133628.420000", "133628.423000", "133628.425000", "133628.428000", "133628.430000", "133628.433000", "133628.435000", "133628.438000", "133628.441000", "133628.443000", "133628.446000", "133628.449000", "133628.451000", "133628.454000", "133628.456000", "133628.459000", "133628.462000", "133628.464000", "133708.404000", "133708.407000", "133708.410000", "133708.412000", "133708.415000", "133708.417000", "133708.420000", "133708.423000", "133708.425000", "133708.428000", "133708.430000", "133708.433000", "133708.436000", "133708.438000", "133708.441000", "133708.443000", "133708.446000", "133708.449000", "133708.451000", "133708.454000", "133708.456000", "133708.459000", "133708.462000", "133708.468000", "133708.471000", "133708.473000", "133708.476000", "133748.395000", "133748.398000", "133748.401000", "133748.403000", "133748.406000", "133748.416000", "133748.419000", "133748.440000", "133748.442000", "133748.451000", "133748.453000", "133748.456000", "133748.458000", "133748.461000", "133748.464000", "133748.466000", "133748.469000", "133748.472000", "133748.474000", "133748.477000", "133748.479000", "133748.482000", "133748.484000", "133748.487000", "133748.490000", "133748.492000", "133828.397000", "133828.400000", "133828.403000", "133828.405000", "133828.408000", "133828.411000", "133828.413000", "133828.416000", "133828.419000", "133828.421000", "133828.424000", "133828.426000", "133828.429000", "133828.432000", "133828.434000", "133828.437000", "133828.439000", "133828.442000", "133828.445000", "133828.447000", "133828.450000", "133828.453000", "133828.455000", "133828.458000", "133828.460000", "133828.463000", "133828.466000", "133908.405000", "133908.408000", "133908.410000", "133908.413000", "133908.416000", "133908.418000", "133908.421000", "133908.427000", "133908.430000", "133908.433000", "133908.435000", "133908.438000", "133908.440000", "133908.443000", "133908.446000", "133908.448000", "133908.451000", "133908.453000", "133908.456000", "133908.459000", "133908.461000", "133908.464000", "133908.467000", "133908.469000", "133908.472000", "133908.474000", "133908.477000", "133948.397000", "133948.399000", "133948.402000", "133948.405000", "133948.407000", "133948.410000", "133948.413000", "133948.415000", "133948.418000", "133948.421000", "133948.423000", "133948.426000", "133948.429000", "133948.431000", "133948.434000", "133948.436000", "133948.439000", "133948.442000", "133948.444000", "133948.447000", "133948.450000", "133948.452000", "133948.455000", "133948.457000", "133948.460000", "133948.463000", "133948.465000", "134028.416000", "134028.419000", "134028.421000", "134028.424000", "134028.426000", "134028.429000", "134028.432000", "134028.434000", "134028.437000", "134028.439000", "134028.442000", "134028.445000", "134028.447000", "134028.450000", "134028.459000", "134028.461000", "134028.464000", "134028.467000", "134028.469000", "134028.472000", "134028.474000", "134028.477000", "134028.480000", "134028.482000", "134028.485000", "134028.487000", "134028.490000", "134108.407000", "134108.409000", "134108.412000", "134108.415000", "134108.417000", "134108.420000", "134108.422000", "134108.425000", "134108.428000", "134108.430000", "134108.433000", "134108.435000", "134108.438000", "134108.441000", "134108.443000", "134108.446000", "134108.448000", "134108.451000", "134108.454000", "134108.456000", "134108.459000", "134108.461000", "134108.464000", "134108.467000", "134108.469000", "134108.472000", "134108.474000", "134148.398000", "134148.401000", "134148.406000", "134148.409000", "134148.412000", "134148.414000", "134148.417000", "134148.420000", "134148.422000", "134148.425000", "134148.427000", "134148.430000", "134148.433000", "134148.435000", "134148.438000", "134148.440000", "134148.443000", "134148.446000", "134148.448000", "134148.451000", "134148.454000", "134148.456000", "134148.459000", "134148.461000", "134148.464000", "134148.467000", "134148.469000", "134228.407000", "134228.410000", "134228.413000", "134228.416000", "134228.419000", "134228.421000", "134228.424000", "134228.427000", "134228.430000", "134228.433000", "134228.436000", "134228.438000", "134228.441000", "134228.444000", "134228.459000", "134228.462000", "134228.464000", "134228.467000", "134228.470000", "134228.472000", "134228.475000", "134228.478000", "134228.480000", "134228.483000", "134228.485000", "134228.488000", "134308.409000", "134308.412000", "134308.414000", "134308.417000", "134308.419000", "134308.422000", "134308.425000", "134308.427000", "134308.430000", "134308.433000", "134308.435000", "134308.438000", "134308.440000", "134308.443000", "134308.445000", "134308.448000", "134308.451000", "134308.453000", "134308.456000", "134308.458000", "134308.461000", "134308.464000", "134308.466000", "134308.469000", "134308.472000", "134308.474000", "134308.477000", "134348.400000", "134348.403000", "134348.405000", "134348.408000", "134348.411000", "134348.413000", "134348.416000", "134348.419000", "134348.421000", "134348.424000", "134348.426000", "134348.429000", "134348.432000", "134348.434000", "134348.437000", "134348.439000", "134348.442000", "134348.445000", "134348.447000", "134348.450000", "134348.452000", "134348.455000", "134348.458000", "134348.460000", "134348.463000", "134348.465000", "134348.468000", "134425.390000", "134425.393000", "134425.396000", "134425.399000", "134425.401000", "134425.404000", "134425.407000", "134425.410000", "134425.412000", "134425.415000", "134425.418000", "134425.421000", "134425.424000", "134425.427000", "134425.430000", "134425.432000", "134425.435000", "134425.437000", "134425.443000", "134425.445000", "134425.448000", "134425.451000", "134425.454000", "134425.456000", "134425.459000"],
