{
  "AcquisitionMatrixPE": 104,
  "AcquisitionNumber": 1,
  "AcquisitionTime": "13:45:27.182500",
  "BandwidthPerPixelPhaseEncode": 17.17,
  "BaseResolution": 104,
  "BodyPartExamined": "BRAIN",
  "CoilCombinationMethod": "Sum of Squares",
  "ConsistencyInfo": "N4_VE11C_LATEST_20160120",
  "ConversionSoftware": "dcm2niix",
  "ConversionSoftwareVersion": "v1.0.20211006",
  "DerivedVendorReportedEchoSpacing": 0.000560011,
  "DeviceSerialNumber": "167006",
  "DwellTime": 2.1e-06,
  "EchoTime": 0.037,
  "EchoTrainLength": 104,
  "EffectiveEchoSpacing": 0.000560011,
  "FlipAngle": 52,
  "HeudiconvVersion": "0.10.0",
  "ImageComments": "Unaliased MB4/PE3/LB",
  "ImageOrientationPatientDICOM": [0.999707, 0.00762089, 0.0229538, 0.00436202, 0.876684, -0.481047],
  "ImageOrientationText": "Tra>Cor(-28.8)>Sag(1.4)",
  "ImageType": [
    "ORIGINAL",
    "PRIMARY",
    "M",
    "MB",
    "ND",
    "MOSAIC"
],
  "ImagingFrequency": 123.259,
  "InPlanePhaseEncodingDirectionDICOM": "COL",
  "InstitutionAddress": "Chemin Queen-Mary 4565,Montreal,District,CA,H3W 1W5",
  "InstitutionName": "IUGM",
  "InstitutionalDepartmentName": "Department",
  "MRAcquisitionType": "2D",
  "MagneticFieldStrength": 3,
  "Manufacturer": "Siemens",
  "ManufacturersModelName": "Prisma_fit",
  "MatrixCoilMode": "SENSE",
  "Modality": "MR",
  "MultibandAccelerationFactor": 4,
  "PartialFourier": 1,
  "PatientPosition": "HFS",
  "PercentPhaseFOV": 100,
  "PercentSampling": 100,
  "PhaseEncodingDirection": "j",
  "PhaseEncodingSteps": 104,
  "PhaseResolution": 1,
  "PixelBandwidth": 2290,
  "ProcedureStepDescription": "games^mario",
  "ProtocolName": "func_task-mario_run-03",
  "PulseSequenceDetails": "%CustomerSeq%\\cmrr_mbep2d_bold",
  "ReceiveCoilActiveElements": "HC1-7;NC1,2",
  "ReceiveCoilName": "HeadNeck_64",
  "ReconMatrixPE": 104,
  "RepetitionTime": 1.49,
  "SAR": 0.0617665,
  "ScanOptions": "FS",
  "ScanningSequence": "EP",
  "SequenceName": "epfid2d1_104",
  "SequenceVariant": "SK\\SS",
  "SeriesDescription": "func_task-mario_run-03",
  "SeriesNumber": 16,
  "ShimSetting": [616, -7184, -8859, 314, 3, -156, -49, -8],
  "SliceThickness": 2,
  "SliceTiming": [0, 0.785, 0.0975, 0.8825, 0.1975, 0.98, 0.295, 1.0775, 0.3925, 1.1775, 0.49, 1.275, 0.5875, 1.3725, 0.6875, 0, 0.785, 0.0975, 0.8825, 0.1975, 0.98, 0.295, 1.0775, 0.3925, 1.1775, 0.49, 1.275, 0.5875, 1.3725, 0.6875, 0, 0.785, 0.0975, 0.8825, 0.1975, 0.98, 0.295, 1.0775, 0.3925, 1.1775, 0.49, 1.275, 0.5875, 1.3725, 0.6875, 0, 0.785, 0.0975, 0.8825, 0.1975, 0.98, 0.295, 1.0775, 0.3925, 1.1775, 0.49, 1.275, 0.5875, 1.3725, 0.6875],
  "SoftwareVersions": "syngo MR E11",
  "SpacingBetweenSlices": 2,
  "StationName": "MRC35049",
  "TaskName": "mario",
  "TotalReadoutTime": 0.0576811,
  "TxRefAmp": 292.35,
  "WipMemBlock": "d4fad7ef-c08c-439e-95c2-2397d5716d60||Sequence: R016 ve11c/master r/e634e98; Dec 19 2017 11:00:25 by eja",
  "dcmmeta_affine": [
    [-1.9994149208068848, 0.008724045008420944, 0.04757844656705856, 104.82805633544922],
    [-0.015241787768900394, 1.7533674240112305, -0.9620136022567749, -52.70093536376953],
    [0.04590757563710213, 0.962094783782959, 1.7527880668640137, -95.80907440185547],
    [0.0, 0.0, 0.0, 1.0]
],
  "dcmmeta_reorient_transform": [
    [0.0, -1.0, 0.0, 103.0],
    [1.0, 0.0, 0.0, 0.0],
    [0.0, 0.0, 1.0, 0.0],
    [0.0, 0.0, 0.0, 1.0]
],
  "dcmmeta_shape": [104, 104, 60, 537],
  "dcmmeta_slice_dim": 2,
  "dcmmeta_version": 0.6,
  "global": {
    "const": {
      "AcquisitionMatrix": [104, 0, 0, 104],
      "AngioFlag": "N",
      "BitsAllocated": 16,
      "BitsStored": 16,
      "BodyPartExamined": "BRAIN",
      "Columns": 832,
      "EchoNumbers": 1,
      "EchoTime": 37.0,
      "EchoTrainLength": 104,
      "FlipAngle": 52.0,
      "HighBit": 15,
      "ImageOrientationPatient": [0.99970748000563, 0.00762089376109, 0.02295378833826, 0.00436202239732, 0.87668373878418, -0.4810473936235],
      "ImagePositionPatient": [-836.68923426437, -771.66968837801, 336.77883427875],
      "ImageType": [
        "ORIGINAL",
        "PRIMARY",
        "M",
        "MB",
        "ND",
        "MOSAIC"
],
      "ImagedNucleus": "1H",
      "ImagingFrequency": 123.258907,
      "InPlanePhaseEncodingDirection": "COL",
      "MRAcquisitionType": "2D",
      "MagneticFieldStrength": 3.0,
      "Manufacturer": "SIEMENS",
      "ManufacturerModelName": "Prisma_fit",
      "Modality": "MR",
      "NumberOfAverages": 1.0,
      "NumberOfPhaseEncodingSteps": 104,
      "PercentPhaseFieldOfView": 100.0,
      "PercentSampling": 100.0,
      "PerformedProcedureStepStartTime": "125019.919000",
      "PhotometricInterpretation": "MONOCHROME2",
      "PixelBandwidth": 2290.0,
      "PixelRepresentation": 0,
      "PixelSpacing": [2.0, 2.0],
      "ProtocolName": "func_task-mario_run-03",
      "RepetitionTime": 1490.0,
      "Rows": 832,
      "SAR": 0.06176649247625,
      "SamplesPerPixel": 1,
      "ScanOptions": "FS",
      "ScanningSequence": "EP",
      "SequenceName": "epfid2d1_104",
      "SequenceVariant": [
        "SK",
        "SS"
],
      "SeriesDescription": "func_task-mario_run-03",
      "SeriesNumber": 16,
      "SeriesTime": "134655.321000",
      "SliceLocation": -56.123215685119,
      "SliceThickness": 2.0,
      "SmallestImagePixelValue": 0,
      "SoftwareVersions": "syngo MR E11",
      "SpacingBetweenSlices": 1.999999991589,
      "SpecificCharacterSet": "ISO_IR 100",
      "StudyID": "1",
      "StudyTime": "125019.797000",
      "TransmitCoilName": "Body",
      "VariableFlipAngleFlag": "N",
      "WindowCenterWidthExplanation": "Algo1",
      "dBdt": 0.0},
    "slices": {}
  },
  "time": {
    "samples": {
      "AcquisitionNumber": [1, 2, 3, 4, 5, 6, 7, 8, 9, 10, 11, 12, 13, 14, 15, 16, 17, 18, 19, 20, 21, 22, 23, 24, 25, 26, 27, 28, 29, 30, 31, 32, 33, 34, 35, 36, 37, 38, 39, 40, 41, 42, 43, 44, 45, 46, 47, 48, 49, 50, 51, 52, 53, 54, 55, 56, 57, 58, 59, 60, 61, 62, 63, 64, 65, 66, 67, 68, 69, 70, 71, 72, 73, 74, 75, 76, 77, 78, 79, 80, 81, 82, 83, 84, 85, 86, 87, 88, 89, 90, 91, 92, 93, 94, 95, 96, 97, 98, 99, 100, 101, 102, 103, 104, 105, 106, 107, 108, 109, 110, 111, 112, 113, 114, 115, 116, 117, 118, 119, 120, 121, 122, 123, 124, 125, 126, 127, 128, 129, 130, 131, 132, 133, 134, 135, 136, 137, 138, 139, 140, 141, 142, 143, 144, 145, 146, 147, 148, 149, 150, 151, 152, 153, 154, 155, 156, 157, 158, 159, 160, 161, 162, 163, 164, 165, 166, 167, 168, 169, 170, 171, 172, 173, 174, 175, 176, 177, 178, 179, 180, 181, 182, 183, 184, 185, 186, 187, 188, 189, 190, 191, 192, 193, 194, 195, 196, 197, 198, 199, 200, 201, 202, 203, 204, 205, 206, 207, 208, 209, 210, 211, 212, 213, 214, 215, 216, 217, 218, 219, 220, 221, 222, 223, 224, 225, 226, 227, 228, 229, 230, 231, 232, 233, 234, 235, 236, 237, 238, 239, 240, 241, 242, 243, 244, 245, 246, 247, 248, 249, 250, 251, 252, 253, 254, 255, 256, 257, 258, 259, 260, 261, 262, 263, 264, 265, 266, 267, 268, 269, 270, 271, 272, 273, 274, 275, 276, 277, 278, 279, 280, 281, 282, 283, 284, 285, 286, 287, 288, 289, 290, 291, 292, 293, 294, 295, 296, 297, 298, 299, 300, 301, 302, 303, 304, 305, 306, 307, 308, 309, 310, 311, 312, 313, 314, 315, 316, 317, 318, 319, 320, 321, 322, 323, 324, 325, 326, 327, 328, 329, 330, 331, 332, 333, 334, 335, 336, 337, 338, 339, 340, 341, 342, 343, 344, 345, 346, 347, 348, 349, 350, 351, 352, 353, 354, 355, 356, 357, 358, 359, 360, 361, 362, 363, 364, 365, 366, 367, 368, 369, 370, 371, 372, 373, 374, 375, 376, 377, 378, 379, 380, 381, 382, 383, 384, 385, 386, 387, 388, 389, 390, 391, 392, 393, 394, 395, 396, 397, 398, 399, 400, 401, 402, 403, 404, 405, 406, 407, 408, 409, 410, 411, 412, 413, 414, 415, 416, 417, 418, 419, 420, 421, 422, 423, 424, 425, 426, 427, 428, 429, 430, 431, 432, 433, 434, 435, 436, 437, 438, 439, 440, 441, 442, 443, 444, 445, 446, 447, 448, 449, 450, 451, 452, 453, 454, 455, 456, 457, 458, 459, 460, 461, 462, 463, 464, 465, 466, 467, 468, 469, 470, 471, 472, 473, 474, 475, 476, 477, 478, 479, 480, 481, 482, 483, 484, 485, 486, 487, 488, 489, 490, 491, 492, 493, 494, 495, 496, 497, 498, 499, 500, 501, 502, 503, 504, 505, 506, 507, 508, 509, 510, 511, 512, 513, 514, 515, 516, 517, 518, 519, 520, 521, 522, 523, 524, 525, 526, 527, 528, 529, 530, 531, 532, 533, 534, 535, 536, 537],
      "AcquisitionTime": ["134527.182500", "134528.672500", "134530.162500", "134531.652500", "134533.142500", "134534.632500", "134536.122500", "134537.612500", "134539.102500", "134540.592500", "134542.082500", "134543.572500", "134545.062500", "134546.552500", "134548.042500", "134549.532500", "134551.022500", "134552.512500", "134554.002500", "134555.492500", "134556.982500", "134558.472500", "134559.962500", "134601.452500", "134602.942500", "134604.432500", "134605.922500", "134607.412500", "134608.902500", "134610.392500", "134611.882500", "134613.372500", "134614.862500", "134616.352500", "134617.842500", "134619.332500", "134620.822500", "134622.312500", "134623.802500", "134625.292500", "134626.782500", "134628.272500", "134629.762500", "134631.252500", "134632.742500", "134634.232500", "134635.722500", "134637.212500", "134638.702500", "134640.192500", "134641.682500", "134643.172500", "134644.662500", "134646.152500", "134647.642500", "134649.132500", "134650.622500", "134652.112500", "134653.602500", "134655.092500", "134656.582500", "134658.072500", "134659.562500", "134701.052500", "134702.542500", "134704.032500", "134705.522500", "134707.012500", "134708.502500", "134709.992500", "134711.482500", "134712.972500", "134714.462500", "134715.952500", "134717.442500", "134718.932500", "134720.422500", "134721.912500", "134723.402500", "134724.892500", "134726.382500", "134727.872500", "134729.362500", "134730.852500", "134732.342500", "134733.832500", "134735.322500", "134736.812500", "134738.302500", "134739.792500", "134741.282500", "134742.772500", "134744.262500", "134745.752500", "134747.242500", "134748.732500", "134750.222500", "134751.712500", "134753.202500", "134754.692500", "134756.182500", "134757.672500", "134759.162500", "134800.652500", "134802.142500", "134803.632500", "134805.122500", "134806.612500", "134808.102500", "134809.592500", "134811.082500", "134812.572500", "134814.062500", "134815.552500", "134817.042500", "134818.532500", "134820.022500", "134821.512500", "134823.002500", "134824.492500", "134825.982500", "134827.472500", "134828.962500", "134830.452500", "134831.942500", "134833.432500", "134834.922500", "134836.412500", "134837.902500", "134839.392500", "134840.882500", "134842.372500", "134843.862500", "134845.352500", "134846.842500", "134848.332500", "134849.822500", "134851.312500", "134852.802500", "134854.292500", "134855.782500", "134857.272500", "134858.762500", "134900.252500", "134901.742500", "134903.232500", "134904.722500", "134906.212500", "134907.702500", "134909.192500", "134910.682500", "134912.172500", "134913.662500", "134915.152500", "134916.642500", "134918.132500", "134919.622500", "134921.112500", "134922.602500", "134924.092500", "134925.582500", "134927.072500", "134928.562500", "134930.052500", "134931.542500", "134933.032500", "134934.522500", "134936.012500", "134937.502500", "134938.992500", "134940.482500", "134941.972500", "134943.462500", "134944.952500", "134946.442500", "134947.932500", "134949.422500", "134950.912500", "134952.402500", "134953.892500", "134955.382500", "134956.872500", "134958.362500", "134959.852500", "135001.342500", "135002.832500", "135004.322500", "135005.812500", "135007.302500", "135008.792500", "135010.282500", "135011.772500", "135013.262500", "135014.752500", "135016.242500", "135017.732500", "135019.222500", "135020.712500", "135022.202500", "135023.692500", "135025.182500", "135026.672500", "135028.162500", "135029.652500", "135031.142500", "135032.632500", "135034.122500", "135035.612500", "135037.102500", "135038.592500", "135040.082500", "135041.572500", "135043.062500", "135044.552500", "135046.042500", "135047.532500", "135049.022500", "135050.512500", "135052.002500", "135053.492500", "135054.982500", "135056.472500", "135057.962500", "135059.452500", "135100.942500", "135102.432500", "135103.922500", "135105.412500", "135106.902500", "135108.392500", "135109.882500", "135111.372500", "135112.862500", "135114.352500", "135115.842500", "135117.332500", "135118.822500", "135120.312500", "135121.802500", "135123.292500", "135124.782500", "135126.272500", "135127.762500", "135129.252500", "135130.742500", "135132.232500", "135133.722500", "135135.212500", "135136.702500", "135138.192500", "135139.682500", "135141.172500", "135142.662500", "135144.152500", "135145.642500", "135147.132500", "135148.622500", "135150.112500", "135151.602500", "135153.092500", "135154.582500", "135156.072500", "135157.562500", "135159.052500", "135200.542500", "135202.032500", "135203.522500", "135205.012500", "135206.502500", "135207.992500", "135209.482500", "135210.972500", "135212.462500", "135213.952500", "135215.442500", "135216.932500", "135218.422500", "135219.912500", "135221.402500", "135222.892500", "135224.382500", "135225.872500", "135227.362500", "135228.852500", "135230.342500", "135231.832500", "135233.322500", "135234.812500", "135236.302500", "135237.792500", "135239.282500", "135240.772500", "135242.262500", "135243.752500", "135245.242500", "135246.732500", "135248.222500", "135249.712500", "135251.202500", "135252.692500", "135254.182500", "135255.672500", "135257.162500", "135258.652500", "135300.142500", "135301.632500", "135303.122500", "135304.612500", "135306.102500", "135307.592500", "135309.082500", "135310.572500", "135312.062500", "135313.552500", "135315.042500", "135316.532500", "135318.022500", "135319.512500", "135321.002500", "135322.492500", "135323.982500", "135325.472500", "135326.962500", "135328.452500", "135329.942500", "135331.432500", "135332.922500", "135334.412500", "135335.902500", "135337.392500", "135338.882500", "135340.372500", "135341.862500", "135343.352500", "135344.842500", "135346.332500", "135347.822500", "135349.312500", "135350.802500", "135352.292500", "135353.782500", "135355.272500", "135356.762500", "135358.252500", "135359.742500", "135401.232500", "135402.722500", "135404.212500", "135405.702500", "135407.192500", "135408.682500", "135410.172500", "135411.662500", "135413.152500", "135414.642500", "135416.132500", "135417.622500", "135419.112500", "135420.602500", "135422.092500", "135423.582500", "135425.072500", "135426.562500", "135428.052500", "135429.542500", "135431.032500", "135432.522500", "135434.012500", "135435.502500", "135436.992500", "135438.482500", "135439.972500", "135441.462500", "135442.952500", "135444.442500", "135445.932500", "135447.422500", "135448.912500", "135450.402500", "135451.892500", "135453.382500", "135454.872500", "135456.362500", "135457.852500", "135459.342500", "135500.832500", "135502.322500", "135503.812500", "135505.302500", "135506.792500", "135508.282500", "135509.772500", "135511.262500", "135512.752500", "135514.242500", "135515.732500", "135517.222500", "135518.712500", "135520.202500", "135521.692500", "135523.182500", "135524.672500", "135526.162500", "135527.652500", "135529.142500", "135530.632500", "135532.122500", "135533.612500", "135535.102500", "135536.592500", "135538.082500", "135539.572500", "135541.062500", "135542.552500", "135544.042500", "135545.532500", "135547.022500", "135548.512500", "135550.002500", "135551.492500", "135552.982500", "135554.472500", "135555.962500", "135557.452500", "135558.942500", "135600.432500", "135601.922500", "135603.412500", "135604.902500", "135606.392500", "135607.882500", "135609.372500", "135610.862500", "135612.352500", "135613.842500", "135615.332500", "135616.822500", "135618.312500", "135619.802500", "135621.292500", "135622.782500", "135624.272500", "135625.762500", "135627.252500", "135628.742500", "135630.232500", "135631.722500", "135633.212500", "135634.702500", "135636.192500", "135637.682500", "135639.172500", "135640.662500", "135642.152500", "135643.642500", "135645.132500", "135646.622500", "135648.112500", "135649.602500", "135651.092500", "135652.582500", "135654.072500", "135655.562500", "135657.052500", "135658.542500", "135700.032500", "135701.522500", "135703.012500", "135704.502500", "135705.992500", "135707.482500", "135708.972500", "135710.462500", "135711.952500", "135713.442500", "135714.932500", "135716.422500", "135717.912500", "135719.402500", "135720.892500", "135722.382500", "135723.872500", "135725.362500", "135726.852500", "135728.342500", "135729.832500", "135731.322500", "135732.812500", "135734.302500", "135735.792500", "135737.282500", "135738.772500", "135740.262500", "135741.752500", "135743.242500", "135744.732500", "135746.222500", "135747.712500", "135749.202500", "135750.692500", "135752.182500", "135753.672500", "135755.162500", "135756.652500", "135758.142500", "135759.632500", "135801.122500", "135802.612500", "135804.102500", "135805.592500", "135807.082500", "135808.572500", "135810.062500", "135811.552500", "135813.042500", "135814.532500", "135816.022500", "135817.512500", "135819.002500", "135820.492500", "135821.982500", "135823.472500", "135824.962500", "135826.452500", "135827.942500", "135829.432500", "135830.922500", "135832.412500", "135833.902500", "135835.392500", "135836.882500", "135838.372500", "135839.862500", "135841.352500", "135842.842500", "135844.332500", "135845.822500"],
      "ContentTime": ["134655.325000", "134655.329000", "134655.332000", "134655.336000", "134655.339000", "134655.342000", "134655.346000", "134655.349000", "134655.353000", "134655.356000", "134655.359000", "134655.363000", "134655.366000", "134655.370000", "134655.373000", "134655.376000", "134655.380000", "134655.383000", "134655.387000", "134655.390000", "134655.394000", "134655.397000", "134655.400000", "134655.404000", "134655.407000", "134655.418000", "134655.422000", "134655.425000", "134655.429000", "134655.432000", "134655.436000", "134655.439000", "134655.443000", "134655.446000", "134715.290000", "134715.294000", "134715.297000", "134715.301000", "134715.304000", "134715.308000", "134715.311000", "134715.315000", "134715.318000", "134715.321000", "134715.325000", "134715.328000", "134715.332000", "134715.335000", "134715.338000", "134715.342000", "134715.345000", "134715.348000", "134715.352000", "134715.355000", "134735.291000", "134735.296000", "134735.301000", "134735.305000", "134735.309000", "134735.312000", "134735.316000", "134735.319000", "134735.323000", "134735.326000", "134735.329000", "134735.333000", "134735.336000", "134735.340000", "134735.343000", "134735.347000", "134735.350000", "134735.353000", "134735.357000", "134735.360000", "134755.290000", "134755.294000", "134755.297000", "134755.301000", "134755.311000", "134755.314000", "134755.318000", "134755.321000", "134755.325000", "134755.328000", "134755.331000", "134755.335000", "134755.338000", "134755.342000", "134755.345000", "134755.348000", "134755.352000", "134755.355000", "134755.374000", "134755.379000", "134755.382000", "134835.290000", "134835.294000", "134835.298000", "134835.301000", "134835.304000", "134835.308000", "134835.311000", "134835.315000", "134835.318000", "134835.323000", "134835.326000", "134835.330000", "134835.333000", "134835.337000", "134835.340000", "134835.344000", "134835.347000", "134835.351000", "134835.354000", "134835.357000", "134835.361000", "134835.364000", "134835.368000", "134835.371000", "134835.375000", "134835.378000", "134835.382000", "134835.385000", "134835.388000", "134835.392000", "134915.290000", "134915.294000", "134915.298000", "134915.301000", "134915.305000", "134915.308000", "134915.311000", "134915.315000", "134915.318000", "134915.322000", "134915.325000", "134915.329000", "134915.332000", "134915.335000", "134915.339000", "134915.342000", "134915.346000", "134915.349000", "134915.352000", "134915.356000", "134915.359000", "134915.363000", "134915.366000", "134915.370000", "134915.373000", "134915.376000", "134915.380000", "134955.290000", "134955.294000", "134955.297000", "134955.301000", "134955.304000", "134955.308000", "134955.311000", "134955.315000", "134955.318000", "134955.321000", "134955.325000", "134955.328000", "134955.332000", "134955.335000", "134955.339000", "134955.342000", "134955.346000", "134955.349000", "134955.353000", "134955.356000", "134955.359000", "134955.363000", "134955.366000", "134955.370000", "134955.373000", "134955.377000", "134955.380000", "135035.290000", "135035.294000", "135035.298000", "135035.301000", "135035.304000", "135035.308000", "135035.311000", "135035.315000", "135035.318000", "135035.337000", "135035.340000", "135035.344000", "135035.347000", "135035.351000", "135035.354000", "135035.357000", "135035.361000", "135035.365000", "135035.368000", "135035.371000", "135035.375000", "135035.378000", "135035.382000", "135035.385000", "135035.388000", "135035.392000", "135035.395000", "135115.290000", "135115.294000", "135115.297000", "135115.301000", "135115.304000", "135115.308000", "135115.311000", "135115.315000", "135115.318000", "135115.321000", "135115.325000", "135115.328000", "135115.332000", "135115.335000", "135115.338000", "135115.342000", "135115.345000", "135115.349000", "135115.352000", "135115.356000", "135115.359000", "135115.362000", "135115.366000", "135115.369000", "135115.373000", "135115.376000", "135115.379000", "135155.290000", "135155.294000", "135155.298000", "135155.301000", "135155.304000", "135155.308000", "135155.311000", "135155.315000", "135155.318000", "135155.322000", "135155.325000", "135155.329000", "135155.332000", "135155.336000", "135155.339000", "135155.342000", "135155.346000", "135155.349000", "135155.353000", "135155.356000", "135155.359000", "135155.363000", "135155.366000", "135155.370000", "135155.373000", "135155.377000", "135155.380000", "135235.291000", "135235.295000", "135235.299000", "135235.302000", "135235.305000", "135235.309000", "135235.312000", "135235.316000", "135235.319000", "135235.323000", "135235.326000", "135235.330000", "135235.334000", "135235.338000", "135235.342000", "135235.346000", "135235.349000", "135235.353000", "135235.357000", "135235.361000", "135235.365000", "135235.379000", "135235.382000", "135235.386000", "135235.389000", "135235.393000", "135255.290000", "135255.294000", "135255.297000", "135255.301000", "135255.304000", "135255.308000", "135255.311000", "135255.315000", "135255.318000", "135255.322000", "135255.325000", "135255.329000", "135255.332000", "135255.335000", "135335.290000", "135335.294000", "135335.297000", "135335.301000", "135335.304000", "135335.308000", "135335.311000", "135335.315000", "135335.318000", "135335.322000", "135335.325000", "135335.328000", "135335.332000", "135335.335000", "135335.339000", "135335.342000", "135335.345000", "135335.349000", "135335.352000", "135335.356000", "135335.359000", "135335.363000", "135335.366000", "135335.370000", "135335.373000", "135335.376000", "135335.380000", "135415.290000", "135415.385000", "135415.389000", "135415.392000", "135415.396000", "135415.399000", "135415.403000", "135415.406000", "135415.410000", "135415.413000", "135415.417000", "135415.420000", "135415.423000", "135415.427000", "135415.430000", "135415.434000", "135415.437000", "135415.441000", "135415.444000", "135415.447000", "135415.451000", "135415.454000", "135415.458000", "135415.461000", "135415.465000", "135415.468000", "135455.291000", "135455.295000", "135455.299000", "135455.302000", "135455.306000", "135455.310000", "135455.313000", "135455.317000", "135455.320000", "135455.324000", "135455.328000", "135455.332000", "135455.348000", "135455.351000", "135455.355000", "135455.358000", "135455.361000", "135455.365000", "135455.368000", "135455.373000", "135455.378000", "135455.382000", "135455.386000", "135455.391000", "135455.395000", "135455.398000", "135455.402000", "135535.290000", "135535.294000", "135535.297000", "135535.301000", "135535.304000", "135535.308000", "135535.311000", "135535.315000", "135535.318000", "135535.321000", "135535.325000", "135535.328000", "135535.332000", "135535.335000", "135535.338000", "135535.342000", "135535.345000", "135535.349000", "135535.352000", "135535.356000", "135535.359000", "135535.362000", "135535.366000", "135535.369000", "135535.373000", "135535.376000", "135535.379000", "135615.290000", "135615.294000", "135615.298000", "135615.301000", "135615.305000", "135615.308000", "135615.311000", "135615.315000", "135615.318000", "135615.322000", "135615.325000", "135615.329000", "135615.332000", "135615.336000", "135615.339000", "135615.342000", "135615.346000", "135615.349000", "135615.353000", "135615.356000", "135615.359000", "135615.363000", "135615.366000", "135615.370000", "135615.373000", "135615.376000", "135615.380000", "135655.290000", "135655.294000", "135655.298000", "135655.301000", "135655.305000", "135655.308000", "135655.311000", "135655.315000", "135655.318000", "135655.322000", "135655.325000", "135655.329000", "135655.332000", "135655.336000", "135655.339000", "135655.342000", "135655.346000", "135655.349000", "135655.353000", "135655.356000", "135655.360000", "135655.363000", "135655.366000", "135655.386000", "135655.389000", "135655.392000", "135655.396000", "135735.290000", "135735.294000", "135735.298000", "135735.301000", "135735.304000", "135735.308000", "135735.311000", "135735.315000", "135735.318000", "135735.322000", "135735.325000", "135735.328000", "135735.332000", "135735.335000", "135735.339000", "135735.342000", "135735.346000", "135735.349000", "135735.352000", "135735.356000", "135735.359000", "135735.363000", "135735.366000", "135735.370000", "135735.373000", "135735.376000", "135735.380000", "135815.291000", "135815.294000", "135815.298000", "135815.301000", "135815.305000", "135815.308000", "135815.311000", "135815.315000", "135815.318000", "135815.322000", "135815.325000", "135815.329000", "135815.332000", "135815.335000", "135815.339000", "135815.342000", "135815.346000", "135815.349000", "135815.353000", "135815.356000", "135815.359000", "135815.363000", "135815.366000", "135815.370000", "135815.373000", "135815.376000", "135815.380000", "135848.448000", "135848.452000", "135848.457000", "135848.461000", "135848.465000", "135848.469000", "135848.472000", "135848.476000", "135848.480000", "135848.483000", "135848.487000", "135848.490000", "135848.494000", "135848.497000", "135848.501000", "135848.504000", "135848.507000", "135848.511000", "135848.514000", "135848.518000", "135848.521000", "135848.525000"],
