{
  "AcquisitionMatrixPE": 104,
  "AcquisitionNumber": 1,
  "AcquisitionTime": "13:45:27.182500",
  "BandwidthPerPixelPhaseEncode": 17.17,
  "BaseResolution": 104,
  "BodyPartExamined": "BRAIN",
  "CoilCombinationMethod": "Sum of Squares",
  "ConsistencyInfo": "N4_VE11C_LATEST_20160120",
  "ConversionSoftware": "dcm2niix",
  "ConversionSoftwareVersion": "v1.0.20211006",
  "DerivedVendorReportedEchoSpacing": 0.000560011,
  "DeviceSerialNumber": "167006",
  "DwellTime": 2.1e-06,
  "EchoTime": 0.037,
  "EchoTime1": 0.037,
  "EchoTime2": 0.001,
  "EchoTrainLength": 104,
  "EffectiveEchoSpacing": 0.000560011,
  "FlipAngle": 52,
  "HeudiconvVersion": "0.10.0",
  "ImageComments": "Unaliased MB4/PE3/LB",
  "ImageOrientationPatientDICOM": [0.999707, 0.00762089, 0.0229538, 0.00436202, 0.876684, -0.481047],
  "ImageOrientationText": "Tra>Cor(-28.8)>Sag(1.4)",
  "ImageType": [
    "ORIGINAL",
    "PRIMARY",
    "P",
    "MB",
    "ND",
    "MOSAIC",
    "PHASE"
],
  "ImagingFrequency": 123.259,
  "InPlanePhaseEncodingDirectionDICOM": "COL",
  "InstitutionAddress": "Chemin Queen-Mary 4565,Montreal,District,CA,H3W 1W5",
  "InstitutionName": "IUGM",
  "InstitutionalDepartmentName": "Department",
  "MRAcquisitionType": "2D",
  "MagneticFieldStrength": 3,
  "Manufacturer": "Siemens",
  "ManufacturersModelName": "Prisma_fit",
  "MatrixCoilMode": "SENSE",
  "Modality": "MR",
  "MultibandAccelerationFactor": 4,
  "PartialFourier": 1,
  "PatientPosition": "HFS",
  "PercentPhaseFOV": 100,
  "PercentSampling": 100,
  "PhaseEncodingDirection": "j",
  "PhaseEncodingSteps": 104,
  "PhaseResolution": 1,
  "PixelBandwidth": 2290,
  "ProcedureStepDescription": "games^mario",
  "ProtocolName": "func_task-mario_run-03",
  "PulseSequenceDetails": "%CustomerSeq%\\cmrr_mbep2d_bold",
  "ReceiveCoilActiveElements": "HC1-7;NC1,2",
  "ReceiveCoilName": "HeadNeck_64",
  "ReconMatrixPE": 104,
  "RepetitionTime": 1.49,
  "SAR": 0.0617665,
  "ScanOptions": "FS",
  "ScanningSequence": "EP",
  "SequenceName": "epfid2d1_104",
  "SequenceVariant": "SK\\SS",
  "SeriesDescription": "func_task-mario_run-03",
  "SeriesNumber": 17,
  "ShimSetting": [616, -7184, -8859, 314, 3, -156, -49, -8],
  "SliceThickness": 2,
  "SliceTiming": [0, 0.785, 0.0975, 0.8825, 0.1975, 0.98, 0.295, 1.0775, 0.3925, 1.1775, 0.49, 1.275, 0.5875, 1.3725, 0.6875, 0, 0.785, 0.0975, 0.8825, 0.1975, 0.98, 0.295, 1.0775, 0.3925, 1.1775, 0.49, 1.275, 0.5875, 1.3725, 0.6875, 0, 0.785, 0.0975, 0.8825, 0.1975, 0.98, 0.295, 1.0775, 0.3925, 1.1775, 0.49, 1.275, 0.5875, 1.3725, 0.6875, 0, 0.785, 0.0975, 0.8825, 0.1975, 0.98, 0.295, 1.0775, 0.3925, 1.1775, 0.49, 1.275, 0.5875, 1.3725, 0.6875],
  "SoftwareVersions": "syngo MR E11",
  "SpacingBetweenSlices": 2,
  "StationName": "MRC35049",
  "TaskName": "mario",
  "TotalReadoutTime": 0.0576811,
  "TxRefAmp": 292.35,
  "WipMemBlock": "d4fad7ef-c08c-439e-95c2-2397d5716d60||Sequence: R016 ve11c/master r/e634e98; Dec 19 2017 11:00:25 by eja",
  "dcmmeta_affine": [
    [-1.9994149208068848, 0.008724045008420944, 0.04757844656705856, 104.82805633544922],
    [-0.015241787768900394, 1.7533674240112305, -0.9620136022567749, -52.70093536376953],
    [0.04590757563710213, 0.962094783782959, 1.7527880668640137, -95.80907440185547],
    [0.0, 0.0, 0.0, 1.0]
],
  "dcmmeta_reorient_transform": [
    [0.0, -1.0, 0.0, 103.0],
    [1.0, 0.0, 0.0, 0.0],
    [0.0, 0.0, 1.0, 0.0],
    [0.0, 0.0, 0.0, 1.0]
],
  "dcmmeta_shape": [104, 104, 60, 537],
  "dcmmeta_slice_dim": 2,
  "dcmmeta_version": 0.6,
  "global": {
    "const": {
      "AcquisitionMatrix": [104, 0, 0, 104],
      "AngioFlag": "N",
      "BitsAllocated": 16,
      "BitsStored": 16,
      "BodyPartExamined": "BRAIN",
      "Columns": 832,
      "EchoNumbers": 1,
      "EchoTime": 37.0,
      "EchoTrainLength": 104,
      "FlipAngle": 52.0,
      "HighBit": 15,
      "ImageOrientationPatient": [0.99970748000563, 0.00762089376109, 0.02295378833826, 0.00436202239732, 0.87668373878418, -0.4810473936235],
      "ImagePositionPatient": [-836.68923426437, -771.66968837801, 336.77883427875],
      "ImageType": [
        "ORIGINAL",
        "PRIMARY",
        "P",
        "MB",
        "ND",
        "MOSAIC"
],
      "ImagedNucleus": "1H",
      "ImagingFrequency": 123.258907,
      "InPlanePhaseEncodingDirection": "COL",
      "LargestImagePixelValue": 4095,
      "MRAcquisitionType": "2D",
      "MagneticFieldStrength": 3.0,
      "Manufacturer": "SIEMENS",
      "ManufacturerModelName": "Prisma_fit",
      "Modality": "MR",
      "NumberOfAverages": 1.0,
      "NumberOfPhaseEncodingSteps": 104,
      "PercentPhaseFieldOfView": 100.0,
      "PercentSampling": 100.0,
      "PerformedProcedureStepStartTime": "125019.919000",
      "PhotometricInterpretation": "MONOCHROME2",
      "PixelBandwidth": 2290.0,
      "PixelRepresentation": 0,
      "PixelSpacing": [2.0, 2.0],
      "ProtocolName": "func_task-mario_run-03",
      "RepetitionTime": 1490.0,
      "RescaleIntercept": -4096.0,
      "RescaleSlope": 2.0,
      "RescaleType": "US",
      "Rows": 832,
      "SAR": 0.06176649247625,
      "SamplesPerPixel": 1,
      "ScanOptions": "FS",
      "ScanningSequence": "EP",
      "SequenceName": "epfid2d1_104",
      "SequenceVariant": [
        "SK",
        "SS"
],
      "SeriesDescription": "func_task-mario_run-03",
      "SeriesNumber": 17,
      "SeriesTime": "134655.492000",
      "SliceLocation": -56.123215685119,
      "SliceThickness": 2.0,
      "SmallestImagePixelValue": 0,
      "SoftwareVersions": "syngo MR E11",
      "SpacingBetweenSlices": 1.999999991589,
      "SpecificCharacterSet": "ISO_IR 100",
      "StudyID": "1",
      "StudyTime": "125019.797000",
      "TransmitCoilName": "Body",
      "VariableFlipAngleFlag": "N",
      "WindowCenterWidthExplanation": "Algo1",
      "dBdt": 0.0},
    "slices": {}
  },
  "time": {
    "samples": {
      "AcquisitionNumber": [1, 2, 3, 4, 5, 6, 7, 8, 9, 10, 11, 12, 13, 14, 15, 16, 17, 18, 19, 20, 21, 22, 23, 24, 25, 26, 27, 28, 29, 30, 31, 32, 33, 34, 35, 36, 37, 38, 39, 40, 41, 42, 43, 44, 45, 46, 47, 48, 49, 50, 51, 52, 53, 54, 55, 56, 57, 58, 59, 60, 61, 62, 63, 64, 65, 66, 67, 68, 69, 70, 71, 72, 73, 74, 75, 76, 77, 78, 79, 80, 81, 82, 83, 84, 85, 86, 87, 88, 89, 90, 91, 92, 93, 94, 95, 96, 97, 98, 99, 100, 101, 102, 103, 104, 105, 106, 107, 108, 109, 110, 111, 112, 113, 114, 115, 116, 117, 118, 119, 120, 121, 122, 123, 124, 125, 126, 127, 128, 129, 130, 131, 132, 133, 134, 135, 136, 137, 138, 139, 140, 141, 142, 143, 144, 145, 146, 147, 148, 149, 150, 151, 152, 153, 154, 155, 156, 157, 158, 159, 160, 161, 162, 163, 164, 165, 166, 167, 168, 169, 170, 171, 172, 173, 174, 175, 176, 177, 178, 179, 180, 181, 182, 183, 184, 185, 186, 187, 188, 189, 190, 191, 192, 193, 194, 195, 196, 197, 198, 199, 200, 201, 202, 203, 204, 205, 206, 207, 208, 209, 210, 211, 212, 213, 214, 215, 216, 217, 218, 219, 220, 221, 222, 223, 224, 225, 226, 227, 228, 229, 230, 231, 232, 233, 234, 235, 236, 237, 238, 239, 240, 241, 242, 243, 244, 245, 246, 247, 248, 249, 250, 251, 252, 253, 254, 255, 256, 257, 258, 259, 260, 261, 262, 263, 264, 265, 266, 267, 268, 269, 270, 271, 272, 273, 274, 275, 276, 277, 278, 279, 280, 281, 282, 283, 284, 285, 286, 287, 288, 289, 290, 291, 292, 293, 294, 295, 296, 297, 298, 299, 300, 301, 302, 303, 304, 305, 306, 307, 308, 309, 310, 311, 312, 313, 314, 315, 316, 317, 318, 319, 320, 321, 322, 323, 324, 325, 326, 327, 328, 329, 330, 331, 332, 333, 334, 335, 336, 337, 338, 339, 340, 341, 342, 343, 344, 345, 346, 347, 348, 349, 350, 351, 352, 353, 354, 355, 356, 357, 358, 359, 360, 361, 362, 363, 364, 365, 366, 367, 368, 369, 370, 371, 372, 373, 374, 375, 376, 377, 378, 379, 380, 381, 382, 383, 384, 385, 386, 387, 388, 389, 390, 391, 392, 393, 394, 395, 396, 397, 398, 399, 400, 401, 402, 403, 404, 405, 406, 407, 408, 409, 410, 411, 412, 413, 414, 415, 416, 417, 418, 419, 420, 421, 422, 423, 424, 425, 426, 427, 428, 429, 430, 431, 432, 433, 434, 435, 436, 437, 438, 439, 440, 441, 442, 443, 444, 445, 446, 447, 448, 449, 450, 451, 452, 453, 454, 455, 456, 457, 458, 459, 460, 461, 462, 463, 464, 465, 466, 467, 468, 469, 470, 471, 472, 473, 474, 475, 476, 477, 478, 479, 480, 481, 482, 483, 484, 485, 486, 487, 488, 489, 490, 491, 492, 493, 494, 495, 496, 497, 498, 499, 500, 501, 502, 503, 504, 505, 506, 507, 508, 509, 510, 511, 512, 513, 514, 515, 516, 517, 518, 519, 520, 521, 522, 523, 524, 525, 526, 527, 528, 529, 530, 531, 532, 533, 534, 535, 536, 537],
      "AcquisitionTime": ["134527.182500", "134528.672500", "134530.162500", "134531.652500", "134533.142500", "134534.632500", "134536.122500", "134537.612500", "134539.102500", "134540.592500", "134542.082500", "134543.572500", "134545.062500", "134546.552500", "134548.042500", "134549.532500", "134551.022500", "134552.512500", "134554.002500", "134555.492500", "134556.982500", "134558.472500", "134559.962500", "134601.452500", "134602.942500", "134604.432500", "134605.922500", "134607.412500", "134608.902500", "134610.392500", "134611.882500", "134613.372500", "134614.862500", "134616.352500", "134617.842500", "134619.332500", "134620.822500", "134622.312500", "134623.802500", "134625.292500", "134626.782500", "134628.272500", "134629.762500", "134631.252500", "134632.742500", "134634.232500", "134635.722500", "134637.212500", "134638.702500", "134640.192500", "134641.682500", "134643.172500", "134644.662500", "134646.152500", "134647.642500", "134649.132500", "134650.622500", "134652.112500", "134653.602500", "134655.092500", "134656.582500", "134658.072500", "134659.562500", "134701.052500", "134702.542500", "134704.032500", "134705.522500", "134707.012500", "134708.502500", "134709.992500", "134711.482500", "134712.972500", "134714.462500", "134715.952500", "134717.442500", "134718.932500", "134720.422500", "134721.912500", "134723.402500", "134724.892500", "134726.382500", "134727.872500", "134729.362500", "134730.852500", "134732.342500", "134733.832500", "134735.322500", "134736.812500", "134738.302500", "134739.792500", "134741.282500", "134742.772500", "134744.262500", "134745.752500", "134747.242500", "134748.732500", "134750.222500", "134751.712500", "134753.202500", "134754.692500", "134756.182500", "134757.672500", "134759.162500", "134800.652500", "134802.142500", "134803.632500", "134805.122500", "134806.612500", "134808.102500", "134809.592500", "134811.082500", "134812.572500", "134814.062500", "134815.552500", "134817.042500", "134818.532500", "134820.022500", "134821.512500", "134823.002500", "134824.492500", "134825.982500", "134827.472500", "134828.962500", "134830.452500", "134831.942500", "134833.432500", "134834.922500", "134836.412500", "134837.902500", "134839.392500", "134840.882500", "134842.372500", "134843.862500", "134845.352500", "134846.842500", "134848.332500", "134849.822500", "134851.312500", "134852.802500", "134854.292500", "134855.782500", "134857.272500", "134858.762500", "134900.252500", "134901.742500", "134903.232500", "134904.722500", "134906.212500", "134907.702500", "134909.192500", "134910.682500", "134912.172500", "134913.662500", "134915.152500", "134916.642500", "134918.132500", "134919.622500", "134921.112500", "134922.602500", "134924.092500", "134925.582500", "134927.072500", "134928.562500", "134930.052500", "134931.542500", "134933.032500", "134934.522500", "134936.012500", "134937.502500", "134938.992500", "134940.482500", "134941.972500", "134943.462500", "134944.952500", "134946.442500", "134947.932500", "134949.422500", "134950.912500", "134952.402500", "134953.892500", "134955.382500", "134956.872500", "134958.362500", "134959.852500", "135001.342500", "135002.832500", "135004.322500", "135005.812500", "135007.302500", "135008.792500", "135010.282500", "135011.772500", "135013.262500", "135014.752500", "135016.242500", "135017.732500", "135019.222500", "135020.712500", "135022.202500", "135023.692500", "135025.182500", "135026.672500", "135028.162500", "135029.652500", "135031.142500", "135032.632500", "135034.122500", "135035.612500", "135037.102500", "135038.592500", "135040.082500", "135041.572500", "135043.062500", "135044.552500", "135046.042500", "135047.532500", "135049.022500", "135050.512500", "135052.002500", "135053.492500", "135054.982500", "135056.472500", "135057.962500", "135059.452500", "135100.942500", "135102.432500", "135103.922500", "135105.412500", "135106.902500", "135108.392500", "135109.882500", "135111.372500", "135112.862500", "135114.352500", "135115.842500", "135117.332500", "135118.822500", "135120.312500", "135121.802500", "135123.292500", "135124.782500", "135126.272500", "135127.762500", "135129.252500", "135130.742500", "135132.232500", "135133.722500", "135135.212500", "135136.702500", "135138.192500", "135139.682500", "135141.172500", "135142.662500", "135144.152500", "135145.642500", "135147.132500", "135148.622500", "135150.112500", "135151.602500", "135153.092500", "135154.582500", "135156.072500", "135157.562500", "135159.052500", "135200.542500", "135202.032500", "135203.522500", "135205.012500", "135206.502500", "135207.992500", "135209.482500", "135210.972500", "135212.462500", "135213.952500", "135215.442500", "135216.932500", "135218.422500", "135219.912500", "135221.402500", "135222.892500", "135224.382500", "135225.872500", "135227.362500", "135228.852500", "135230.342500", "135231.832500", "135233.322500", "135234.812500", "135236.302500", "135237.792500", "135239.282500", "135240.772500", "135242.262500", "135243.752500", "135245.242500", "135246.732500", "135248.222500", "135249.712500", "135251.202500", "135252.692500", "135254.182500", "135255.672500", "135257.162500", "135258.652500", "135300.142500", "135301.632500", "135303.122500", "135304.612500", "135306.102500", "135307.592500", "135309.082500", "135310.572500", "135312.062500", "135313.552500", "135315.042500", "135316.532500", "135318.022500", "135319.512500", "135321.002500", "135322.492500", "135323.982500", "135325.472500", "135326.962500", "135328.452500", "135329.942500", "135331.432500", "135332.922500", "135334.412500", "135335.902500", "135337.392500", "135338.882500", "135340.372500", "135341.862500", "135343.352500", "135344.842500", "135346.332500", "135347.822500", "135349.312500", "135350.802500", "135352.292500", "135353.782500", "135355.272500", "135356.762500", "135358.252500", "135359.742500", "135401.232500", "135402.722500", "135404.212500", "135405.702500", "135407.192500", "135408.682500", "135410.172500", "135411.662500", "135413.152500", "135414.642500", "135416.132500", "135417.622500", "135419.112500", "135420.602500", "135422.092500", "135423.582500", "135425.072500", "135426.562500", "135428.052500", "135429.542500", "135431.032500", "135432.522500", "135434.012500", "135435.502500", "135436.992500", "135438.482500", "135439.972500", "135441.462500", "135442.952500", "135444.442500", "135445.932500", "135447.422500", "135448.912500", "135450.402500", "135451.892500", "135453.382500", "135454.872500", "135456.362500", "135457.852500", "135459.342500", "135500.832500", "135502.322500", "135503.812500", "135505.302500", "135506.792500", "135508.282500", "135509.772500", "135511.262500", "135512.752500", "135514.242500", "135515.732500", "135517.222500", "135518.712500", "135520.202500", "135521.692500", "135523.182500", "135524.672500", "135526.162500", "135527.652500", "135529.142500", "135530.632500", "135532.122500", "135533.612500", "135535.102500", "135536.592500", "135538.082500", "135539.572500", "135541.062500", "135542.552500", "135544.042500", "135545.532500", "135547.022500", "135548.512500", "135550.002500", "135551.492500", "135552.982500", "135554.472500", "135555.962500", "135557.452500", "135558.942500", "135600.432500", "135601.922500", "135603.412500", "135604.902500", "135606.392500", "135607.882500", "135609.372500", "135610.862500", "135612.352500", "135613.842500", "135615.332500", "135616.822500", "135618.312500", "135619.802500", "135621.292500", "135622.782500", "135624.272500", "135625.762500", "135627.252500", "135628.742500", "135630.232500", "135631.722500", "135633.212500", "135634.702500", "135636.192500", "135637.682500", "135639.172500", "135640.662500", "135642.152500", "135643.642500", "135645.132500", "135646.622500", "135648.112500", "135649.602500", "135651.092500", "135652.582500", "135654.072500", "135655.562500", "135657.052500", "135658.542500", "135700.032500", "135701.522500", "135703.012500", "135704.502500", "135705.992500", "135707.482500", "135708.972500", "135710.462500", "135711.952500", "135713.442500", "135714.932500", "135716.422500", "135717.912500", "135719.402500", "135720.892500", "135722.382500", "135723.872500", "135725.362500", "135726.852500", "135728.342500", "135729.832500", "135731.322500", "135732.812500", "135734.302500", "135735.792500", "135737.282500", "135738.772500", "135740.262500", "135741.752500", "135743.242500", "135744.732500", "135746.222500", "135747.712500", "135749.202500", "135750.692500", "135752.182500", "135753.672500", "135755.162500", "135756.652500", "135758.142500", "135759.632500", "135801.122500", "135802.612500", "135804.102500", "135805.592500", "135807.082500", "135808.572500", "135810.062500", "135811.552500", "135813.042500", "135814.532500", "135816.022500", "135817.512500", "135819.002500", "135820.492500", "135821.982500", "135823.472500", "135824.962500", "135826.452500", "135827.942500", "135829.432500", "135830.922500", "135832.412500", "135833.902500", "135835.392500", "135836.882500", "135838.372500", "135839.862500", "135841.352500", "135842.842500", "135844.332500", "135845.822500"],
      "ContentTime": ["134655.494000", "134655.497000", "134655.500000", "134655.502000", "134655.505000", "134655.507000", "134655.510000", "134655.513000", "134655.515000", "134655.518000", "134655.520000", "134655.523000", "134655.526000", "134655.528000", "134655.531000", "134655.533000", "134655.536000", "134655.539000", "134655.547000", "134655.549000", "134655.552000", "134655.555000", "134655.558000", "134655.562000", "134655.565000", "134655.568000", "134655.572000", "134655.576000", "134655.579000", "134655.582000", "134655.585000", "134655.588000", "134655.590000", "134655.593000", "134715.400000", "134715.402000", "134715.405000", "134715.408000", "134715.410000", "134715.413000", "134715.415000", "134715.418000", "134715.422000", "134715.424000", "134715.427000", "134715.430000", "134715.433000", "134715.435000", "134715.439000", "134715.441000", "134715.445000", "134715.448000", "134715.450000", "134715.453000", "134735.398000", "134735.401000", "134735.404000", "134735.409000", "134735.411000", "134735.414000", "134735.417000", "134735.419000", "134735.422000", "134735.424000", "134735.427000", "134735.430000", "134735.432000", "134735.435000", "134735.437000", "134735.440000", "134735.443000", "134735.445000", "134735.448000", "134735.450000", "134755.427000", "134755.430000", "134755.433000", "134755.435000", "134755.438000", "134755.440000", "134755.443000", "134755.445000", "134755.448000", "134755.451000", "134755.453000", "134755.456000", "134755.458000", "134755.461000", "134755.464000", "134755.466000", "134755.469000", "134755.471000", "134755.474000", "134755.477000", "134755.479000", "134835.448000", "134835.452000", "134835.455000", "134835.458000", "134835.461000", "134835.464000", "134835.466000", "134835.469000", "134835.472000", "134835.474000", "134835.477000", "134835.480000", "134835.483000", "134835.485000", "134835.488000", "134835.490000", "134835.493000", "134835.495000", "134835.498000", "134835.501000", "134835.503000", "134835.506000", "134835.508000", "134835.511000", "134835.514000", "134835.516000", "134835.519000", "134835.521000", "134835.524000", "134835.526000", "134915.420000", "134915.423000", "134915.425000", "134915.428000", "134915.431000", "134915.433000", "134915.436000", "134915.438000", "134915.441000", "134915.444000", "134915.446000", "134915.449000", "134915.451000", "134915.454000", "134915.457000", "134915.459000", "134915.462000", "134915.464000", "134915.467000", "134915.470000", "134915.472000", "134915.475000", "134915.477000", "134915.480000", "134915.482000", "134915.485000", "134915.488000", "134955.422000", "134955.424000", "134955.427000", "134955.430000", "134955.432000", "134955.435000", "134955.437000", "134955.440000", "134955.443000", "134955.445000", "134955.448000", "134955.450000", "134955.453000", "134955.455000", "134955.458000", "134955.460000", "134955.463000", "134955.466000", "134955.468000", "134955.471000", "134955.474000", "134955.476000", "134955.479000", "134955.481000", "134955.484000", "134955.486000", "134955.489000", "135035.442000", "135035.444000", "135035.447000", "135035.450000", "135035.452000", "135035.455000", "135035.458000", "135035.460000", "135035.463000", "135035.465000", "135035.468000", "135035.471000", "135035.473000", "135035.476000", "135035.478000", "135035.481000", "135035.483000", "135035.486000", "135035.489000", "135035.491000", "135035.494000", "135035.496000", "135035.499000", "135035.502000", "135035.504000", "135035.507000", "135035.509000", "135115.421000", "135115.424000", "135115.426000", "135115.429000", "135115.432000", "135115.434000", "135115.437000", "135115.439000", "135115.442000", "135115.444000", "135115.447000", "135115.450000", "135115.452000", "135115.455000", "135115.457000", "135115.460000", "135115.463000", "135115.465000", "135115.468000", "135115.470000", "135115.473000", "135115.476000", "135115.478000", "135115.481000", "135115.483000", "135115.486000", "135115.488000", "135155.799000", "135155.802000", "135155.805000", "135155.807000", "135155.810000", "135155.812000", "135155.815000", "135155.818000", "135155.820000", "135155.823000", "135155.825000", "135155.828000", "135155.831000", "135155.833000", "135155.836000", "135155.838000", "135155.841000", "135155.843000", "135155.846000", "135155.849000", "135155.851000", "135155.854000", "135155.857000", "135155.869000", "135155.871000", "135155.874000", "135155.877000", "135235.432000", "135235.434000", "135235.437000", "135235.439000", "135235.442000", "135235.450000", "135235.453000", "135235.455000", "135235.458000", "135235.461000", "135235.463000", "135235.466000", "135235.468000", "135235.471000", "135235.474000", "135235.476000", "135235.479000", "135235.482000", "135235.484000", "135235.487000", "135235.489000", "135235.492000", "135235.495000", "135235.497000", "135235.500000", "135235.502000", "135255.370000", "135255.373000", "135255.376000", "135255.378000", "135255.381000", "135255.384000", "135255.386000", "135255.389000", "135255.391000", "135255.394000", "135255.397000", "135255.399000", "135255.402000", "135255.404000", "135335.433000", "135335.435000", "135335.438000", "135335.441000", "135335.443000", "135335.446000", "135335.449000", "135335.451000", "135335.454000", "135335.456000", "135335.459000", "135335.462000", "135335.464000", "135335.467000", "135335.469000", "135335.472000", "135335.475000", "135335.477000", "135335.480000", "135335.482000", "135335.485000", "135335.487000", "135335.490000", "135335.493000", "135335.495000", "135335.498000", "135335.500000", "135415.514000", "135415.517000", "135415.520000", "135415.528000", "135415.530000", "135415.533000", "135415.535000", "135415.538000", "135415.541000", "135415.543000", "135415.546000", "135415.548000", "135415.551000", "135415.553000", "135415.556000", "135415.559000", "135415.561000", "135415.564000", "135415.566000", "135415.569000", "135415.572000", "135415.574000", "135415.577000", "135415.579000", "135415.582000", "135415.585000", "135455.449000", "135455.452000", "135455.455000", "135455.457000", "135455.460000", "135455.463000", "135455.465000", "135455.468000", "135455.470000", "135455.473000", "135455.476000", "135455.478000", "135455.481000", "135455.483000", "135455.486000", "135455.489000", "135455.491000", "135455.494000", "135455.496000", "135455.499000", "135455.502000", "135455.504000", "135455.507000", "135455.509000", "135455.512000", "135455.514000", "135455.517000", "135535.435000", "135535.438000", "135535.440000", "135535.443000", "135535.445000", "135535.448000", "135535.451000", "135535.453000", "135535.456000", "135535.458000", "135535.461000", "135535.464000", "135535.466000", "135535.469000", "135535.471000", "135535.474000", "135535.476000", "135535.479000", "135535.483000", "135535.485000", "135535.488000", "135535.491000", "135535.493000", "135535.496000", "135535.498000", "135535.501000", "135535.504000", "135615.425000", "135615.427000", "135615.430000", "135615.433000", "135615.435000", "135615.438000", "135615.441000", "135615.443000", "135615.446000", "135615.448000", "135615.451000", "135615.453000", "135615.456000", "135615.459000", "135615.461000", "135615.464000", "135615.466000", "135615.469000", "135615.472000", "135615.474000", "135615.477000", "135615.479000", "135615.482000", "135615.485000", "135615.487000", "135615.490000", "135615.492000", "135655.444000", "135655.447000", "135655.450000", "135655.452000", "135655.455000", "135655.458000", "135655.460000", "135655.463000", "135655.473000", "135655.476000", "135655.478000", "135655.481000", "135655.483000", "135655.486000", "135655.488000", "135655.491000", "135655.494000", "135655.496000", "135655.499000", "135655.502000", "135655.505000", "135655.507000", "135655.510000", "135655.513000", "135655.515000", "135655.518000", "135655.520000", "135735.431000", "135735.434000", "135735.436000", "135735.439000", "135735.441000", "135735.444000", "135735.447000", "135735.449000", "135735.452000", "135735.455000", "135735.457000", "135735.460000", "135735.462000", "135735.465000", "135735.468000", "135735.470000", "135735.473000", "135735.475000", "135735.478000", "135735.480000", "135735.483000", "135735.485000", "135735.488000", "135735.491000", "135735.493000", "135735.496000", "135735.499000", "135815.422000", "135815.425000", "135815.428000", "135815.430000", "135815.433000", "135815.436000", "135815.438000", "135815.441000", "135815.443000", "135815.446000", "135815.449000", "135815.451000", "135815.454000", "135815.457000", "135815.459000", "135815.462000", "135815.464000", "135815.467000", "135815.469000", "135815.472000", "135815.475000", "135815.477000", "135815.480000", "135815.482000", "135815.485000", "135815.488000", "135815.490000", "135848.564000", "135848.567000", "135848.569000", "135848.572000", "135848.575000", "135848.577000", "135848.580000", "135848.583000", "135848.585000", "135848.588000", "135848.590000", "135848.593000", "135848.596000", "135848.598000", "135848.601000", "135848.603000", "135848.606000", "135848.609000", "135848.611000", "135848.614000", "135848.617000", "135848.619000"],
