{
  "AcquisitionMatrixPE": 104,
  "AcquisitionNumber": 1,
  "AcquisitionTime": "13:41:22.407500",
  "BandwidthPerPixelPhaseEncode": 17.17,
  "BaseResolution": 104,
  "BodyPartExamined": "BRAIN",
  "CoilCombinationMethod": "Sum of Squares",
  "ConsistencyInfo": "N4_VE11C_LATEST_20160120",
  "ConversionSoftware": "dcm2niix",
  "ConversionSoftwareVersion": "v1.0.20211006",
  "DerivedVendorReportedEchoSpacing": 0.000560011,
  "DeviceSerialNumber": "167006",
  "DwellTime": 2.1e-06,
  "EchoTime": 0.037,
  "EchoTime1": 0.037,
  "EchoTime2": 0.001,
  "EchoTrainLength": 104,
  "EffectiveEchoSpacing": 0.000560011,
  "FlipAngle": 52,
  "HeudiconvVersion": "0.10.0",
  "ImageComments": "Unaliased MB4/PE3/LB",
  "ImageOrientationPatientDICOM": [0.999657, 0.0230986, 0.0123604, -0.0132607, 0.853047, -0.521666],
  "ImageOrientationText": "Tra>Cor(-31.4)>Sag(1.3)",
  "ImageType": [
    "ORIGINAL",
    "PRIMARY",
    "P",
    "MB",
    "ND",
    "MOSAIC",
    "PHASE"
],
  "ImagingFrequency": 123.259,
  "InPlanePhaseEncodingDirectionDICOM": "COL",
  "InstitutionAddress": "Chemin Queen-Mary 4565,Montreal,District,CA,H3W 1W5",
  "InstitutionName": "IUGM",
  "InstitutionalDepartmentName": "Department",
  "MRAcquisitionType": "2D",
  "MagneticFieldStrength": 3,
  "Manufacturer": "Siemens",
  "ManufacturersModelName": "Prisma_fit",
  "MatrixCoilMode": "SENSE",
  "Modality": "MR",
  "MultibandAccelerationFactor": 4,
  "PartialFourier": 1,
  "PatientPosition": "HFS",
  "PercentPhaseFOV": 100,
  "PercentSampling": 100,
  "PhaseEncodingDirection": "j",
  "PhaseEncodingSteps": 104,
  "PhaseResolution": 1,
  "PixelBandwidth": 2290,
  "ProcedureStepDescription": "games^mario",
  "ProtocolName": "func_task-mario_run-01",
  "PulseSequenceDetails": "%CustomerSeq%\\cmrr_mbep2d_bold",
  "ReceiveCoilActiveElements": "HC1-7;NC1,2",
  "ReceiveCoilName": "HeadNeck_64",
  "ReconMatrixPE": 104,
  "RepetitionTime": 1.49,
  "SAR": 0.0856092,
  "ScanOptions": "FS",
  "ScanningSequence": "EP",
  "SequenceName": "epfid2d1_104",
  "SequenceVariant": "SK\\SS",
  "SeriesDescription": "func_task-mario_run-01",
  "SeriesNumber": 11,
  "ShimSetting": [625, -7188, -8854, 253, 26, -127, -5, 4],
  "SliceThickness": 2,
  "SliceTiming": [0, 0.7825, 0.0975, 0.8825, 0.195, 0.98, 0.2925, 1.0775, 0.3925, 1.175, 0.49, 1.2725, 0.5875, 1.3725, 0.685, 0, 0.7825, 0.0975, 0.8825, 0.195, 0.98, 0.2925, 1.0775, 0.3925, 1.175, 0.49, 1.2725, 0.5875, 1.3725, 0.685, 0, 0.7825, 0.0975, 0.8825, 0.195, 0.98, 0.2925, 1.0775, 0.3925, 1.175, 0.49, 1.2725, 0.5875, 1.3725, 0.685, 0, 0.7825, 0.0975, 0.8825, 0.195, 0.98, 0.2925, 1.0775, 0.3925, 1.175, 0.49, 1.2725, 0.5875, 1.3725, 0.685],
  "SoftwareVersions": "syngo MR E11",
  "SpacingBetweenSlices": 2,
  "StationName": "MRC35049",
  "TaskName": "mario",
  "TotalReadoutTime": 0.0576811,
  "TxRefAmp": 331.481,
  "WipMemBlock": "f7412c5c-bf71-4df2-b4ec-891551df1dc4||Sequence: R016 ve11c/master r/e634e98; Dec 19 2017 11:00:25 by eja",
  "dcmmeta_affine": [
    [-1.9993135929107666, -0.02652146853506565, 0.045187462121248245, 107.49430084228516],
    [-0.04619716852903366, 1.706093668937683, -1.042645812034607, -47.776123046875],
    [0.024720769375562668, 1.0433317422866821, 1.7061207294464111, -88.34933471679688],
    [0.0, 0.0, 0.0, 1.0]
],
  "dcmmeta_reorient_transform": [
    [0.0, -1.0, 0.0, 103.0],
    [1.0, 0.0, 0.0, 0.0],
    [0.0, 0.0, 1.0, 0.0],
    [0.0, 0.0, 0.0, 1.0]
],
  "dcmmeta_shape": [104, 104, 60, 439],
  "dcmmeta_slice_dim": 2,
  "dcmmeta_version": 0.6,
  "global": {
    "const": {
      "AcquisitionMatrix": [104, 0, 0, 104],
      "AngioFlag": "N",
      "BitsAllocated": 16,
      "BitsStored": 16,
      "BodyPartExamined": "BRAIN",
      "Columns": 832,
      "EchoNumbers": 1,
      "EchoTime": 37.0,
      "EchoTrainLength": 104,
      "FlipAngle": 52.0,
      "HighBit": 15,
      "ImageOrientationPatient": [0.9996567792403, 0.02309858452134, 0.01236038478466, -0.0132607342845, 0.85304681275646, -0.5216658779068],
      "ImagePositionPatient": [-822.85891166118, -765.78536799607, 389.88823885064],
      "ImageType": [
        "ORIGINAL",
        "PRIMARY",
        "P",
        "MB",
        "ND",
        "MOSAIC"
],
      "ImagedNucleus": "1H",
      "ImagingFrequency": 123.258868,
      "InPlanePhaseEncodingDirection": "COL",
      "LargestImagePixelValue": 4095,
      "MRAcquisitionType": "2D",
      "MagneticFieldStrength": 3.0,
      "Manufacturer": "SIEMENS",
      "ManufacturerModelName": "Prisma_fit",
      "Modality": "MR",
      "NumberOfAverages": 1.0,
      "NumberOfPhaseEncodingSteps": 104,
      "PercentPhaseFieldOfView": 100.0,
      "PercentSampling": 100.0,
      "PerformedProcedureStepStartTime": "133325.976000",
      "PhotometricInterpretation": "MONOCHROME2",
      "PixelBandwidth": 2290.0,
      "PixelRepresentation": 0,
      "PixelSpacing": [2.0, 2.0],
      "ProtocolName": "func_task-mario_run-01",
      "RepetitionTime": 1490.0,
      "RescaleIntercept": -4096.0,
      "RescaleSlope": 2.0,
      "RescaleType": "US",
      "Rows": 832,
      "SAR": 0.08560919985958,
      "SamplesPerPixel": 1,
      "ScanOptions": "FS",
      "ScanningSequence": "EP",
      "SequenceName": "epfid2d1_104",
      "SequenceVariant": [
        "SK",
        "SS"
],
      "SeriesDescription": "func_task-mario_run-01",
      "SeriesNumber": 11,
      "SeriesTime": "134236.513000",
      "SliceLocation": -48.031823523099,
      "SliceThickness": 2.0,
      "SmallestImagePixelValue": 0,
      "SoftwareVersions": "syngo MR E11",
      "SpacingBetweenSlices": 2.0000000175569,
      "SpecificCharacterSet": "ISO_IR 100",
      "StudyID": "1",
      "StudyTime": "133325.924000",
      "TransmitCoilName": "Body",
      "VariableFlipAngleFlag": "N",
      "WindowCenterWidthExplanation": "Algo1",
      "dBdt": 0.0},
    "slices": {}
  },
  "time": {
    "samples": {
      "AcquisitionNumber": [1, 2, 3, 4, 5, 6, 7, 8, 9, 10, 11, 12, 13, 14, 15, 16, 17, 18, 19, 20, 21, 22, 23, 24, 25, 26, 27, 28, 29, 30, 31, 32, 33, 34, 35, 36, 37, 38, 39, 40, 41, 42, 43, 44, 45, 46, 47, 48, 49, 50, 51, 52, 53, 54, 55, 56, 57, 58, 59, 60, 61, 62, 63, 64, 65, 66, 67, 68, 69, 70, 71, 72, 73, 74, 75, 76, 77, 78, 79, 80, 81, 82, 83, 84, 85, 86, 87, 88, 89, 90, 91, 92, 93, 94, 95, 96, 97, 98, 99, 100, 101, 102, 103, 104, 105, 106, 107, 108, 109, 110, 111, 112, 113, 114, 115, 116, 117, 118, 119, 120, 121, 122, 123, 124, 125, 126, 127, 128, 129, 130, 131, 132, 133, 134, 135, 136, 137, 138, 139, 140, 141, 142, 143, 144, 145, 146, 147, 148, 149, 150, 151, 152, 153, 154, 155, 156, 157, 158, 159, 160, 161, 162, 163, 164, 165, 166, 167, 168, 169, 170, 171, 172, 173, 174, 175, 176, 177, 178, 179, 180, 181, 182, 183, 184, 185, 186, 187, 188, 189, 190, 191, 192, 193, 194, 195, 196, 197, 198, 199, 200, 201, 202, 203, 204, 205, 206, 207, 208, 209, 210, 211, 212, 213, 214, 215, 216, 217, 218, 219, 220, 221, 222, 223, 224, 225, 226, 227, 228, 229, 230, 231, 232, 233, 234, 235, 236, 237, 238, 239, 240, 241, 242, 243, 244, 245, 246, 247, 248, 249, 250, 251, 252, 253, 254, 255, 256, 257, 258, 259, 260, 261, 262, 263, 264, 265, 266, 267, 268, 269, 270, 271, 272, 273, 274, 275, 276, 277, 278, 279, 280, 281, 282, 283, 284, 285, 286, 287, 288, 289, 290, 291, 292, 293, 294, 295, 296, 297, 298, 299, 300, 301, 302, 303, 304, 305, 306, 307, 308, 309, 310, 311, 312, 313, 314, 315, 316, 317, 318, 319, 320, 321, 322, 323, 324, 325, 326, 327, 328, 329, 330, 331, 332, 333, 334, 335, 336, 337, 338, 339, 340, 341, 342, 343, 344, 345, 346, 347, 348, 349, 350, 351, 352, 353, 354, 355, 356, 357, 358, 359, 360, 361, 362, 363, 364, 365, 366, 367, 368, 369, 370, 371, 372, 373, 374, 375, 376, 377, 378, 379, 380, 381, 382, 383, 384, 385, 386, 387, 388, 389, 390, 391, 392, 393, 394, 395, 396, 397, 398, 399, 400, 401, 402, 403, 404, 405, 406, 407, 408, 409, 410, 411, 412, 413, 414, 415, 416, 417, 418, 419, 420, 421, 422, 423, 424, 425, 426, 427, 428, 429, 430, 431, 432, 433, 434, 435, 436, 437, 438, 439],
      "AcquisitionTime": ["134122.407500", "134123.897500", "134125.387500", "134126.877500", "134128.367500", "134129.857500", "134131.347500", "134132.837500", "134134.327500", "134135.817500", "134137.307500", "134138.797500", "134140.287500", "134141.777500", "134143.267500", "134144.757500", "134146.247500", "134147.737500", "134149.227500", "134150.717500", "134152.207500", "134153.697500", "134155.187500", "134156.677500", "134158.167500", "134159.657500", "134201.147500", "134202.637500", "134204.127500", "134205.617500", "134207.107500", "134208.597500", "134210.087500", "134211.577500", "134213.067500", "134214.557500", "134216.047500", "134217.537500", "134219.027500", "134220.517500", "134222.007500", "134223.497500", "134224.987500", "134226.477500", "134227.967500", "134229.457500", "134230.947500", "134232.437500", "134233.927500", "134235.417500", "134236.907500", "134238.397500", "134239.887500", "134241.377500", "134242.867500", "134244.357500", "134245.847500", "134247.337500", "134248.827500", "134250.317500", "134251.807500", "134253.297500", "134254.787500", "134256.277500", "134257.767500", "134259.257500", "134300.747500", "134302.237500", "134303.727500", "134305.217500", "134306.707500", "134308.197500", "134309.687500", "134311.177500", "134312.667500", "134314.157500", "134315.647500", "134317.137500", "134318.627500", "134320.117500", "134321.607500", "134323.097500", "134324.587500", "134326.077500", "134327.567500", "134329.057500", "134330.547500", "134332.037500", "134333.527500", "134335.017500", "134336.507500", "134337.997500", "134339.487500", "134340.977500", "134342.467500", "134343.957500", "134345.447500", "134346.937500", "134348.427500", "134349.917500", "134351.407500", "134352.897500", "134354.387500", "134355.877500", "134357.367500", "134358.857500", "134400.347500", "134401.837500", "134403.327500", "134404.817500", "134406.307500", "134407.797500", "134409.287500", "134410.777500", "134412.267500", "134413.757500", "134415.247500", "134416.737500", "134418.227500", "134419.717500", "134421.207500", "134422.697500", "134424.187500", "134425.677500", "134427.167500", "134428.657500", "134430.147500", "134431.637500", "134433.127500", "134434.617500", "134436.107500", "134437.597500", "134439.087500", "134440.577500", "134442.067500", "134443.557500", "134445.047500", "134446.537500", "134448.027500", "134449.517500", "134451.007500", "134452.497500", "134453.987500", "134455.477500", "134456.967500", "134458.457500", "134459.947500", "134501.437500", "134502.927500", "134504.417500", "134505.907500", "134507.397500", "134508.887500", "134510.377500", "134511.867500", "134513.357500", "134514.847500", "134516.337500", "134517.827500", "134519.317500", "134520.807500", "134522.297500", "134523.787500", "134525.277500", "134526.767500", "134528.257500", "134529.747500", "134531.237500", "134532.727500", "134534.217500", "134535.707500", "134537.197500", "134538.687500", "134540.177500", "134541.667500", "134543.157500", "134544.647500", "134546.137500", "134547.627500", "134549.117500", "134550.607500", "134552.097500", "134553.587500", "134555.077500", "134556.567500", "134558.057500", "134559.547500", "134601.037500", "134602.527500", "134604.017500", "134605.507500", "134606.997500", "134608.487500", "134609.977500", "134611.467500", "134612.957500", "134614.447500", "134615.937500", "134617.427500", "134618.917500", "134620.407500", "134621.897500", "134623.387500", "134624.877500", "134626.367500", "134627.857500", "134629.347500", "134630.837500", "134632.327500", "134633.817500", "134635.307500", "134636.797500", "134638.287500", "134639.777500", "134641.267500", "134642.757500", "134644.247500", "134645.737500", "134647.227500", "134648.717500", "134650.207500", "134651.697500", "134653.187500", "134654.677500", "134656.167500", "134657.657500", "134659.147500", "134700.637500", "134702.127500", "134703.617500", "134705.107500", "134706.597500", "134708.087500", "134709.577500", "134711.067500", "134712.557500", "134714.047500", "134715.537500", "134717.027500", "134718.517500", "134720.007500", "134721.497500", "134722.987500", "134724.477500", "134725.967500", "134727.457500", "134728.947500", "134730.437500", "134731.927500", "134733.417500", "134734.907500", "134736.397500", "134737.887500", "134739.377500", "134740.867500", "134742.357500", "134743.847500", "134745.337500", "134746.827500", "134748.317500", "134749.807500", "134751.297500", "134752.787500", "134754.277500", "134755.767500", "134757.257500", "134758.747500", "134800.237500", "134801.727500", "134803.217500", "134804.707500", "134806.197500", "134807.687500", "134809.177500", "134810.667500", "134812.157500", "134813.647500", "134815.137500", "134816.627500", "134818.117500", "134819.607500", "134821.097500", "134822.587500", "134824.077500", "134825.567500", "134827.057500", "134828.547500", "134830.037500", "134831.527500", "134833.017500", "134834.507500", "134835.997500", "134837.487500", "134838.977500", "134840.467500", "134841.957500", "134843.447500", "134844.937500", "134846.427500", "134847.917500", "134849.407500", "134850.897500", "134852.387500", "134853.877500", "134855.367500", "134856.857500", "134858.347500", "134859.837500", "134901.327500", "134902.817500", "134904.307500", "134905.797500", "134907.287500", "134908.777500", "134910.267500", "134911.757500", "134913.247500", "134914.737500", "134916.227500", "134917.717500", "134919.207500", "134920.697500", "134922.187500", "134923.677500", "134925.167500", "134926.657500", "134928.147500", "134929.637500", "134931.127500", "134932.617500", "134934.107500", "134935.597500", "134937.087500", "134938.577500", "134940.067500", "134941.557500", "134943.047500", "134944.537500", "134946.027500", "134947.517500", "134949.007500", "134950.497500", "134951.987500", "134953.477500", "134954.967500", "134956.457500", "134957.947500", "134959.437500", "135000.927500", "135002.417500", "135003.907500", "135005.397500", "135006.887500", "135008.377500", "135009.867500", "135011.357500", "135012.847500", "135014.337500", "135015.827500", "135017.317500", "135018.807500", "135020.297500", "135021.787500", "135023.277500", "135024.767500", "135026.257500", "135027.747500", "135029.237500", "135030.727500", "135032.217500", "135033.707500", "135035.197500", "135036.687500", "135038.177500", "135039.667500", "135041.157500", "135042.647500", "135044.137500", "135045.627500", "135047.117500", "135048.607500", "135050.097500", "135051.587500", "135053.077500", "135054.567500", "135056.057500", "135057.547500", "135059.037500", "135100.527500", "135102.017500", "135103.507500", "135104.997500", "135106.487500", "135107.977500", "135109.467500", "135110.957500", "135112.447500", "135113.937500", "135115.427500", "135116.917500", "135118.407500", "135119.897500", "135121.387500", "135122.877500", "135124.367500", "135125.857500", "135127.347500", "135128.837500", "135130.327500", "135131.817500", "135133.307500", "135134.797500", "135136.287500", "135137.777500", "135139.267500", "135140.757500", "135142.247500", "135143.737500", "135145.227500", "135146.717500", "135148.207500", "135149.697500", "135151.187500", "135152.677500", "135154.167500", "135155.657500", "135157.147500", "135158.637500", "135200.127500", "135201.617500", "135203.107500", "135204.597500", "135206.087500", "135207.577500", "135209.067500", "135210.557500", "135212.047500", "135213.537500", "135215.027500"],
      "ContentTime": ["134236.515000", "134236.518000", "134236.520000", "134236.523000", "134236.525000", "134236.528000", "134236.530000", "134236.533000", "134236.535000", "134236.538000", "134236.540000", "134236.543000", "134236.549000", "134236.551000", "134236.554000", "134236.556000", "134236.559000", "134236.561000", "134236.564000", "134256.478000", "134256.481000", "134256.484000", "134256.486000", "134256.489000", "134256.491000", "134256.494000", "134256.496000", "134256.499000", "134256.501000", "134256.504000", "134256.506000", "134256.509000", "134256.511000", "134256.514000", "134256.516000", "134256.519000", "134256.521000", "134256.524000", "134256.527000", "134316.489000", "134316.491000", "134316.494000", "134316.497000", "134316.499000", "134316.502000", "134316.504000", "134316.507000", "134316.509000", "134316.512000", "134316.514000", "134316.517000", "134316.519000", "134316.522000", "134316.524000", "134316.527000", "134316.529000", "134316.532000", "134316.534000", "134316.537000", "134336.482000", "134336.484000", "134336.487000", "134336.490000", "134336.492000", "134336.495000", "134336.497000", "134336.500000", "134336.502000", "134336.505000", "134336.507000", "134336.510000", "134336.512000", "134336.515000", "134336.517000", "134336.520000", "134336.522000", "134336.525000", "134336.527000", "134336.530000", "134356.493000", "134356.496000", "134356.503000", "134356.506000", "134356.508000", "134356.511000", "134356.513000", "134356.516000", "134356.518000", "134356.521000", "134356.523000", "134356.526000", "134356.528000", "134356.531000", "134356.533000", "134356.536000", "134356.538000", "134356.541000", "134356.543000", "134356.546000", "134436.524000", "134436.527000", "134436.530000", "134436.532000", "134436.535000", "134436.537000", "134436.540000", "134436.542000", "134436.545000", "134436.547000", "134436.550000", "134436.552000", "134436.560000", "134436.563000", "134436.565000", "134436.568000", "134436.571000", "134436.573000", "134436.576000", "134436.578000", "134436.581000", "134436.583000", "134436.586000", "134436.588000", "134436.591000", "134436.593000", "134436.596000", "134436.598000", "134436.601000", "134436.603000", "134516.509000", "134516.511000", "134516.514000", "134516.516000", "134516.519000", "134516.521000", "134516.524000", "134516.527000", "134516.529000", "134516.532000", "134516.534000", "134516.537000", "134516.539000", "134516.542000", "134516.544000", "134516.547000", "134516.549000", "134516.552000", "134516.554000", "134516.557000", "134516.560000", "134516.562000", "134516.564000", "134516.567000", "134516.570000", "134516.572000", "134516.575000", "134556.516000", "134556.519000", "134556.521000", "134556.524000", "134556.526000", "134556.529000", "134556.531000", "134556.534000", "134556.536000", "134556.539000", "134556.542000", "134556.544000", "134556.547000", "134556.549000", "134556.552000", "134556.554000", "134556.557000", "134556.559000", "134556.562000", "134556.564000", "134556.567000", "134556.570000", "134556.572000", "134556.575000", "134556.577000", "134556.580000", "134556.582000", "134636.519000", "134636.522000", "134636.524000", "134636.527000", "134636.529000", "134636.532000", "134636.534000", "134636.537000", "134636.539000", "134636.542000", "134636.544000", "134636.547000", "134636.549000", "134636.552000", "134636.555000", "134636.557000", "134636.560000", "134636.562000", "134636.565000", "134636.567000", "134636.570000", "134636.572000", "134636.575000", "134636.577000", "134636.580000", "134636.582000", "134636.585000", "134716.510000", "134716.513000", "134716.515000", "134716.518000", "134716.520000", "134716.523000", "134716.525000", "134716.528000", "134716.530000", "134716.533000", "134716.535000", "134716.538000", "134716.540000", "134716.543000", "134716.546000", "134716.548000", "134716.551000", "134716.553000", "134716.556000", "134716.558000", "134716.561000", "134716.563000", "134716.566000", "134716.568000", "134716.571000", "134716.573000", "134716.576000", "134756.814000", "134756.817000", "134756.819000", "134756.822000", "134756.825000", "134756.827000", "134756.830000", "134756.832000", "134756.835000", "134756.837000", "134756.840000", "134756.842000", "134756.845000", "134756.847000", "134756.850000", "134756.852000", "134756.855000", "134756.857000", "134756.860000", "134756.863000", "134756.865000", "134756.868000", "134756.870000", "134756.873000", "134756.875000", "134756.878000", "134756.880000", "134836.508000", "134836.511000", "134836.521000", "134836.524000", "134836.526000", "134836.529000", "134836.531000", "134836.534000", "134836.536000", "134836.539000", "134836.542000", "134836.544000", "134836.547000", "134836.549000", "134836.552000", "134836.554000", "134836.557000", "134836.559000", "134836.562000", "134836.564000", "134836.567000", "134836.569000", "134836.572000", "134836.575000", "134836.577000", "134836.580000", "134916.504000", "134916.507000", "134916.510000", "134916.512000", "134916.515000", "134916.517000", "134916.520000", "134916.522000", "134916.525000", "134916.528000", "134916.531000", "134916.533000", "134916.536000", "134916.538000", "134916.541000", "134916.543000", "134916.546000", "134916.548000", "134916.551000", "134916.553000", "134916.556000", "134916.559000", "134916.561000", "134916.564000", "134916.566000", "134916.569000", "134916.571000", "134956.518000", "134956.520000", "134956.523000", "134956.526000", "134956.528000", "134956.531000", "134956.533000", "134956.536000", "134956.538000", "134956.541000", "134956.543000", "134956.546000", "134956.548000", "134956.551000", "134956.553000", "134956.556000", "134956.559000", "134956.561000", "134956.564000", "134956.566000", "134956.569000", "134956.571000", "134956.574000", "134956.576000", "134956.579000", "134956.581000", "134956.584000", "135036.509000", "135036.512000", "135036.515000", "135036.517000", "135036.520000", "135036.522000", "135036.525000", "135036.527000", "135036.530000", "135036.533000", "135036.535000", "135036.538000", "135036.540000", "135036.543000", "135036.545000", "135036.548000", "135036.550000", "135036.553000", "135036.555000", "135036.558000", "135036.560000", "135036.563000", "135036.565000", "135036.568000", "135036.571000", "135036.573000", "135036.576000", "135116.518000", "135116.521000", "135116.523000", "135116.526000", "135116.529000", "135116.531000", "135116.534000", "135116.536000", "135116.539000", "135116.541000", "135116.544000", "135116.546000", "135116.549000", "135116.551000", "135116.554000", "135116.556000", "135116.559000", "135116.561000", "135116.564000", "135116.567000", "135116.569000", "135116.572000", "135116.574000", "135116.577000", "135116.580000", "135116.582000", "135116.585000", "135156.521000", "135156.524000", "135156.526000", "135156.529000", "135156.531000", "135156.534000", "135156.536000", "135156.539000", "135156.541000", "135156.544000", "135156.546000", "135156.549000", "135156.551000", "135156.554000", "135156.556000", "135156.559000", "135156.562000", "135156.564000", "135156.567000", "135156.569000", "135156.572000", "135156.574000", "135156.577000", "135156.579000", "135156.582000", "135156.584000", "135156.587000", "135217.107000", "135217.110000", "135217.113000", "135217.115000", "135217.118000", "135217.120000", "135217.123000", "135217.125000", "135217.128000", "135217.131000", "135217.133000", "135217.136000", "135217.138000", "135217.141000"],
