{
  "AcquisitionMatrixPE": 104,
  "AcquisitionNumber": 1,
  "AcquisitionTime": "14:06:23.292500",
  "BandwidthPerPixelPhaseEncode": 17.17,
  "BaseResolution": 104,
  "BodyPartExamined": "BRAIN",
  "CoilCombinationMethod": "Sum of Squares",
  "ConsistencyInfo": "N4_VE11C_LATEST_20160120",
  "ConversionSoftware": "dcm2niix",
  "ConversionSoftwareVersion": "v1.0.20211006",
  "DerivedVendorReportedEchoSpacing": 0.000560011,
  "DeviceSerialNumber": "167006",
  "DwellTime": 2.1e-06,
  "EchoTime": 0.037,
  "EchoTrainLength": 104,
  "EffectiveEchoSpacing": 0.000560011,
  "FlipAngle": 52,
  "HeudiconvVersion": "0.10.0",
  "ImageComments": "Unaliased MB4/PE3/LB",
  "ImageOrientationPatientDICOM": [0.999657, 0.0230986, 0.0123604, -0.0132607, 0.853047, -0.521666],
  "ImageOrientationText": "Tra>Cor(-31.4)>Sag(1.3)",
  "ImageType": [
    "ORIGINAL",
    "PRIMARY",
    "M",
    "MB",
    "ND",
    "MOSAIC"
],
  "ImagingFrequency": 123.259,
  "InPlanePhaseEncodingDirectionDICOM": "COL",
  "InstitutionAddress": "Chemin Queen-Mary 4565,Montreal,District,CA,H3W 1W5",
  "InstitutionName": "IUGM",
  "InstitutionalDepartmentName": "Department",
  "MRAcquisitionType": "2D",
  "MagneticFieldStrength": 3,
  "Manufacturer": "Siemens",
  "ManufacturersModelName": "Prisma_fit",
  "MatrixCoilMode": "SENSE",
  "Modality": "MR",
  "MultibandAccelerationFactor": 4,
  "PartialFourier": 1,
  "PatientPosition": "HFS",
  "PercentPhaseFOV": 100,
  "PercentSampling": 100,
  "PhaseEncodingDirection": "j",
  "PhaseEncodingSteps": 104,
  "PhaseResolution": 1,
  "PixelBandwidth": 2290,
  "ProcedureStepDescription": "games^mario",
  "ProtocolName": "func_task-mario_run-03",
  "PulseSequenceDetails": "%CustomerSeq%\\cmrr_mbep2d_bold",
  "ReceiveCoilActiveElements": "HC1-7;NC1,2",
  "ReceiveCoilName": "HeadNeck_64",
  "ReconMatrixPE": 104,
  "RepetitionTime": 1.49,
  "SAR": 0.0856092,
  "ScanOptions": "FS",
  "ScanningSequence": "EP",
  "SequenceName": "epfid2d1_104",
  "SequenceVariant": "SK\\SS",
  "SeriesDescription": "func_task-mario_run-03",
  "SeriesNumber": 16,
  "ShimSetting": [625, -7188, -8854, 253, 26, -127, -5, 4],
  "SliceThickness": 2,
  "SliceTiming": [0, 0.7825, 0.0975, 0.8825, 0.195, 0.98, 0.2925, 1.0775, 0.3925, 1.175, 0.49, 1.2725, 0.5875, 1.3725, 0.685, 0, 0.7825, 0.0975, 0.8825, 0.195, 0.98, 0.2925, 1.0775, 0.3925, 1.175, 0.49, 1.2725, 0.5875, 1.3725, 0.685, 0, 0.7825, 0.0975, 0.8825, 0.195, 0.98, 0.2925, 1.0775, 0.3925, 1.175, 0.49, 1.2725, 0.5875, 1.3725, 0.685, 0, 0.7825, 0.0975, 0.8825, 0.195, 0.98, 0.2925, 1.0775, 0.3925, 1.175, 0.49, 1.2725, 0.5875, 1.3725, 0.685],
  "SoftwareVersions": "syngo MR E11",
  "SpacingBetweenSlices": 2,
  "StationName": "MRC35049",
  "TaskName": "mario",
  "TotalReadoutTime": 0.0576811,
  "TxRefAmp": 331.481,
  "WipMemBlock": "5017e3c4-db92-4842-bb3f-058d2aa92a91||Sequence: R016 ve11c/master r/e634e98; Dec 19 2017 11:00:25 by eja",
  "dcmmeta_affine": [
    [-1.9993135929107666, -0.02652146853506565, 0.045187462121248245, 107.49430084228516],
    [-0.04619716852903366, 1.706093668937683, -1.042645812034607, -47.776123046875],
    [0.024720769375562668, 1.0433317422866821, 1.7061207294464111, -88.34933471679688],
    [0.0, 0.0, 0.0, 1.0]
],
  "dcmmeta_reorient_transform": [
    [0.0, -1.0, 0.0, 103.0],
    [1.0, 0.0, 0.0, 0.0],
    [0.0, 0.0, 1.0, 0.0],
    [0.0, 0.0, 0.0, 1.0]
],
  "dcmmeta_shape": [104, 104, 60, 442],
  "dcmmeta_slice_dim": 2,
  "dcmmeta_version": 0.6,
  "global": {
    "const": {
      "AcquisitionMatrix": [104, 0, 0, 104],
      "AngioFlag": "N",
      "BitsAllocated": 16,
      "BitsStored": 16,
      "BodyPartExamined": "BRAIN",
      "Columns": 832,
      "EchoNumbers": 1,
      "EchoTime": 37.0,
      "EchoTrainLength": 104,
      "FlipAngle": 52.0,
      "HighBit": 15,
      "ImageOrientationPatient": [0.9996567792403, 0.02309858452134, 0.01236038478466, -0.0132607342845, 0.85304681275646, -0.5216658779068],
      "ImagePositionPatient": [-822.85891166118, -765.78536799607, 389.88823885064],
      "ImageType": [
        "ORIGINAL",
        "PRIMARY",
        "M",
        "MB",
        "ND",
        "MOSAIC"
],
      "ImagedNucleus": "1H",
      "ImagingFrequency": 123.258887,
      "InPlanePhaseEncodingDirection": "COL",
      "MRAcquisitionType": "2D",
      "MagneticFieldStrength": 3.0,
      "Manufacturer": "SIEMENS",
      "ManufacturerModelName": "Prisma_fit",
      "Modality": "MR",
      "NumberOfAverages": 1.0,
      "NumberOfPhaseEncodingSteps": 104,
      "PercentPhaseFieldOfView": 100.0,
      "PercentSampling": 100.0,
      "PerformedProcedureStepStartTime": "133325.976000",
      "PhotometricInterpretation": "MONOCHROME2",
      "PixelBandwidth": 2290.0,
      "PixelRepresentation": 0,
      "PixelSpacing": [2.0, 2.0],
      "ProtocolName": "func_task-mario_run-03",
      "RepetitionTime": 1490.0,
      "Rows": 832,
      "SAR": 0.08560919985958,
      "SamplesPerPixel": 1,
      "ScanOptions": "FS",
      "ScanningSequence": "EP",
      "SequenceName": "epfid2d1_104",
      "SequenceVariant": [
        "SK",
        "SS"
],
      "SeriesDescription": "func_task-mario_run-03",
      "SeriesNumber": 16,
      "SeriesTime": "140747.719000",
      "SliceLocation": -48.031823523099,
      "SliceThickness": 2.0,
      "SmallestImagePixelValue": 0,
      "SoftwareVersions": "syngo MR E11",
      "SpacingBetweenSlices": 2.0000000175569,
      "SpecificCharacterSet": "ISO_IR 100",
      "StudyID": "1",
      "StudyTime": "133325.924000",
      "TransmitCoilName": "Body",
      "VariableFlipAngleFlag": "N",
      "WindowCenterWidthExplanation": "Algo1",
      "dBdt": 0.0},
    "slices": {}
  },
  "time": {
    "samples": {
      "AcquisitionNumber": [1, 2, 3, 4, 5, 6, 7, 8, 9, 10, 11, 12, 13, 14, 15, 16, 17, 18, 19, 20, 21, 22, 23, 24, 25, 26, 27, 28, 29, 30, 31, 32, 33, 34, 35, 36, 37, 38, 39, 40, 41, 42, 43, 44, 45, 46, 47, 48, 49, 50, 51, 52, 53, 54, 55, 56, 57, 58, 59, 60, 61, 62, 63, 64, 65, 66, 67, 68, 69, 70, 71, 72, 73, 74, 75, 76, 77, 78, 79, 80, 81, 82, 83, 84, 85, 86, 87, 88, 89, 90, 91, 92, 93, 94, 95, 96, 97, 98, 99, 100, 101, 102, 103, 104, 105, 106, 107, 108, 109, 110, 111, 112, 113, 114, 115, 116, 117, 118, 119, 120, 121, 122, 123, 124, 125, 126, 127, 128, 129, 130, 131, 132, 133, 134, 135, 136, 137, 138, 139, 140, 141, 142, 143, 144, 145, 146, 147, 148, 149, 150, 151, 152, 153, 154, 155, 156, 157, 158, 159, 160, 161, 162, 163, 164, 165, 166, 167, 168, 169, 170, 171, 172, 173, 174, 175, 176, 177, 178, 179, 180, 181, 182, 183, 184, 185, 186, 187, 188, 189, 190, 191, 192, 193, 194, 195, 196, 197, 198, 199, 200, 201, 202, 203, 204, 205, 206, 207, 208, 209, 210, 211, 212, 213, 214, 215, 216, 217, 218, 219, 220, 221, 222, 223, 224, 225, 226, 227, 228, 229, 230, 231, 232, 233, 234, 235, 236, 237, 238, 239, 240, 241, 242, 243, 244, 245, 246, 247, 248, 249, 250, 251, 252, 253, 254, 255, 256, 257, 258, 259, 260, 261, 262, 263, 264, 265, 266, 267, 268, 269, 270, 271, 272, 273, 274, 275, 276, 277, 278, 279, 280, 281, 282, 283, 284, 285, 286, 287, 288, 289, 290, 291, 292, 293, 294, 295, 296, 297, 298, 299, 300, 301, 302, 303, 304, 305, 306, 307, 308, 309, 310, 311, 312, 313, 314, 315, 316, 317, 318, 319, 320, 321, 322, 323, 324, 325, 326, 327, 328, 329, 330, 331, 332, 333, 334, 335, 336, 337, 338, 339, 340, 341, 342, 343, 344, 345, 346, 347, 348, 349, 350, 351, 352, 353, 354, 355, 356, 357, 358, 359, 360, 361, 362, 363, 364, 365, 366, 367, 368, 369, 370, 371, 372, 373, 374, 375, 376, 377, 378, 379, 380, 381, 382, 383, 384, 385, 386, 387, 388, 389, 390, 391, 392, 393, 394, 395, 396, 397, 398, 399, 400, 401, 402, 403, 404, 405, 406, 407, 408, 409, 410, 411, 412, 413, 414, 415, 416, 417, 418, 419, 420, 421, 422, 423, 424, 425, 426, 427, 428, 429, 430, 431, 432, 433, 434, 435, 436, 437, 438, 439, 440, 441, 442],
      "AcquisitionTime": ["140623.292500", "140624.782500", "140626.272500", "140627.762500", "140629.252500", "140630.742500", "140632.232500", "140633.722500", "140635.212500", "140636.702500", "140638.192500", "140639.682500", "140641.172500", "140642.662500", "140644.152500", "140645.642500", "140647.132500", "140648.622500", "140650.112500", "140651.602500", "140653.092500", "140654.582500", "140656.072500", "140657.562500", "140659.052500", "140700.542500", "140702.032500", "140703.522500", "140705.012500", "140706.502500", "140707.992500", "140709.482500", "140710.972500", "140712.462500", "140713.952500", "140715.442500", "140716.932500", "140718.422500", "140719.912500", "140721.402500", "140722.892500", "140724.382500", "140725.872500", "140727.362500", "140728.852500", "140730.342500", "140731.832500", "140733.322500", "140734.812500", "140736.302500", "140737.792500", "140739.282500", "140740.772500", "140742.262500", "140743.752500", "140745.242500", "140746.732500", "140748.222500", "140749.712500", "140751.202500", "140752.692500", "140754.182500", "140755.672500", "140757.162500", "140758.652500", "140800.142500", "140801.632500", "140803.122500", "140804.612500", "140806.102500", "140807.592500", "140809.082500", "140810.572500", "140812.062500", "140813.552500", "140815.042500", "140816.532500", "140818.022500", "140819.512500", "140821.002500", "140822.492500", "140823.982500", "140825.472500", "140826.962500", "140828.452500", "140829.942500", "140831.432500", "140832.922500", "140834.412500", "140835.902500", "140837.392500", "140838.882500", "140840.372500", "140841.862500", "140843.352500", "140844.842500", "140846.332500", "140847.822500", "140849.312500", "140850.802500", "140852.292500", "140853.782500", "140855.272500", "140856.762500", "140858.252500", "140859.742500", "140901.232500", "140902.722500", "140904.212500", "140905.702500", "140907.192500", "140908.682500", "140910.172500", "140911.662500", "140913.152500", "140914.642500", "140916.132500", "140917.622500", "140919.112500", "140920.602500", "140922.092500", "140923.582500", "140925.072500", "140926.562500", "140928.052500", "140929.542500", "140931.032500", "140932.522500", "140934.012500", "140935.502500", "140936.992500", "140938.482500", "140939.972500", "140941.462500", "140942.952500", "140944.442500", "140945.932500", "140947.422500", "140948.912500", "140950.402500", "140951.892500", "140953.382500", "140954.872500", "140956.362500", "140957.852500", "140959.342500", "141000.832500", "141002.322500", "141003.812500", "141005.302500", "141006.792500", "141008.282500", "141009.772500", "141011.262500", "141012.752500", "141014.242500", "141015.732500", "141017.222500", "141018.712500", "141020.202500", "141021.692500", "141023.182500", "141024.672500", "141026.162500", "141027.652500", "141029.142500", "141030.632500", "141032.122500", "141033.612500", "141035.102500", "141036.592500", "141038.082500", "141039.572500", "141041.062500", "141042.552500", "141044.042500", "141045.532500", "141047.022500", "141048.512500", "141050.002500", "141051.492500", "141052.982500", "141054.472500", "141055.962500", "141057.452500", "141058.942500", "141100.432500", "141101.922500", "141103.412500", "141104.902500", "141106.392500", "141107.882500", "141109.372500", "141110.862500", "141112.352500", "141113.842500", "141115.332500", "141116.822500", "141118.312500", "141119.802500", "141121.292500", "141122.782500", "141124.272500", "141125.762500", "141127.252500", "141128.742500", "141130.232500", "141131.722500", "141133.212500", "141134.702500", "141136.192500", "141137.682500", "141139.172500", "141140.662500", "141142.152500", "141143.642500", "141145.132500", "141146.622500", "141148.112500", "141149.602500", "141151.092500", "141152.582500", "141154.072500", "141155.562500", "141157.052500", "141158.542500", "141200.032500", "141201.522500", "141203.012500", "141204.502500", "141205.992500", "141207.482500", "141208.972500", "141210.462500", "141211.952500", "141213.442500", "141214.932500", "141216.422500", "141217.912500", "141219.402500", "141220.892500", "141222.382500", "141223.872500", "141225.362500", "141226.852500", "141228.342500", "141229.832500", "141231.322500", "141232.812500", "141234.302500", "141235.792500", "141237.282500", "141238.772500", "141240.262500", "141241.752500", "141243.242500", "141244.732500", "141246.222500", "141247.712500", "141249.202500", "141250.692500", "141252.182500", "141253.672500", "141255.162500", "141256.652500", "141258.142500", "141259.632500", "141301.122500", "141302.612500", "141304.102500", "141305.592500", "141307.082500", "141308.572500", "141310.062500", "141311.552500", "141313.042500", "141314.532500", "141316.022500", "141317.512500", "141319.002500", "141320.492500", "141321.982500", "141323.472500", "141324.962500", "141326.452500", "141327.942500", "141329.432500", "141330.922500", "141332.412500", "141333.902500", "141335.392500", "141336.882500", "141338.372500", "141339.862500", "141341.352500", "141342.842500", "141344.332500", "141345.822500", "141347.312500", "141348.802500", "141350.292500", "141351.782500", "141353.272500", "141354.762500", "141356.252500", "141357.742500", "141359.232500", "141400.722500", "141402.212500", "141403.702500", "141405.192500", "141406.682500", "141408.172500", "141409.662500", "141411.152500", "141412.642500", "141414.132500", "141415.622500", "141417.112500", "141418.602500", "141420.092500", "141421.582500", "141423.072500", "141424.562500", "141426.052500", "141427.542500", "141429.032500", "141430.522500", "141432.012500", "141433.502500", "141434.992500", "141436.482500", "141437.972500", "141439.462500", "141440.952500", "141442.442500", "141443.932500", "141445.422500", "141446.912500", "141448.402500", "141449.892500", "141451.382500", "141452.872500", "141454.362500", "141455.852500", "141457.342500", "141458.832500", "141500.322500", "141501.812500", "141503.302500", "141504.792500", "141506.282500", "141507.772500", "141509.262500", "141510.752500", "141512.242500", "141513.732500", "141515.222500", "141516.712500", "141518.202500", "141519.692500", "141521.182500", "141522.672500", "141524.162500", "141525.652500", "141527.142500", "141528.632500", "141530.122500", "141531.612500", "141533.102500", "141534.592500", "141536.082500", "141537.572500", "141539.062500", "141540.552500", "141542.042500", "141543.532500", "141545.022500", "141546.512500", "141548.002500", "141549.492500", "141550.982500", "141552.472500", "141553.962500", "141555.452500", "141556.942500", "141558.432500", "141559.922500", "141601.412500", "141602.902500", "141604.392500", "141605.882500", "141607.372500", "141608.862500", "141610.352500", "141611.842500", "141613.332500", "141614.822500", "141616.312500", "141617.802500", "141619.292500", "141620.782500", "141622.272500", "141623.762500", "141625.252500", "141626.742500", "141628.232500", "141629.722500", "141631.212500", "141632.702500", "141634.192500", "141635.682500", "141637.172500", "141638.662500", "141640.152500", "141641.642500", "141643.132500", "141644.622500", "141646.112500", "141647.602500", "141649.092500", "141650.582500", "141652.072500", "141653.562500", "141655.052500", "141656.542500", "141658.032500", "141659.522500", "141701.012500", "141702.502500", "141703.992500", "141705.482500", "141706.972500", "141708.462500", "141709.952500", "141711.442500", "141712.932500", "141714.422500", "141715.912500", "141717.402500", "141718.892500", "141720.382500"],
      "ContentTime": ["140747.722000", "140747.726000", "140747.729000", "140747.732000", "140747.736000", "140747.739000", "140747.742000", "140747.745000", "140747.749000", "140747.752000", "140747.755000", "140747.759000", "140747.762000", "140747.773000", "140747.776000", "140747.779000", "140747.782000", "140747.786000", "140747.793000", "140747.796000", "140747.800000", "140747.803000", "140747.806000", "140747.810000", "140747.813000", "140747.817000", "140747.820000", "140747.823000", "140747.827000", "140747.830000", "140807.679000", "140807.683000", "140807.686000", "140807.690000", "140807.693000", "140807.696000", "140807.700000", "140807.703000", "140807.706000", "140807.709000", "140807.713000", "140807.716000", "140807.719000", "140807.723000", "140807.726000", "140807.729000", "140807.733000", "140807.736000", "140807.739000", "140807.743000", "140827.678000", "140827.682000", "140827.685000", "140827.689000", "140827.692000", "140827.695000", "140827.699000", "140827.702000", "140827.705000", "140827.709000", "140827.712000", "140827.722000", "140827.725000", "140827.728000", "140827.732000", "140827.735000", "140827.738000", "140827.742000", "140827.745000", "140827.748000", "140847.678000", "140847.682000", "140847.685000", "140847.689000", "140847.692000", "140847.695000", "140847.699000", "140847.702000", "140847.705000", "140847.708000", "140847.712000", "140847.715000", "140847.718000", "140847.722000", "140847.725000", "140847.728000", "140847.732000", "140847.735000", "140847.738000", "140847.742000", "140927.678000", "140927.682000", "140927.685000", "140927.689000", "140927.692000", "140927.695000", "140927.699000", "140927.702000", "140927.705000", "140927.709000", "140927.712000", "140927.715000", "140927.719000", "140927.722000", "140927.725000", "140927.729000", "140927.732000", "140927.735000", "140927.739000", "140927.742000", "140927.745000", "140927.749000", "140927.752000", "140927.755000", "140927.759000", "140927.762000", "140927.765000", "140927.769000", "140927.772000", "140927.789000", "140927.793000", "140927.796000", "140927.799000", "141007.678000", "141007.682000", "141007.685000", "141007.688000", "141007.692000", "141007.695000", "141007.699000", "141007.702000", "141007.705000", "141007.709000", "141007.712000", "141007.715000", "141007.719000", "141007.722000", "141007.725000", "141007.729000", "141007.732000", "141007.735000", "141007.739000", "141007.742000", "141007.745000", "141007.749000", "141007.752000", "141007.755000", "141007.759000", "141007.762000", "141007.765000", "141047.678000", "141047.682000", "141047.685000", "141047.689000", "141047.692000", "141047.695000", "141047.699000", "141047.702000", "141047.706000", "141047.709000", "141047.712000", "141047.716000", "141047.719000", "141047.722000", "141047.726000", "141047.729000", "141047.732000", "141047.736000", "141047.739000", "141047.742000", "141047.746000", "141047.749000", "141047.753000", "141047.756000", "141047.759000", "141047.762000", "141047.766000", "141127.678000", "141127.682000", "141127.685000", "141127.689000", "141127.692000", "141127.695000", "141127.699000", "141127.702000", "141127.706000", "141127.709000", "141127.712000", "141127.716000", "141127.719000", "141127.723000", "141127.726000", "141127.729000", "141127.733000", "141127.736000", "141127.739000", "141127.743000", "141127.746000", "141127.749000", "141127.753000", "141127.756000", "141127.759000", "141127.763000", "141207.678000", "141207.682000", "141207.685000", "141207.688000", "141207.707000", "141207.710000", "141207.714000", "141207.717000", "141207.720000", "141207.724000", "141207.727000", "141207.730000", "141207.734000", "141207.737000", "141207.740000", "141207.744000", "141207.747000", "141207.750000", "141207.754000", "141207.757000", "141207.761000", "141207.764000", "141207.767000", "141207.771000", "141207.774000", "141207.777000", "141207.781000", "141247.680000", "141247.683000", "141247.687000", "141247.690000", "141247.693000", "141247.697000", "141247.700000", "141247.704000", "141247.707000", "141247.710000", "141247.713000", "141247.717000", "141247.720000", "141247.723000", "141247.727000", "141247.730000", "141247.734000", "141247.737000", "141247.740000", "141247.744000", "141247.747000", "141247.750000", "141247.754000", "141247.757000", "141247.760000", "141247.763000", "141247.767000", "141327.678000", "141327.682000", "141327.685000", "141327.689000", "141327.692000", "141327.696000", "141327.699000", "141327.702000", "141327.706000", "141327.709000", "141327.712000", "141327.716000", "141327.719000", "141327.722000", "141327.726000", "141327.729000", "141327.732000", "141327.736000", "141327.739000", "141327.742000", "141327.746000", "141327.749000", "141327.752000", "141327.756000", "141327.759000", "141327.763000", "141327.766000", "141407.678000", "141407.682000", "141407.685000", "141407.689000", "141407.692000", "141407.695000", "141407.699000", "141407.702000", "141407.705000", "141407.709000", "141407.712000", "141407.716000", "141407.719000", "141407.722000", "141407.726000", "141407.729000", "141407.732000", "141407.736000", "141407.739000", "141407.742000", "141407.746000", "141407.749000", "141407.752000", "141407.770000", "141407.773000", "141407.777000", "141407.780000", "141447.679000", "141447.682000", "141447.685000", "141447.689000", "141447.692000", "141447.696000", "141447.699000", "141447.702000", "141447.706000", "141447.709000", "141447.712000", "141447.716000", "141447.719000", "141447.722000", "141447.726000", "141447.729000", "141447.733000", "141447.736000", "141447.739000", "141447.743000", "141447.746000", "141447.749000", "141447.753000", "141447.756000", "141447.760000", "141447.763000", "141447.766000", "141527.679000", "141527.683000", "141527.686000", "141527.690000", "141527.693000", "141527.697000", "141527.701000", "141527.704000", "141527.708000", "141527.711000", "141527.714000", "141527.718000", "141527.721000", "141527.724000", "141527.728000", "141527.731000", "141527.734000", "141527.738000", "141527.741000", "141527.744000", "141527.748000", "141527.751000", "141527.755000", "141527.758000", "141527.761000", "141527.764000", "141607.678000", "141607.682000", "141607.685000", "141607.689000", "141607.692000", "141607.695000", "141607.702000", "141607.705000", "141607.709000", "141607.712000", "141607.715000", "141607.719000", "141607.722000", "141607.725000", "141607.729000", "141607.732000", "141607.735000", "141607.739000", "141607.742000", "141607.745000", "141607.749000", "141607.752000", "141607.756000", "141607.759000", "141607.762000", "141607.765000", "141607.770000", "141647.678000", "141647.682000", "141647.685000", "141647.689000", "141647.692000", "141647.706000", "141647.709000", "141647.713000", "141647.716000", "141647.719000", "141647.723000", "141647.726000", "141647.730000", "141647.733000", "141647.736000", "141647.739000", "141647.743000", "141647.746000", "141647.749000", "141647.753000", "141647.756000", "141647.760000", "141647.763000", "141647.766000", "141647.770000", "141647.773000", "141647.776000", "141722.460000", "141722.464000", "141722.467000", "141722.471000", "141722.474000", "141722.477000", "141722.481000", "141722.484000", "141722.488000", "141722.491000", "141722.495000", "141722.498000", "141722.502000", "141722.505000", "141722.508000", "141722.512000", "141722.515000", "141722.519000", "141722.522000", "141722.525000", "141722.529000", "141722.532000", "141722.535000", "141722.539000"],
