{
  "AcquisitionMatrixPE": 104,
  "AcquisitionNumber": 1,
  "AcquisitionTime": "13:53:41.930000",
  "BandwidthPerPixelPhaseEncode": 17.17,
  "BaseResolution": 104,
  "BodyPartExamined": "BRAIN",
  "CoilCombinationMethod": "Sum of Squares",
  "ConsistencyInfo": "N4_VE11C_LATEST_20160120",
  "ConversionSoftware": "dcm2niix",
  "ConversionSoftwareVersion": "v1.0.20211006",
  "DerivedVendorReportedEchoSpacing": 0.000560011,
  "DeviceSerialNumber": "167006",
  "DwellTime": 2.1e-06,
  "EchoTime": 0.037,
  "EchoTime1": 0.037,
  "EchoTime2": 0.001,
  "EchoTrainLength": 104,
  "EffectiveEchoSpacing": 0.000560011,
  "FlipAngle": 52,
  "HeudiconvVersion": "0.10.0",
  "ImageComments": "Unaliased MB4/PE3/LB",
  "ImageOrientationPatientDICOM": [0.999657, 0.0230986, 0.0123604, -0.0132607, 0.853047, -0.521666],
  "ImageOrientationText": "Tra>Cor(-31.4)>Sag(1.3)",
  "ImageType": [
    "ORIGINAL",
    "PRIMARY",
    "P",
    "MB",
    "ND",
    "MOSAIC",
    "PHASE"
],
  "ImagingFrequency": 123.259,
  "InPlanePhaseEncodingDirectionDICOM": "COL",
  "InstitutionAddress": "Chemin Queen-Mary 4565,Montreal,District,CA,H3W 1W5",
  "InstitutionName": "IUGM",
  "InstitutionalDepartmentName": "Department",
  "MRAcquisitionType": "2D",
  "MagneticFieldStrength": 3,
  "Manufacturer": "Siemens",
  "ManufacturersModelName": "Prisma_fit",
  "MatrixCoilMode": "SENSE",
  "Modality": "MR",
  "MultibandAccelerationFactor": 4,
  "PartialFourier": 1,
  "PatientPosition": "HFS",
  "PercentPhaseFOV": 100,
  "PercentSampling": 100,
  "PhaseEncodingDirection": "j",
  "PhaseEncodingSteps": 104,
  "PhaseResolution": 1,
  "PixelBandwidth": 2290,
  "ProcedureStepDescription": "games^mario",
  "ProtocolName": "func_task-mario_run-02",
  "PulseSequenceDetails": "%CustomerSeq%\\cmrr_mbep2d_bold",
  "ReceiveCoilActiveElements": "HC1-7;NC1,2",
  "ReceiveCoilName": "HeadNeck_64",
  "ReconMatrixPE": 104,
  "RepetitionTime": 1.49,
  "SAR": 0.0856092,
  "ScanOptions": "FS",
  "ScanningSequence": "EP",
  "SequenceName": "epfid2d1_104",
  "SequenceVariant": "SK\\SS",
  "SeriesDescription": "func_task-mario_run-02",
  "SeriesNumber": 14,
  "ShimSetting": [625, -7188, -8854, 253, 26, -127, -5, 4],
  "SliceThickness": 2,
  "SliceTiming": [0, 0.785, 0.0975, 0.8825, 0.195, 0.98, 0.295, 1.0775, 0.3925, 1.175, 0.49, 1.275, 0.5875, 1.3725, 0.685, 0, 0.785, 0.0975, 0.8825, 0.195, 0.98, 0.295, 1.0775, 0.3925, 1.175, 0.49, 1.275, 0.5875, 1.3725, 0.685, 0, 0.785, 0.0975, 0.8825, 0.195, 0.98, 0.295, 1.0775, 0.3925, 1.175, 0.49, 1.275, 0.5875, 1.3725, 0.685, 0, 0.785, 0.0975, 0.8825, 0.195, 0.98, 0.295, 1.0775, 0.3925, 1.175, 0.49, 1.275, 0.5875, 1.3725, 0.685],
  "SoftwareVersions": "syngo MR E11",
  "SpacingBetweenSlices": 2,
  "StationName": "MRC35049",
  "TaskName": "mario",
  "TotalReadoutTime": 0.0576811,
  "TxRefAmp": 331.481,
  "WipMemBlock": "accb64e2-77a4-4b4e-93c9-be5cb47d3670||Sequence: R016 ve11c/master r/e634e98; Dec 19 2017 11:00:25 by eja",
  "dcmmeta_affine": [
    [-1.9993135929107666, -0.02652146853506565, 0.045187462121248245, 107.49430084228516],
    [-0.04619716852903366, 1.706093668937683, -1.042645812034607, -47.776123046875],
    [0.024720769375562668, 1.0433317422866821, 1.7061207294464111, -88.34933471679688],
    [0.0, 0.0, 0.0, 1.0]
],
  "dcmmeta_reorient_transform": [
    [0.0, -1.0, 0.0, 103.0],
    [1.0, 0.0, 0.0, 0.0],
    [0.0, 0.0, 1.0, 0.0],
    [0.0, 0.0, 0.0, 1.0]
],
  "dcmmeta_shape": [104, 104, 60, 454],
  "dcmmeta_slice_dim": 2,
  "dcmmeta_version": 0.6,
  "global": {
    "const": {
      "AcquisitionMatrix": [104, 0, 0, 104],
      "AngioFlag": "N",
      "BitsAllocated": 16,
      "BitsStored": 16,
      "BodyPartExamined": "BRAIN",
      "Columns": 832,
      "EchoNumbers": 1,
      "EchoTime": 37.0,
      "EchoTrainLength": 104,
      "FlipAngle": 52.0,
      "HighBit": 15,
      "ImageOrientationPatient": [0.9996567792403, 0.02309858452134, 0.01236038478466, -0.0132607342845, 0.85304681275646, -0.5216658779068],
      "ImagePositionPatient": [-822.85891166118, -765.78536799607, 389.88823885064],
      "ImageType": [
        "ORIGINAL",
        "PRIMARY",
        "P",
        "MB",
        "ND",
        "MOSAIC"
],
      "ImagedNucleus": "1H",
      "ImagingFrequency": 123.258876,
      "InPlanePhaseEncodingDirection": "COL",
      "LargestImagePixelValue": 4095,
      "MRAcquisitionType": "2D",
      "MagneticFieldStrength": 3.0,
      "Manufacturer": "SIEMENS",
      "ManufacturerModelName": "Prisma_fit",
      "Modality": "MR",
      "NumberOfAverages": 1.0,
      "NumberOfPhaseEncodingSteps": 104,
      "PercentPhaseFieldOfView": 100.0,
      "PercentSampling": 100.0,
      "PerformedProcedureStepStartTime": "133325.976000",
      "PhotometricInterpretation": "MONOCHROME2",
      "PixelBandwidth": 2290.0,
      "PixelRepresentation": 0,
      "PixelSpacing": [2.0, 2.0],
      "ProtocolName": "func_task-mario_run-02",
      "RepetitionTime": 1490.0,
      "RescaleIntercept": -4096.0,
      "RescaleSlope": 2.0,
      "RescaleType": "US",
      "Rows": 832,
      "SAR": 0.08560919985958,
      "SamplesPerPixel": 1,
      "ScanOptions": "FS",
      "ScanningSequence": "EP",
      "SequenceName": "epfid2d1_104",
      "SequenceVariant": [
        "SK",
        "SS"
],
      "SeriesDescription": "func_task-mario_run-02",
      "SeriesNumber": 14,
      "SeriesTime": "135513.382000",
      "SliceLocation": -48.031823523099,
      "SliceThickness": 2.0,
      "SmallestImagePixelValue": 0,
      "SoftwareVersions": "syngo MR E11",
      "SpacingBetweenSlices": 2.0000000175569,
      "SpecificCharacterSet": "ISO_IR 100",
      "StudyID": "1",
      "StudyTime": "133325.924000",
      "TransmitCoilName": "Body",
      "VariableFlipAngleFlag": "N",
      "WindowCenterWidthExplanation": "Algo1",
      "dBdt": 0.0},
    "slices": {}
  },
  "time": {
    "samples": {
      "AcquisitionNumber": [1, 2, 3, 4, 5, 6, 7, 8, 9, 10, 11, 12, 13, 14, 15, 16, 17, 18, 19, 20, 21, 22, 23, 24, 25, 26, 27, 28, 29, 30, 31, 32, 33, 34, 35, 36, 37, 38, 39, 40, 41, 42, 43, 44, 45, 46, 47, 48, 49, 50, 51, 52, 53, 54, 55, 56, 57, 58, 59, 60, 61, 62, 63, 64, 65, 66, 67, 68, 69, 70, 71, 72, 73, 74, 75, 76, 77, 78, 79, 80, 81, 82, 83, 84, 85, 86, 87, 88, 89, 90, 91, 92, 93, 94, 95, 96, 97, 98, 99, 100, 101, 102, 103, 104, 105, 106, 107, 108, 109, 110, 111, 112, 113, 114, 115, 116, 117, 118, 119, 120, 121, 122, 123, 124, 125, 126, 127, 128, 129, 130, 131, 132, 133, 134, 135, 136, 137, 138, 139, 140, 141, 142, 143, 144, 145, 146, 147, 148, 149, 150, 151, 152, 153, 154, 155, 156, 157, 158, 159, 160, 161, 162, 163, 164, 165, 166, 167, 168, 169, 170, 171, 172, 173, 174, 175, 176, 177, 178, 179, 180, 181, 182, 183, 184, 185, 186, 187, 188, 189, 190, 191, 192, 193, 194, 195, 196, 197, 198, 199, 200, 201, 202, 203, 204, 205, 206, 207, 208, 209, 210, 211, 212, 213, 214, 215, 216, 217, 218, 219, 220, 221, 222, 223, 224, 225, 226, 227, 228, 229, 230, 231, 232, 233, 234, 235, 236, 237, 238, 239, 240, 241, 242, 243, 244, 245, 246, 247, 248, 249, 250, 251, 252, 253, 254, 255, 256, 257, 258, 259, 260, 261, 262, 263, 264, 265, 266, 267, 268, 269, 270, 271, 272, 273, 274, 275, 276, 277, 278, 279, 280, 281, 282, 283, 284, 285, 286, 287, 288, 289, 290, 291, 292, 293, 294, 295, 296, 297, 298, 299, 300, 301, 302, 303, 304, 305, 306, 307, 308, 309, 310, 311, 312, 313, 314, 315, 316, 317, 318, 319, 320, 321, 322, 323, 324, 325, 326, 327, 328, 329, 330, 331, 332, 333, 334, 335, 336, 337, 338, 339, 340, 341, 342, 343, 344, 345, 346, 347, 348, 349, 350, 351, 352, 353, 354, 355, 356, 357, 358, 359, 360, 361, 362, 363, 364, 365, 366, 367, 368, 369, 370, 371, 372, 373, 374, 375, 376, 377, 378, 379, 380, 381, 382, 383, 384, 385, 386, 387, 388, 389, 390, 391, 392, 393, 394, 395, 396, 397, 398, 399, 400, 401, 402, 403, 404, 405, 406, 407, 408, 409, 410, 411, 412, 413, 414, 415, 416, 417, 418, 419, 420, 421, 422, 423, 424, 425, 426, 427, 428, 429, 430, 431, 432, 433, 434, 435, 436, 437, 438, 439, 440, 441, 442, 443, 444, 445, 446, 447, 448, 449, 450, 451, 452, 453, 454],
      "AcquisitionTime": ["135341.930000", "135343.420000", "135344.910000", "135346.400000", "135347.890000", "135349.380000", "135350.870000", "135352.360000", "135353.850000", "135355.340000", "135356.830000", "135358.320000", "135359.810000", "135401.300000", "135402.790000", "135404.280000", "135405.770000", "135407.260000", "135408.750000", "135410.240000", "135411.730000", "135413.220000", "135414.710000", "135416.200000", "135417.690000", "135419.180000", "135420.670000", "135422.160000", "135423.650000", "135425.140000", "135426.630000", "135428.120000", "135429.610000", "135431.100000", "135432.590000", "135434.080000", "135435.570000", "135437.060000", "135438.550000", "135440.040000", "135441.530000", "135443.020000", "135444.510000", "135446.000000", "135447.490000", "135448.980000", "135450.470000", "135451.960000", "135453.450000", "135454.940000", "135456.430000", "135457.920000", "135459.410000", "135500.900000", "135502.390000", "135503.880000", "135505.370000", "135506.860000", "135508.350000", "135509.840000", "135511.330000", "135512.820000", "135514.310000", "135515.800000", "135517.290000", "135518.780000", "135520.270000", "135521.760000", "135523.250000", "135524.740000", "135526.230000", "135527.720000", "135529.210000", "135530.700000", "135532.190000", "135533.680000", "135535.170000", "135536.660000", "135538.150000", "135539.640000", "135541.130000", "135542.620000", "135544.110000", "135545.600000", "135547.090000", "135548.580000", "135550.070000", "135551.560000", "135553.050000", "135554.540000", "135556.030000", "135557.520000", "135559.010000", "135600.500000", "135601.990000", "135603.480000", "135604.970000", "135606.460000", "135607.950000", "135609.440000", "135610.930000", "135612.420000", "135613.910000", "135615.400000", "135616.890000", "135618.380000", "135619.870000", "135621.360000", "135622.850000", "135624.340000", "135625.830000", "135627.320000", "135628.810000", "135630.300000", "135631.790000", "135633.280000", "135634.770000", "135636.260000", "135637.750000", "135639.240000", "135640.730000", "135642.220000", "135643.710000", "135645.200000", "135646.690000", "135648.180000", "135649.670000", "135651.160000", "135652.650000", "135654.140000", "135655.630000", "135657.120000", "135658.610000", "135700.100000", "135701.590000", "135703.080000", "135704.570000", "135706.060000", "135707.550000", "135709.040000", "135710.530000", "135712.020000", "135713.510000", "135715.000000", "135716.490000", "135717.980000", "135719.470000", "135720.960000", "135722.450000", "135723.940000", "135725.430000", "135726.920000", "135728.410000", "135729.900000", "135731.390000", "135732.880000", "135734.370000", "135735.860000", "135737.350000", "135738.840000", "135740.330000", "135741.820000", "135743.310000", "135744.800000", "135746.290000", "135747.780000", "135749.270000", "135750.760000", "135752.250000", "135753.740000", "135755.230000", "135756.720000", "135758.210000", "135759.700000", "135801.190000", "135802.680000", "135804.170000", "135805.660000", "135807.150000", "135808.640000", "135810.130000", "135811.620000", "135813.110000", "135814.600000", "135816.090000", "135817.580000", "135819.070000", "135820.560000", "135822.050000", "135823.540000", "135825.030000", "135826.520000", "135828.010000", "135829.500000", "135830.990000", "135832.480000", "135833.970000", "135835.460000", "135836.950000", "135838.440000", "135839.930000", "135841.420000", "135842.910000", "135844.400000", "135845.890000", "135847.380000", "135848.870000", "135850.360000", "135851.850000", "135853.340000", "135854.830000", "135856.320000", "135857.810000", "135859.300000", "135900.790000", "135902.280000", "135903.770000", "135905.260000", "135906.750000", "135908.240000", "135909.730000", "135911.220000", "135912.710000", "135914.200000", "135915.690000", "135917.180000", "135918.670000", "135920.160000", "135921.650000", "135923.140000", "135924.630000", "135926.120000", "135927.610000", "135929.100000", "135930.590000", "135932.080000", "135933.570000", "135935.060000", "135936.550000", "135938.040000", "135939.530000", "135941.020000", "135942.510000", "135944.000000", "135945.490000", "135946.980000", "135948.470000", "135949.960000", "135951.450000", "135952.940000", "135954.430000", "135955.920000", "135957.410000", "135958.900000", "140000.390000", "140001.880000", "140003.370000", "140004.860000", "140006.350000", "140007.840000", "140009.330000", "140010.820000", "140012.310000", "140013.800000", "140015.290000", "140016.780000", "140018.270000", "140019.760000", "140021.250000", "140022.740000", "140024.230000", "140025.720000", "140027.210000", "140028.700000", "140030.190000", "140031.680000", "140033.170000", "140034.660000", "140036.150000", "140037.640000", "140039.130000", "140040.620000", "140042.110000", "140043.600000", "140045.090000", "140046.580000", "140048.070000", "140049.560000", "140051.050000", "140052.540000", "140054.030000", "140055.520000", "140057.010000", "140058.500000", "140059.990000", "140101.480000", "140102.970000", "140104.460000", "140105.950000", "140107.440000", "140108.930000", "140110.420000", "140111.910000", "140113.400000", "140114.890000", "140116.380000", "140117.870000", "140119.360000", "140120.850000", "140122.340000", "140123.830000", "140125.320000", "140126.810000", "140128.300000", "140129.790000", "140131.280000", "140132.770000", "140134.260000", "140135.750000", "140137.240000", "140138.730000", "140140.220000", "140141.710000", "140143.200000", "140144.690000", "140146.180000", "140147.670000", "140149.160000", "140150.650000", "140152.140000", "140153.630000", "140155.120000", "140156.610000", "140158.100000", "140159.590000", "140201.080000", "140202.570000", "140204.060000", "140205.550000", "140207.040000", "140208.530000", "140210.020000", "140211.510000", "140213.000000", "140214.490000", "140215.980000", "140217.470000", "140218.960000", "140220.450000", "140221.940000", "140223.430000", "140224.920000", "140226.410000", "140227.900000", "140229.390000", "140230.880000", "140232.370000", "140233.860000", "140235.350000", "140236.840000", "140238.330000", "140239.820000", "140241.310000", "140242.800000", "140244.290000", "140245.780000", "140247.270000", "140248.760000", "140250.250000", "140251.740000", "140253.230000", "140254.720000", "140256.210000", "140257.700000", "140259.190000", "140300.680000", "140302.170000", "140303.660000", "140305.150000", "140306.640000", "140308.130000", "140309.620000", "140311.110000", "140312.600000", "140314.090000", "140315.580000", "140317.070000", "140318.560000", "140320.050000", "140321.540000", "140323.030000", "140324.520000", "140326.010000", "140327.500000", "140328.990000", "140330.480000", "140331.970000", "140333.460000", "140334.950000", "140336.440000", "140337.930000", "140339.420000", "140340.910000", "140342.400000", "140343.890000", "140345.380000", "140346.870000", "140348.360000", "140349.850000", "140351.340000", "140352.830000", "140354.320000", "140355.810000", "140357.300000", "140358.790000", "140400.280000", "140401.770000", "140403.260000", "140404.750000", "140406.240000", "140407.730000", "140409.220000", "140410.710000", "140412.200000", "140413.690000", "140415.180000", "140416.670000", "140418.160000", "140419.650000", "140421.140000", "140422.630000", "140424.120000", "140425.610000", "140427.100000", "140428.590000", "140430.080000", "140431.570000", "140433.060000", "140434.550000", "140436.040000", "140437.530000", "140439.020000", "140440.510000", "140442.000000", "140443.490000", "140444.980000", "140446.470000", "140447.960000", "140449.450000", "140450.940000", "140452.430000", "140453.920000", "140455.410000", "140456.900000"],
      "ContentTime": ["135513.384000", "135513.387000", "135513.389000", "135513.397000", "135513.399000", "135513.402000", "135513.404000", "135513.407000", "135513.415000", "135513.418000", "135513.420000", "135513.423000", "135513.425000", "135513.428000", "135513.430000", "135513.433000", "135513.436000", "135513.438000", "135513.441000", "135513.443000", "135513.446000", "135513.448000", "135513.451000", "135513.453000", "135513.456000", "135513.458000", "135513.461000", "135513.463000", "135513.466000", "135513.468000", "135513.471000", "135513.474000", "135513.476000", "135513.479000", "135513.481000", "135513.484000", "135513.486000", "135513.489000", "135533.261000", "135533.264000", "135533.267000", "135533.269000", "135533.272000", "135533.274000", "135533.277000", "135533.279000", "135533.282000", "135533.284000", "135533.287000", "135533.289000", "135533.292000", "135533.294000", "135533.297000", "135533.299000", "135533.302000", "135533.304000", "135533.307000", "135533.309000", "135553.261000", "135553.264000", "135553.266000", "135553.269000", "135553.271000", "135553.274000", "135553.276000", "135553.279000", "135553.282000", "135553.284000", "135553.286000", "135553.289000", "135553.292000", "135553.294000", "135553.297000", "135553.299000", "135553.302000", "135553.304000", "135553.307000", "135553.309000", "135613.260000", "135613.263000", "135613.265000", "135613.268000", "135613.270000", "135613.273000", "135613.275000", "135613.278000", "135613.281000", "135613.283000", "135613.285000", "135613.288000", "135613.291000", "135613.293000", "135613.296000", "135613.298000", "135613.301000", "135613.303000", "135613.305000", "135613.308000", "135653.303000", "135653.305000", "135653.308000", "135653.311000", "135653.313000", "135653.315000", "135653.318000", "135653.321000", "135653.323000", "135653.326000", "135653.328000", "135653.337000", "135653.340000", "135653.342000", "135653.345000", "135653.347000", "135653.350000", "135653.352000", "135653.355000", "135653.358000", "135653.360000", "135653.362000", "135653.365000", "135653.368000", "135653.370000", "135653.373000", "135653.375000", "135653.378000", "135653.380000", "135653.383000", "135733.282000", "135733.286000", "135733.289000", "135733.292000", "135733.295000", "135733.298000", "135733.301000", "135733.305000", "135733.308000", "135733.311000", "135733.314000", "135733.317000", "135733.319000", "135733.321000", "135733.324000", "135733.327000", "135733.329000", "135733.332000", "135733.334000", "135733.337000", "135733.339000", "135733.342000", "135733.344000", "135733.347000", "135733.349000", "135733.352000", "135813.296000", "135813.299000", "135813.301000", "135813.304000", "135813.306000", "135813.309000", "135813.311000", "135813.314000", "135813.316000", "135813.319000", "135813.321000", "135813.324000", "135813.326000", "135813.329000", "135813.332000", "135813.334000", "135813.337000", "135813.339000", "135813.342000", "135813.344000", "135813.347000", "135813.349000", "135813.352000", "135813.354000", "135813.357000", "135813.359000", "135813.362000", "135853.304000", "135853.306000", "135853.309000", "135853.312000", "135853.314000", "135853.317000", "135853.319000", "135853.322000", "135853.324000", "135853.327000", "135853.329000", "135853.332000", "135853.334000", "135853.337000", "135853.339000", "135853.342000", "135853.344000", "135853.347000", "135853.349000", "135853.352000", "135853.361000", "135853.364000", "135853.367000", "135853.370000", "135853.372000", "135853.375000", "135853.377000", "135913.244000", "135913.247000", "135913.263000", "135913.265000", "135913.268000", "135913.270000", "135913.273000", "135913.275000", "135913.278000", "135913.280000", "135913.283000", "135913.285000", "135913.288000", "135913.291000", "135953.287000", "135953.290000", "135953.292000", "135953.295000", "135953.297000", "135953.300000", "135953.303000", "135953.305000", "135953.308000", "135953.310000", "135953.313000", "135953.315000", "135953.318000", "135953.320000", "135953.323000", "135953.325000", "135953.328000", "135953.331000", "135953.335000", "135953.337000", "135953.340000", "135953.343000", "135953.346000", "135953.349000", "135953.352000", "135953.354000", "140033.289000", "140033.292000", "140033.315000", "140033.318000", "140033.320000", "140033.323000", "140033.325000", "140033.328000", "140033.330000", "140033.333000", "140033.335000", "140033.338000", "140033.340000", "140033.343000", "140033.345000", "140033.348000", "140033.350000", "140033.353000", "140033.355000", "140033.358000", "140033.360000", "140033.363000", "140033.365000", "140033.368000", "140033.371000", "140033.373000", "140033.376000", "140113.285000", "140113.288000", "140113.290000", "140113.293000", "140113.295000", "140113.298000", "140113.300000", "140113.303000", "140113.305000", "140113.308000", "140113.310000", "140113.313000", "140113.316000", "140113.318000", "140113.321000", "140113.323000", "140113.326000", "140113.328000", "140113.331000", "140113.333000", "140113.336000", "140113.338000", "140113.341000", "140113.343000", "140113.346000", "140113.348000", "140113.351000", "140153.287000", "140153.289000", "140153.292000", "140153.294000", "140153.297000", "140153.300000", "140153.302000", "140153.305000", "140153.307000", "140153.310000", "140153.312000", "140153.315000", "140153.317000", "140153.320000", "140153.322000", "140153.325000", "140153.327000", "140153.330000", "140153.332000", "140153.335000", "140153.337000", "140153.340000", "140153.343000", "140153.345000", "140153.347000", "140153.350000", "140153.353000", "140233.289000", "140233.292000", "140233.295000", "140233.297000", "140233.300000", "140233.302000", "140233.305000", "140233.307000", "140233.310000", "140233.312000", "140233.315000", "140233.318000", "140233.320000", "140233.322000", "140233.326000", "140233.328000", "140233.331000", "140233.333000", "140233.336000", "140233.338000", "140233.341000", "140233.343000", "140233.346000", "140233.348000", "140233.351000", "140233.353000", "140233.356000", "140313.293000", "140313.296000", "140313.298000", "140313.300000", "140313.303000", "140313.306000", "140313.308000", "140313.311000", "140313.313000", "140313.322000", "140313.324000", "140313.327000", "140313.329000", "140313.332000", "140313.335000", "140313.337000", "140313.340000", "140313.343000", "140313.345000", "140313.348000", "140313.350000", "140313.353000", "140313.355000", "140313.358000", "140313.360000", "140313.363000", "140313.365000", "140353.306000", "140353.309000", "140353.311000", "140353.314000", "140353.321000", "140353.323000", "140353.326000", "140353.328000", "140353.331000", "140353.333000", "140353.336000", "140353.338000", "140353.341000", "140353.344000", "140353.346000", "140353.349000", "140353.351000", "140353.354000", "140353.356000", "140353.359000", "140353.361000", "140353.364000", "140353.366000", "140353.369000", "140353.371000", "140353.374000", "140433.298000", "140433.300000", "140433.303000", "140433.305000", "140433.308000", "140433.310000", "140433.313000", "140433.316000", "140433.318000", "140433.321000", "140433.323000", "140433.326000", "140433.329000", "140433.331000", "140433.334000", "140433.337000", "140433.339000", "140433.342000", "140433.344000", "140433.347000", "140433.349000", "140433.352000", "140433.354000", "140433.357000", "140433.359000", "140433.362000", "140433.364000", "140459.315000", "140459.317000", "140459.320000", "140459.323000", "140459.325000", "140459.328000", "140459.330000", "140459.333000", "140459.335000", "140459.338000", "140459.340000", "140459.343000", "140459.345000", "140459.348000", "140459.351000", "140459.353000", "140459.356000", "140459.358000"],
