{
  "AcquisitionMatrixPE": 104,
  "AcquisitionNumber": 1,
  "AcquisitionTime": "14:18:44.040000",
  "BandwidthPerPixelPhaseEncode": 17.17,
  "BaseResolution": 104,
  "BodyPartExamined": "BRAIN",
  "CoilCombinationMethod": "Sum of Squares",
  "ConsistencyInfo": "N4_VE11C_LATEST_20160120",
  "ConversionSoftware": "dcm2niix",
  "ConversionSoftwareVersion": "v1.0.20211006",
  "DerivedVendorReportedEchoSpacing": 0.000560011,
  "DeviceSerialNumber": "167006",
  "DwellTime": 2.1e-06,
  "EchoTime": 0.037,
  "EchoTime1": 0.037,
  "EchoTime2": 0.001,
  "EchoTrainLength": 104,
  "EffectiveEchoSpacing": 0.000560011,
  "FlipAngle": 52,
  "HeudiconvVersion": "0.10.0",
  "ImageComments": "Unaliased MB4/PE3/LB",
  "ImageOrientationPatientDICOM": [0.999657, 0.0230986, 0.0123604, -0.0132607, 0.853047, -0.521666],
  "ImageOrientationText": "Tra>Cor(-31.4)>Sag(1.3)",
  "ImageType": [
    "ORIGINAL",
    "PRIMARY",
    "P",
    "MB",
    "ND",
    "MOSAIC",
    "PHASE"
],
  "ImagingFrequency": 123.259,
  "InPlanePhaseEncodingDirectionDICOM": "COL",
  "InstitutionAddress": "Chemin Queen-Mary 4565,Montreal,District,CA,H3W 1W5",
  "InstitutionName": "IUGM",
  "InstitutionalDepartmentName": "Department",
  "MRAcquisitionType": "2D",
  "MagneticFieldStrength": 3,
  "Manufacturer": "Siemens",
  "ManufacturersModelName": "Prisma_fit",
  "MatrixCoilMode": "SENSE",
  "Modality": "MR",
  "MultibandAccelerationFactor": 4,
  "PartialFourier": 1,
  "PatientPosition": "HFS",
  "PercentPhaseFOV": 100,
  "PercentSampling": 100,
  "PhaseEncodingDirection": "j",
  "PhaseEncodingSteps": 104,
  "PhaseResolution": 1,
  "PixelBandwidth": 2290,
  "ProcedureStepDescription": "games^mario",
  "ProtocolName": "func_task-mario_run-04",
  "PulseSequenceDetails": "%CustomerSeq%\\cmrr_mbep2d_bold",
  "ReceiveCoilActiveElements": "HC1-7;NC1,2",
  "ReceiveCoilName": "HeadNeck_64",
  "ReconMatrixPE": 104,
  "RepetitionTime": 1.49,
  "SAR": 0.0856092,
  "ScanOptions": "FS",
  "ScanningSequence": "EP",
  "SequenceName": "epfid2d1_104",
  "SequenceVariant": "SK\\SS",
  "SeriesDescription": "func_task-mario_run-04",
  "SeriesNumber": 20,
  "ShimSetting": [625, -7188, -8854, 253, 26, -127, -5, 4],
  "SliceThickness": 2,
  "SliceTiming": [0, 0.7825, 0.0975, 0.8825, 0.195, 0.98, 0.2925, 1.0775, 0.3925, 1.175, 0.49, 1.2725, 0.5875, 1.3725, 0.685, 0, 0.7825, 0.0975, 0.8825, 0.195, 0.98, 0.2925, 1.0775, 0.3925, 1.175, 0.49, 1.2725, 0.5875, 1.3725, 0.685, 0, 0.7825, 0.0975, 0.8825, 0.195, 0.98, 0.2925, 1.0775, 0.3925, 1.175, 0.49, 1.2725, 0.5875, 1.3725, 0.685, 0, 0.7825, 0.0975, 0.8825, 0.195, 0.98, 0.2925, 1.0775, 0.3925, 1.175, 0.49, 1.2725, 0.5875, 1.3725, 0.685],
  "SoftwareVersions": "syngo MR E11",
  "SpacingBetweenSlices": 2,
  "StationName": "MRC35049",
  "TaskName": "mario",
  "TotalReadoutTime": 0.0576811,
  "TxRefAmp": 331.481,
  "WipMemBlock": "db938c76-86f0-4f8f-80f1-1e3a07150e77||Sequence: R016 ve11c/master r/e634e98; Dec 19 2017 11:00:25 by eja",
  "dcmmeta_affine": [
    [-1.9993135929107666, -0.02652146853506565, 0.045187462121248245, 107.49430084228516],
    [-0.04619716852903366, 1.706093668937683, -1.042645812034607, -47.776123046875],
    [0.024720769375562668, 1.0433317422866821, 1.7061207294464111, -88.34933471679688],
    [0.0, 0.0, 0.0, 1.0]
],
  "dcmmeta_reorient_transform": [
    [0.0, -1.0, 0.0, 103.0],
    [1.0, 0.0, 0.0, 0.0],
    [0.0, 0.0, 1.0, 0.0],
    [0.0, 0.0, 0.0, 1.0]
],
  "dcmmeta_shape": [104, 104, 60, 440],
  "dcmmeta_slice_dim": 2,
  "dcmmeta_version": 0.6,
  "global": {
    "const": {
      "AcquisitionMatrix": [104, 0, 0, 104],
      "AngioFlag": "N",
      "BitsAllocated": 16,
      "BitsStored": 16,
      "BodyPartExamined": "BRAIN",
      "Columns": 832,
      "EchoNumbers": 1,
      "EchoTime": 37.0,
      "EchoTrainLength": 104,
      "FlipAngle": 52.0,
      "HighBit": 15,
      "ImageOrientationPatient": [0.9996567792403, 0.02309858452134, 0.01236038478466, -0.0132607342845, 0.85304681275646, -0.5216658779068],
      "ImagePositionPatient": [-822.85891166118, -765.78536799607, 389.88823885064],
      "ImageType": [
        "ORIGINAL",
        "PRIMARY",
        "P",
        "MB",
        "ND",
        "MOSAIC"
],
      "ImagedNucleus": "1H",
      "ImagingFrequency": 123.258885,
      "InPlanePhaseEncodingDirection": "COL",
      "LargestImagePixelValue": 4095,
      "MRAcquisitionType": "2D",
      "MagneticFieldStrength": 3.0,
      "Manufacturer": "SIEMENS",
      "ManufacturerModelName": "Prisma_fit",
      "Modality": "MR",
      "NumberOfAverages": 1.0,
      "NumberOfPhaseEncodingSteps": 104,
      "PercentPhaseFieldOfView": 100.0,
      "PercentSampling": 100.0,
      "PerformedProcedureStepStartTime": "133325.976000",
      "PhotometricInterpretation": "MONOCHROME2",
      "PixelBandwidth": 2290.0,
      "PixelRepresentation": 0,
      "PixelSpacing": [2.0, 2.0],
      "ProtocolName": "func_task-mario_run-04",
      "RepetitionTime": 1490.0,
      "RescaleIntercept": -4096.0,
      "RescaleSlope": 2.0,
      "RescaleType": "US",
      "Rows": 832,
      "SAR": 0.08560919985958,
      "SamplesPerPixel": 1,
      "ScanOptions": "FS",
      "ScanningSequence": "EP",
      "SequenceName": "epfid2d1_104",
      "SequenceVariant": [
        "SK",
        "SS"
],
      "SeriesDescription": "func_task-mario_run-04",
      "SeriesNumber": 20,
      "SeriesTime": "141956.509000",
      "SliceLocation": -48.031823523099,
      "SliceThickness": 2.0,
      "SmallestImagePixelValue": 0,
      "SoftwareVersions": "syngo MR E11",
      "SpacingBetweenSlices": 2.0000000175569,
      "SpecificCharacterSet": "ISO_IR 100",
      "StudyID": "1",
      "StudyTime": "133325.924000",
      "TransmitCoilName": "Body",
      "VariableFlipAngleFlag": "N",
      "WindowCenterWidthExplanation": "Algo1",
      "dBdt": 0.0},
    "slices": {}
  },
  "time": {
    "samples": {
      "AcquisitionNumber": [1, 2, 3, 4, 5, 6, 7, 8, 9, 10, 11, 12, 13, 14, 15, 16, 17, 18, 19, 20, 21, 22, 23, 24, 25, 26, 27, 28, 29, 30, 31, 32, 33, 34, 35, 36, 37, 38, 39, 40, 41, 42, 43, 44, 45, 46, 47, 48, 49, 50, 51, 52, 53, 54, 55, 56, 57, 58, 59, 60, 61, 62, 63, 64, 65, 66, 67, 68, 69, 70, 71, 72, 73, 74, 75, 76, 77, 78, 79, 80, 81, 82, 83, 84, 85, 86, 87, 88, 89, 90, 91, 92, 93, 94, 95, 96, 97, 98, 99, 100, 101, 102, 103, 104, 105, 106, 107, 108, 109, 110, 111, 112, 113, 114, 115, 116, 117, 118, 119, 120, 121, 122, 123, 124, 125, 126, 127, 128, 129, 130, 131, 132, 133, 134, 135, 136, 137, 138, 139, 140, 141, 142, 143, 144, 145, 146, 147, 148, 149, 150, 151, 152, 153, 154, 155, 156, 157, 158, 159, 160, 161, 162, 163, 164, 165, 166, 167, 168, 169, 170, 171, 172, 173, 174, 175, 176, 177, 178, 179, 180, 181, 182, 183, 184, 185, 186, 187, 188, 189, 190, 191, 192, 193, 194, 195, 196, 197, 198, 199, 200, 201, 202, 203, 204, 205, 206, 207, 208, 209, 210, 211, 212, 213, 214, 215, 216, 217, 218, 219, 220, 221, 222, 223, 224, 225, 226, 227, 228, 229, 230, 231, 232, 233, 234, 235, 236, 237, 238, 239, 240, 241, 242, 243, 244, 245, 246, 247, 248, 249, 250, 251, 252, 253, 254, 255, 256, 257, 258, 259, 260, 261, 262, 263, 264, 265, 266, 267, 268, 269, 270, 271, 272, 273, 274, 275, 276, 277, 278, 279, 280, 281, 282, 283, 284, 285, 286, 287, 288, 289, 290, 291, 292, 293, 294, 295, 296, 297, 298, 299, 300, 301, 302, 303, 304, 305, 306, 307, 308, 309, 310, 311, 312, 313, 314, 315, 316, 317, 318, 319, 320, 321, 322, 323, 324, 325, 326, 327, 328, 329, 330, 331, 332, 333, 334, 335, 336, 337, 338, 339, 340, 341, 342, 343, 344, 345, 346, 347, 348, 349, 350, 351, 352, 353, 354, 355, 356, 357, 358, 359, 360, 361, 362, 363, 364, 365, 366, 367, 368, 369, 370, 371, 372, 373, 374, 375, 376, 377, 378, 379, 380, 381, 382, 383, 384, 385, 386, 387, 388, 389, 390, 391, 392, 393, 394, 395, 396, 397, 398, 399, 400, 401, 402, 403, 404, 405, 406, 407, 408, 409, 410, 411, 412, 413, 414, 415, 416, 417, 418, 419, 420, 421, 422, 423, 424, 425, 426, 427, 428, 429, 430, 431, 432, 433, 434, 435, 436, 437, 438, 439, 440],
      "AcquisitionTime": ["141844.040000", "141845.530000", "141847.020000", "141848.510000", "141850.000000", "141851.490000", "141852.980000", "141854.470000", "141855.960000", "141857.450000", "141858.940000", "141900.430000", "141901.920000", "141903.410000", "141904.900000", "141906.390000", "141907.880000", "141909.370000", "141910.860000", "141912.350000", "141913.840000", "141915.330000", "141916.820000", "141918.310000", "141919.800000", "141921.290000", "141922.780000", "141924.270000", "141925.760000", "141927.250000", "141928.740000", "141930.230000", "141931.720000", "141933.210000", "141934.700000", "141936.190000", "141937.680000", "141939.170000", "141940.660000", "141942.150000", "141943.640000", "141945.130000", "141946.620000", "141948.110000", "141949.600000", "141951.090000", "141952.580000", "141954.070000", "141955.560000", "141957.050000", "141958.540000", "142000.030000", "142001.520000", "142003.010000", "142004.500000", "142005.990000", "142007.480000", "142008.970000", "142010.460000", "142011.950000", "142013.440000", "142014.930000", "142016.420000", "142017.910000", "142019.400000", "142020.890000", "142022.380000", "142023.870000", "142025.360000", "142026.850000", "142028.340000", "142029.830000", "142031.320000", "142032.810000", "142034.300000", "142035.790000", "142037.280000", "142038.770000", "142040.260000", "142041.750000", "142043.240000", "142044.730000", "142046.220000", "142047.710000", "142049.200000", "142050.690000", "142052.180000", "142053.670000", "142055.160000", "142056.650000", "142058.140000", "142059.630000", "142101.120000", "142102.610000", "142104.100000", "142105.590000", "142107.080000", "142108.570000", "142110.060000", "142111.550000", "142113.040000", "142114.530000", "142116.020000", "142117.510000", "142119.000000", "142120.490000", "142121.980000", "142123.470000", "142124.960000", "142126.450000", "142127.940000", "142129.430000", "142130.920000", "142132.410000", "142133.900000", "142135.390000", "142136.880000", "142138.370000", "142139.860000", "142141.350000", "142142.840000", "142144.330000", "142145.820000", "142147.310000", "142148.800000", "142150.290000", "142151.780000", "142153.270000", "142154.760000", "142156.250000", "142157.740000", "142159.230000", "142200.720000", "142202.210000", "142203.700000", "142205.190000", "142206.680000", "142208.170000", "142209.660000", "142211.150000", "142212.640000", "142214.130000", "142215.620000", "142217.110000", "142218.600000", "142220.090000", "142221.580000", "142223.070000", "142224.560000", "142226.050000", "142227.540000", "142229.030000", "142230.520000", "142232.010000", "142233.500000", "142234.990000", "142236.480000", "142237.970000", "142239.460000", "142240.950000", "142242.440000", "142243.930000", "142245.420000", "142246.910000", "142248.400000", "142249.890000", "142251.380000", "142252.870000", "142254.360000", "142255.850000", "142257.340000", "142258.830000", "142300.320000", "142301.810000", "142303.300000", "142304.790000", "142306.280000", "142307.770000", "142309.260000", "142310.750000", "142312.240000", "142313.730000", "142315.220000", "142316.710000", "142318.200000", "142319.690000", "142321.180000", "142322.670000", "142324.160000", "142325.650000", "142327.140000", "142328.630000", "142330.120000", "142331.610000", "142333.100000", "142334.590000", "142336.080000", "142337.570000", "142339.060000", "142340.550000", "142342.040000", "142343.530000", "142345.020000", "142346.510000", "142348.000000", "142349.490000", "142350.980000", "142352.470000", "142353.960000", "142355.450000", "142356.940000", "142358.430000", "142359.920000", "142401.410000", "142402.900000", "142404.390000", "142405.880000", "142407.370000", "142408.860000", "142410.350000", "142411.840000", "142413.330000", "142414.820000", "142416.310000", "142417.800000", "142419.290000", "142420.780000", "142422.270000", "142423.760000", "142425.250000", "142426.740000", "142428.230000", "142429.720000", "142431.210000", "142432.700000", "142434.190000", "142435.680000", "142437.170000", "142438.660000", "142440.150000", "142441.640000", "142443.130000", "142444.620000", "142446.110000", "142447.600000", "142449.090000", "142450.580000", "142452.070000", "142453.560000", "142455.050000", "142456.540000", "142458.030000", "142459.520000", "142501.010000", "142502.500000", "142503.990000", "142505.480000", "142506.970000", "142508.460000", "142509.950000", "142511.440000", "142512.930000", "142514.420000", "142515.910000", "142517.400000", "142518.890000", "142520.380000", "142521.870000", "142523.360000", "142524.850000", "142526.340000", "142527.830000", "142529.320000", "142530.810000", "142532.300000", "142533.790000", "142535.280000", "142536.770000", "142538.260000", "142539.750000", "142541.240000", "142542.730000", "142544.220000", "142545.710000", "142547.200000", "142548.690000", "142550.180000", "142551.670000", "142553.160000", "142554.650000", "142556.140000", "142557.630000", "142559.120000", "142600.610000", "142602.100000", "142603.590000", "142605.080000", "142606.570000", "142608.060000", "142609.550000", "142611.040000", "142612.530000", "142614.020000", "142615.510000", "142617.000000", "142618.490000", "142619.980000", "142621.470000", "142622.960000", "142624.450000", "142625.940000", "142627.430000", "142628.920000", "142630.410000", "142631.900000", "142633.390000", "142634.880000", "142636.370000", "142637.860000", "142639.350000", "142640.840000", "142642.330000", "142643.820000", "142645.310000", "142646.800000", "142648.290000", "142649.780000", "142651.270000", "142652.760000", "142654.250000", "142655.740000", "142657.230000", "142658.720000", "142700.210000", "142701.700000", "142703.190000", "142704.680000", "142706.170000", "142707.660000", "142709.150000", "142710.640000", "142712.130000", "142713.620000", "142715.110000", "142716.600000", "142718.090000", "142719.580000", "142721.070000", "142722.560000", "142724.050000", "142725.540000", "142727.030000", "142728.520000", "142730.010000", "142731.500000", "142732.990000", "142734.480000", "142735.970000", "142737.460000", "142738.950000", "142740.440000", "142741.930000", "142743.420000", "142744.910000", "142746.400000", "142747.890000", "142749.380000", "142750.870000", "142752.360000", "142753.850000", "142755.340000", "142756.830000", "142758.320000", "142759.810000", "142801.300000", "142802.790000", "142804.280000", "142805.770000", "142807.260000", "142808.750000", "142810.240000", "142811.730000", "142813.220000", "142814.710000", "142816.200000", "142817.690000", "142819.180000", "142820.670000", "142822.160000", "142823.650000", "142825.140000", "142826.630000", "142828.120000", "142829.610000", "142831.100000", "142832.590000", "142834.080000", "142835.570000", "142837.060000", "142838.550000", "142840.040000", "142841.530000", "142843.020000", "142844.510000", "142846.000000", "142847.490000", "142848.980000", "142850.470000", "142851.960000", "142853.450000", "142854.940000", "142856.430000", "142857.920000", "142859.410000", "142900.900000", "142902.390000", "142903.880000", "142905.370000", "142906.860000", "142908.350000", "142909.840000", "142911.330000", "142912.820000", "142914.310000", "142915.800000", "142917.290000", "142918.780000", "142920.270000", "142921.760000", "142923.250000", "142924.740000", "142926.230000", "142927.720000", "142929.210000", "142930.700000", "142932.190000", "142933.680000", "142935.170000", "142936.660000", "142938.150000"],
      "ContentTime": ["141956.511000", "141956.514000", "141956.517000", "141956.519000", "141956.522000", "141956.524000", "141956.527000", "141956.534000", "141956.537000", "141956.539000", "141956.542000", "141956.544000", "141956.547000", "141956.549000", "141956.552000", "141956.554000", "141956.557000", "141956.559000", "142016.514000", "142016.517000", "142016.520000", "142016.522000", "142016.525000", "142016.527000", "142016.530000", "142016.546000", "142016.549000", "142016.551000", "142016.554000", "142016.557000", "142016.559000", "142016.561000", "142016.564000", "142016.567000", "142016.569000", "142016.572000", "142016.574000", "142016.577000", "142016.580000", "142036.479000", "142036.482000", "142036.484000", "142036.487000", "142036.489000", "142036.492000", "142036.494000", "142036.497000", "142036.499000", "142036.502000", "142036.505000", "142036.507000", "142036.510000", "142036.512000", "142036.515000", "142036.517000", "142036.520000", "142036.522000", "142036.525000", "142036.527000", "142056.485000", "142056.488000", "142056.490000", "142056.493000", "142056.495000", "142056.498000", "142056.500000", "142056.503000", "142056.505000", "142056.508000", "142056.510000", "142056.513000", "142056.515000", "142056.518000", "142056.520000", "142056.523000", "142056.526000", "142056.528000", "142056.531000", "142056.533000", "142116.478000", "142116.481000", "142116.483000", "142116.486000", "142116.488000", "142116.491000", "142116.493000", "142116.496000", "142116.498000", "142116.501000", "142116.503000", "142116.506000", "142116.508000", "142116.511000", "142116.513000", "142116.516000", "142116.518000", "142116.521000", "142116.523000", "142116.526000", "142156.509000", "142156.512000", "142156.514000", "142156.517000", "142156.519000", "142156.522000", "142156.524000", "142156.527000", "142156.529000", "142156.532000", "142156.534000", "142156.537000", "142156.539000", "142156.542000", "142156.544000", "142156.547000", "142156.549000", "142156.551000", "142156.554000", "142156.556000", "142156.559000", "142156.561000", "142156.564000", "142156.566000", "142156.569000", "142156.571000", "142156.574000", "142156.576000", "142156.579000", "142236.511000", "142236.513000", "142236.516000", "142236.518000", "142236.521000", "142236.523000", "142236.526000", "142236.528000", "142236.531000", "142236.533000", "142236.536000", "142236.538000", "142236.541000", "142236.543000", "142236.546000", "142236.548000", "142236.551000", "142236.553000", "142236.556000", "142236.558000", "142236.561000", "142236.563000", "142236.566000", "142236.568000", "142236.571000", "142236.573000", "142236.576000", "142316.822000", "142316.825000", "142316.828000", "142316.830000", "142316.833000", "142316.836000", "142316.838000", "142316.841000", "142316.844000", "142316.846000", "142316.849000", "142316.851000", "142316.854000", "142316.857000", "142316.859000", "142316.862000", "142316.864000", "142316.867000", "142316.869000", "142316.872000", "142316.874000", "142316.877000", "142316.879000", "142316.882000", "142316.884000", "142316.887000", "142316.889000", "142356.504000", "142356.507000", "142356.509000", "142356.512000", "142356.514000", "142356.517000", "142356.519000", "142356.522000", "142356.524000", "142356.527000", "142356.529000", "142356.532000", "142356.534000", "142356.549000", "142356.552000", "142356.554000", "142356.557000", "142356.559000", "142356.562000", "142356.564000", "142356.567000", "142356.570000", "142356.572000", "142356.575000", "142356.577000", "142356.580000", "142356.582000", "142436.517000", "142436.520000", "142436.522000", "142436.525000", "142436.527000", "142436.530000", "142436.532000", "142436.535000", "142436.537000", "142436.540000", "142436.542000", "142436.545000", "142436.547000", "142436.550000", "142436.552000", "142436.555000", "142436.557000", "142436.560000", "142436.562000", "142436.565000", "142436.567000", "142436.570000", "142436.572000", "142436.575000", "142436.577000", "142436.580000", "142516.512000", "142516.515000", "142516.517000", "142516.520000", "142516.522000", "142516.525000", "142516.528000", "142516.530000", "142516.533000", "142516.535000", "142516.538000", "142516.540000", "142516.543000", "142516.545000", "142516.548000", "142516.550000", "142516.553000", "142516.555000", "142516.558000", "142516.560000", "142516.563000", "142516.565000", "142516.568000", "142516.570000", "142516.573000", "142516.575000", "142516.578000", "142556.504000", "142556.507000", "142556.509000", "142556.512000", "142556.514000", "142556.517000", "142556.519000", "142556.522000", "142556.524000", "142556.527000", "142556.529000", "142556.532000", "142556.535000", "142556.537000", "142556.540000", "142556.542000", "142556.545000", "142556.547000", "142556.550000", "142556.552000", "142556.555000", "142556.557000", "142556.560000", "142556.562000", "142556.565000", "142556.567000", "142556.570000", "142636.512000", "142636.515000", "142636.517000", "142636.520000", "142636.522000", "142636.525000", "142636.527000", "142636.530000", "142636.532000", "142636.535000", "142636.537000", "142636.552000", "142636.555000", "142636.557000", "142636.560000", "142636.562000", "142636.565000", "142636.567000", "142636.570000", "142636.573000", "142636.575000", "142636.578000", "142636.580000", "142636.583000", "142636.585000", "142636.588000", "142636.590000", "142716.526000", "142716.529000", "142716.531000", "142716.534000", "142716.536000", "142716.539000", "142716.541000", "142716.544000", "142716.546000", "142716.549000", "142716.551000", "142716.554000", "142716.556000", "142716.559000", "142716.561000", "142716.564000", "142716.566000", "142716.569000", "142716.571000", "142716.574000", "142716.576000", "142716.579000", "142716.581000", "142716.584000", "142716.586000", "142716.589000", "142716.592000", "142756.512000", "142756.514000", "142756.517000", "142756.520000", "142756.522000", "142756.525000", "142756.527000", "142756.530000", "142756.532000", "142756.535000", "142756.537000", "142756.540000", "142756.542000", "142756.545000", "142756.547000", "142756.550000", "142756.552000", "142756.555000", "142756.557000", "142756.560000", "142756.563000", "142756.565000", "142756.568000", "142756.570000", "142756.573000", "142756.575000", "142756.578000", "142836.503000", "142836.506000", "142836.508000", "142836.511000", "142836.513000", "142836.516000", "142836.518000", "142836.521000", "142836.523000", "142836.526000", "142836.529000", "142836.531000", "142836.534000", "142836.536000", "142836.539000", "142836.541000", "142836.544000", "142836.546000", "142836.549000", "142836.551000", "142836.554000", "142836.557000", "142836.559000", "142836.562000", "142836.564000", "142836.567000", "142836.569000", "142916.511000", "142916.514000", "142916.516000", "142916.519000", "142916.521000", "142916.524000", "142916.526000", "142916.529000", "142916.532000", "142916.534000", "142916.536000", "142916.539000", "142916.542000", "142916.544000", "142916.547000", "142916.549000", "142916.552000", "142916.554000", "142916.557000", "142916.559000", "142916.562000", "142916.564000", "142916.567000", "142916.569000", "142916.572000", "142916.575000", "142940.652000", "142940.655000", "142940.657000", "142940.660000", "142940.662000", "142940.665000", "142940.667000", "142940.670000", "142940.672000", "142940.675000", "142940.678000", "142940.680000", "142940.682000", "142940.685000", "142940.688000", "142940.690000", "142940.693000"],
