{
  "AcquisitionMatrixPE": 104,
  "AcquisitionNumber": 1,
  "AcquisitionTime": "16:34:10.437500",
  "BandwidthPerPixelPhaseEncode": 17.17,
  "BaseResolution": 104,
  "BodyPartExamined": "BRAIN",
  "CoilCombinationMethod": "Sum of Squares",
  "ConsistencyInfo": "N4_VE11C_LATEST_20160120",
  "ConversionSoftware": "dcm2niix",
  "ConversionSoftwareVersion": "v1.0.20211006",
  "DerivedVendorReportedEchoSpacing": 0.000560011,
  "DeviceSerialNumber": "167006",
  "DwellTime": 2.1e-06,
  "EchoTime": 0.037,
  "EchoTime1": 0.037,
  "EchoTime2": 0.001,
  "EchoTrainLength": 104,
  "EffectiveEchoSpacing": 0.000560011,
  "FlipAngle": 52,
  "HeudiconvVersion": "0.5.3.post569+g418601f",
  "ImageComments": "Unaliased MB4/PE3/LB",
  "ImageOrientationPatientDICOM": [0.998943, -0.0459452, 0.00128291, 0.0437895, 0.94285, -0.330327],
  "ImageOrientationText": "Tra>Cor(-19.3)>Sag(-0.8)",
  "ImageType": [
    "ORIGINAL",
    "PRIMARY",
    "P",
    "MB",
    "ND",
    "MOSAIC",
    "PHASE"
],
  "ImagingFrequency": 123.259,
  "InPlanePhaseEncodingDirectionDICOM": "COL",
  "InstitutionAddress": "Chemin Queen-Mary 4565,Montreal,District,CA,H3W 1W5",
  "InstitutionName": "IUGM",
  "InstitutionalDepartmentName": "Department",
  "MRAcquisitionType": "2D",
  "MagneticFieldStrength": 3,
  "Manufacturer": "Siemens",
  "ManufacturersModelName": "Prisma_fit",
  "MatrixCoilMode": "SENSE",
  "Modality": "MR",
  "MultibandAccelerationFactor": 4,
  "PartialFourier": 1,
  "PatientPosition": "HFS",
  "PercentPhaseFOV": 100,
  "PercentSampling": 100,
  "PhaseEncodingDirection": "j",
  "PhaseEncodingSteps": 104,
  "PhaseResolution": 1,
  "PixelBandwidth": 2290,
  "ProcedureStepDescription": "games^mario",
  "ProtocolName": "func_task-mario_run-03",
  "PulseSequenceDetails": "%CustomerSeq%\\cmrr_mbep2d_bold",
  "ReceiveCoilActiveElements": "HC1-7;NC1,2",
  "ReceiveCoilName": "HeadNeck_64",
  "ReconMatrixPE": 104,
  "RepetitionTime": 1.49,
  "SAR": 0.0570709,
  "ScanOptions": "FS",
  "ScanningSequence": "EP",
  "SequenceName": "epfid2d1_104",
  "SequenceVariant": "SK\\SS",
  "SeriesDescription": "func_task-mario_run-03",
  "SeriesNumber": 17,
  "ShimSetting": [629, -7245, -8821, 589, 12, -216, -61, -18],
  "SliceThickness": 2,
  "SliceTiming": [0, 0.7825, 0.0975, 0.8825, 0.195, 0.98, 0.2925, 1.0775, 0.3925, 1.175, 0.49, 1.2725, 0.5875, 1.3725, 0.685, 0, 0.7825, 0.0975, 0.8825, 0.195, 0.98, 0.2925, 1.0775, 0.3925, 1.175, 0.49, 1.2725, 0.5875, 1.3725, 0.685, 0, 0.7825, 0.0975, 0.8825, 0.195, 0.98, 0.2925, 1.0775, 0.3925, 1.175, 0.49, 1.2725, 0.5875, 1.3725, 0.685, 0, 0.7825, 0.0975, 0.8825, 0.195, 0.98, 0.2925, 1.0775, 0.3925, 1.175, 0.49, 1.2725, 0.5875, 1.3725, 0.685],
  "SoftwareVersions": "syngo MR E11",
  "SpacingBetweenSlices": 2,
  "StationName": "MRC35049",
  "TaskName": "mario",
  "TotalReadoutTime": 0.0576811,
  "TxRefAmp": 267.542,
  "WipMemBlock": "600058da-3180-491f-8c2f-7b04f24b0550||Sequence: R016 ve11c/master r/e634e98; Dec 19 2017 11:00:25 by eja",
  "dcmmeta_affine": [
    [-1.997886300086975, 0.08757903426885605, -0.02793472446501255, 103.11254119873047],
    [0.09189043939113617, 1.8857003450393677, -0.6600683927536011, -69.42819213867188],
    [0.0025658176746219397, 0.6606543064117432, 1.8877311944961548, -64.19528198242188],
    [0.0, 0.0, 0.0, 1.0]
],
  "dcmmeta_reorient_transform": [
    [0.0, -1.0, 0.0, 103.0],
    [1.0, 0.0, 0.0, 0.0],
    [0.0, 0.0, 1.0, 0.0],
    [0.0, 0.0, 0.0, 1.0]
],
  "dcmmeta_shape": [104, 104, 60, 457],
  "dcmmeta_slice_dim": 2,
  "dcmmeta_version": 0.6,
  "global": {
    "const": {
      "AcquisitionMatrix": [104, 0, 0, 104],
      "AngioFlag": "N",
      "BitsAllocated": 16,
      "BitsStored": 16,
      "BodyPartExamined": "BRAIN",
      "Columns": 832,
      "EchoNumbers": 1,
      "EchoTime": 37.0,
      "EchoTrainLength": 104,
      "FlipAngle": 52.0,
      "HighBit": 15,
      "ImageOrientationPatient": [0.99894313696213, -0.0459452202223, 0.00128290879437, 0.04378951816195, 0.9428501775253, -0.330327142148],
      "ImagePositionPatient": [-871.24255798726, -777.74575463047, 243.39631193109],
      "ImageType": [
        "ORIGINAL",
        "PRIMARY",
        "P",
        "MB",
        "ND",
        "MOSAIC"
],
      "ImagedNucleus": "1H",
      "ImagingFrequency": 123.258823,
      "InPlanePhaseEncodingDirection": "COL",
      "LargestImagePixelValue": 4095,
      "MRAcquisitionType": "2D",
      "MagneticFieldStrength": 3.0,
      "Manufacturer": "SIEMENS",
      "ManufacturerModelName": "Prisma_fit",
      "Modality": "MR",
      "NumberOfAverages": 1.0,
      "NumberOfPhaseEncodingSteps": 104,
      "PercentPhaseFieldOfView": 100.0,
      "PercentSampling": 100.0,
      "PerformedProcedureStepStartTime": "154539.011000",
      "PhotometricInterpretation": "MONOCHROME2",
      "PixelBandwidth": 2290.0,
      "PixelRepresentation": 0,
      "PixelSpacing": [2.0, 2.0],
      "ProtocolName": "func_task-mario_run-03",
      "RepetitionTime": 1490.0,
      "RescaleIntercept": -4096.0,
      "RescaleSlope": 2.0,
      "RescaleType": "US",
      "Rows": 832,
      "SAR": 0.05707090361733,
      "SamplesPerPixel": 1,
      "ScanOptions": "FS",
      "ScanningSequence": "EP",
      "SequenceName": "epfid2d1_104",
      "SequenceVariant": [
        "SK",
        "SS"
],
      "SeriesDescription": "func_task-mario_run-03",
      "SeriesNumber": 17,
      "SeriesTime": "163536.000000",
      "SliceLocation": -39.118251956526,
      "SliceThickness": 2.0,
      "SmallestImagePixelValue": 0,
      "SoftwareVersions": "syngo MR E11",
      "SpacingBetweenSlices": 1.9999999713064,
      "SpecificCharacterSet": "ISO_IR 100",
      "StudyID": "1",
      "StudyTime": "154538.934000",
      "TransmitCoilName": "Body",
      "VariableFlipAngleFlag": "N",
      "WindowCenterWidthExplanation": "Algo1",
      "dBdt": 0.0},
    "slices": {}
  },
  "time": {
    "samples": {
      "AcquisitionNumber": [1, 2, 3, 4, 5, 6, 7, 8, 9, 10, 11, 12, 13, 14, 15, 16, 17, 18, 19, 20, 21, 22, 23, 24, 25, 26, 27, 28, 29, 30, 31, 32, 33, 34, 35, 36, 37, 38, 39, 40, 41, 42, 43, 44, 45, 46, 47, 48, 49, 50, 51, 52, 53, 54, 55, 56, 57, 58, 59, 60, 61, 62, 63, 64, 65, 66, 67, 68, 69, 70, 71, 72, 73, 74, 75, 76, 77, 78, 79, 80, 81, 82, 83, 84, 85, 86, 87, 88, 89, 90, 91, 92, 93, 94, 95, 96, 97, 98, 99, 100, 101, 102, 103, 104, 105, 106, 107, 108, 109, 110, 111, 112, 113, 114, 115, 116, 117, 118, 119, 120, 121, 122, 123, 124, 125, 126, 127, 128, 129, 130, 131, 132, 133, 134, 135, 136, 137, 138, 139, 140, 141, 142, 143, 144, 145, 146, 147, 148, 149, 150, 151, 152, 153, 154, 155, 156, 157, 158, 159, 160, 161, 162, 163, 164, 165, 166, 167, 168, 169, 170, 171, 172, 173, 174, 175, 176, 177, 178, 179, 180, 181, 182, 183, 184, 185, 186, 187, 188, 189, 190, 191, 192, 193, 194, 195, 196, 197, 198, 199, 200, 201, 202, 203, 204, 205, 206, 207, 208, 209, 210, 211, 212, 213, 214, 215, 216, 217, 218, 219, 220, 221, 222, 223, 224, 225, 226, 227, 228, 229, 230, 231, 232, 233, 234, 235, 236, 237, 238, 239, 240, 241, 242, 243, 244, 245, 246, 247, 248, 249, 250, 251, 252, 253, 254, 255, 256, 257, 258, 259, 260, 261, 262, 263, 264, 265, 266, 267, 268, 269, 270, 271, 272, 273, 274, 275, 276, 277, 278, 279, 280, 281, 282, 283, 284, 285, 286, 287, 288, 289, 290, 291, 292, 293, 294, 295, 296, 297, 298, 299, 300, 301, 302, 303, 304, 305, 306, 307, 308, 309, 310, 311, 312, 313, 314, 315, 316, 317, 318, 319, 320, 321, 322, 323, 324, 325, 326, 327, 328, 329, 330, 331, 332, 333, 334, 335, 336, 337, 338, 339, 340, 341, 342, 343, 344, 345, 346, 347, 348, 349, 350, 351, 352, 353, 354, 355, 356, 357, 358, 359, 360, 361, 362, 363, 364, 365, 366, 367, 368, 369, 370, 371, 372, 373, 374, 375, 376, 377, 378, 379, 380, 381, 382, 383, 384, 385, 386, 387, 388, 389, 390, 391, 392, 393, 394, 395, 396, 397, 398, 399, 400, 401, 402, 403, 404, 405, 406, 407, 408, 409, 410, 411, 412, 413, 414, 415, 416, 417, 418, 419, 420, 421, 422, 423, 424, 425, 426, 427, 428, 429, 430, 431, 432, 433, 434, 435, 436, 437, 438, 439, 440, 441, 442, 443, 444, 445, 446, 447, 448, 449, 450, 451, 452, 453, 454, 455, 456, 457],
      "AcquisitionTime": ["163410.437500", "163411.927500", "163413.417500", "163414.907500", "163416.397500", "163417.887500", "163419.377500", "163420.867500", "163422.357500", "163423.847500", "163425.337500", "163426.827500", "163428.317500", "163429.807500", "163431.297500", "163432.787500", "163434.277500", "163435.767500", "163437.257500", "163438.747500", "163440.237500", "163441.727500", "163443.217500", "163444.707500", "163446.197500", "163447.687500", "163449.177500", "163450.667500", "163452.157500", "163453.647500", "163455.137500", "163456.627500", "163458.117500", "163459.607500", "163501.097500", "163502.587500", "163504.077500", "163505.567500", "163507.057500", "163508.547500", "163510.037500", "163511.527500", "163513.017500", "163514.507500", "163515.997500", "163517.487500", "163518.977500", "163520.467500", "163521.957500", "163523.447500", "163524.937500", "163526.427500", "163527.917500", "163529.407500", "163530.897500", "163532.387500", "163533.877500", "163535.367500", "163536.857500", "163538.347500", "163539.837500", "163541.327500", "163542.817500", "163544.307500", "163545.797500", "163547.287500", "163548.777500", "163550.267500", "163551.757500", "163553.247500", "163554.737500", "163556.227500", "163557.717500", "163559.207500", "163600.697500", "163602.187500", "163603.677500", "163605.167500", "163606.657500", "163608.147500", "163609.637500", "163611.127500", "163612.617500", "163614.107500", "163615.597500", "163617.087500", "163618.577500", "163620.067500", "163621.557500", "163623.047500", "163624.537500", "163626.027500", "163627.517500", "163629.007500", "163630.497500", "163631.987500", "163633.477500", "163634.967500", "163636.457500", "163637.947500", "163639.437500", "163640.927500", "163642.417500", "163643.907500", "163645.397500", "163646.887500", "163648.377500", "163649.867500", "163651.357500", "163652.847500", "163654.337500", "163655.827500", "163657.317500", "163658.807500", "163700.297500", "163701.787500", "163703.277500", "163704.767500", "163706.257500", "163707.747500", "163709.237500", "163710.727500", "163712.217500", "163713.707500", "163715.197500", "163716.687500", "163718.177500", "163719.667500", "163721.157500", "163722.647500", "163724.137500", "163725.627500", "163727.117500", "163728.607500", "163730.097500", "163731.587500", "163733.077500", "163734.567500", "163736.057500", "163737.547500", "163739.037500", "163740.527500", "163742.017500", "163743.507500", "163744.997500", "163746.487500", "163747.977500", "163749.467500", "163750.957500", "163752.447500", "163753.937500", "163755.427500", "163756.917500", "163758.407500", "163759.897500", "163801.387500", "163802.877500", "163804.367500", "163805.857500", "163807.347500", "163808.837500", "163810.327500", "163811.817500", "163813.307500", "163814.797500", "163816.287500", "163817.777500", "163819.267500", "163820.757500", "163822.247500", "163823.737500", "163825.227500", "163826.717500", "163828.207500", "163829.697500", "163831.187500", "163832.677500", "163834.167500", "163835.657500", "163837.147500", "163838.637500", "163840.127500", "163841.617500", "163843.107500", "163844.597500", "163846.087500", "163847.577500", "163849.067500", "163850.557500", "163852.047500", "163853.537500", "163855.027500", "163856.517500", "163858.007500", "163859.497500", "163900.987500", "163902.477500", "163903.967500", "163905.457500", "163906.947500", "163908.437500", "163909.927500", "163911.417500", "163912.907500", "163914.397500", "163915.887500", "163917.377500", "163918.867500", "163920.357500", "163921.847500", "163923.337500", "163924.827500", "163926.317500", "163927.807500", "163929.297500", "163930.787500", "163932.277500", "163933.767500", "163935.257500", "163936.747500", "163938.237500", "163939.727500", "163941.217500", "163942.707500", "163944.197500", "163945.687500", "163947.177500", "163948.667500", "163950.157500", "163951.647500", "163953.137500", "163954.627500", "163956.117500", "163957.607500", "163959.097500", "164000.587500", "164002.077500", "164003.567500", "164005.057500", "164006.547500", "164008.037500", "164009.527500", "164011.017500", "164012.507500", "164013.997500", "164015.487500", "164016.977500", "164018.467500", "164019.957500", "164021.447500", "164022.937500", "164024.427500", "164025.917500", "164027.407500", "164028.897500", "164030.387500", "164031.877500", "164033.367500", "164034.857500", "164036.347500", "164037.837500", "164039.327500", "164040.817500", "164042.307500", "164043.797500", "164045.287500", "164046.777500", "164048.267500", "164049.757500", "164051.247500", "164052.737500", "164054.227500", "164055.717500", "164057.207500", "164058.697500", "164100.187500", "164101.677500", "164103.167500", "164104.657500", "164106.147500", "164107.637500", "164109.127500", "164110.617500", "164112.107500", "164113.597500", "164115.087500", "164116.577500", "164118.067500", "164119.557500", "164121.047500", "164122.537500", "164124.027500", "164125.517500", "164127.007500", "164128.497500", "164129.987500", "164131.477500", "164132.967500", "164134.457500", "164135.947500", "164137.437500", "164138.927500", "164140.417500", "164141.907500", "164143.397500", "164144.887500", "164146.377500", "164147.867500", "164149.357500", "164150.847500", "164152.337500", "164153.827500", "164155.317500", "164156.807500", "164158.297500", "164159.787500", "164201.277500", "164202.767500", "164204.257500", "164205.747500", "164207.237500", "164208.727500", "164210.217500", "164211.707500", "164213.197500", "164214.687500", "164216.177500", "164217.667500", "164219.157500", "164220.647500", "164222.137500", "164223.627500", "164225.117500", "164226.607500", "164228.097500", "164229.587500", "164231.077500", "164232.567500", "164234.057500", "164235.547500", "164237.037500", "164238.527500", "164240.017500", "164241.507500", "164242.997500", "164244.487500", "164245.977500", "164247.467500", "164248.957500", "164250.447500", "164251.937500", "164253.427500", "164254.917500", "164256.407500", "164257.897500", "164259.387500", "164300.877500", "164302.367500", "164303.857500", "164305.347500", "164306.837500", "164308.327500", "164309.817500", "164311.307500", "164312.797500", "164314.287500", "164315.777500", "164317.267500", "164318.757500", "164320.247500", "164321.737500", "164323.227500", "164324.717500", "164326.207500", "164327.697500", "164329.187500", "164330.677500", "164332.167500", "164333.657500", "164335.147500", "164336.637500", "164338.127500", "164339.617500", "164341.107500", "164342.597500", "164344.087500", "164345.577500", "164347.067500", "164348.557500", "164350.047500", "164351.537500", "164353.027500", "164354.517500", "164356.007500", "164357.497500", "164358.987500", "164400.477500", "164401.967500", "164403.457500", "164404.947500", "164406.437500", "164407.927500", "164409.417500", "164410.907500", "164412.397500", "164413.887500", "164415.377500", "164416.867500", "164418.357500", "164419.847500", "164421.337500", "164422.827500", "164424.317500", "164425.807500", "164427.297500", "164428.787500", "164430.277500", "164431.767500", "164433.257500", "164434.747500", "164436.237500", "164437.727500", "164439.217500", "164440.707500", "164442.197500", "164443.687500", "164445.177500", "164446.667500", "164448.157500", "164449.647500", "164451.137500", "164452.627500", "164454.117500", "164455.607500", "164457.097500", "164458.587500", "164500.077500", "164501.567500", "164503.057500", "164504.547500", "164506.037500", "164507.527500", "164509.017500", "164510.507500", "164511.997500", "164513.487500", "164514.977500", "164516.467500", "164517.957500", "164519.447500", "164520.937500", "164522.427500", "164523.917500", "164525.407500", "164526.897500", "164528.387500", "164529.877500"],
      "ContentTime": ["163536.002000", "163536.005000", "163536.007000", "163536.010000", "163536.012000", "163536.015000", "163536.017000", "163536.020000", "163536.023000", "163536.026000", "163536.028000", "163536.031000", "163536.033000", "163536.036000", "163536.038000", "163536.041000", "163536.043000", "163536.045000", "163536.048000", "163536.050000", "163536.053000", "163536.055000", "163536.058000", "163536.060000", "163536.063000", "163536.065000", "163536.068000", "163536.070000", "163536.073000", "163536.075000", "163555.931000", "163555.934000", "163555.936000", "163555.939000", "163555.941000", "163555.944000", "163555.946000", "163555.949000", "163555.952000", "163555.955000", "163555.958000", "163555.961000", "163555.963000", "163555.967000", "163555.969000", "163555.972000", "163555.975000", "163555.978000", "163555.990000", "163555.993000", "163615.924000", "163615.927000", "163615.929000", "163615.932000", "163615.934000", "163615.937000", "163615.939000", "163615.942000", "163615.944000", "163615.947000", "163615.949000", "163615.952000", "163615.954000", "163615.957000", "163615.959000", "163615.962000", "163615.964000", "163615.967000", "163615.969000", "163615.972000", "163635.940000", "163635.943000", "163635.945000", "163635.948000", "163635.950000", "163635.953000", "163635.955000", "163635.958000", "163635.960000", "163635.963000", "163635.965000", "163635.968000", "163635.970000", "163635.973000", "163635.975000", "163635.978000", "163635.980000", "163635.982000", "163635.985000", "163635.987000", "163655.928000", "163655.931000", "163655.933000", "163655.936000", "163655.938000", "163655.941000", "163655.943000", "163655.946000", "163655.948000", "163655.951000", "163655.953000", "163655.956000", "163655.958000", "163655.960000", "163655.963000", "163655.971000", "163655.973000", "163655.976000", "163655.978000", "163655.981000", "163735.952000", "163735.955000", "163735.958000", "163735.960000", "163735.962000", "163735.965000", "163735.967000", "163735.970000", "163735.972000", "163735.975000", "163735.977000", "163735.980000", "163735.982000", "163735.985000", "163735.987000", "163735.990000", "163735.992000", "163735.995000", "163735.997000", "163736.000000", "163736.002000", "163736.005000", "163736.007000", "163736.010000", "163736.012000", "163736.015000", "163736.017000", "163815.967000", "163815.969000", "163815.972000", "163815.975000", "163815.977000", "163815.980000", "163815.982000", "163815.985000", "163815.987000", "163815.990000", "163815.992000", "163815.995000", "163815.997000", "163816.001000", "163816.003000", "163816.006000", "163816.008000", "163816.011000", "163816.013000", "163816.016000", "163816.018000", "163816.020000", "163816.023000", "163816.025000", "163816.028000", "163816.030000", "163816.033000", "163855.969000", "163855.972000", "163855.974000", "163855.977000", "163855.979000", "163855.982000", "163855.984000", "163855.987000", "163855.989000", "163855.992000", "163855.994000", "163855.997000", "163855.999000", "163856.002000", "163856.004000", "163856.007000", "163856.009000", "163856.012000", "163856.014000", "163856.017000", "163856.019000", "163856.022000", "163856.024000", "163856.027000", "163856.029000", "163856.031000", "163936.358000", "163936.361000", "163936.363000", "163936.366000", "163936.368000", "163936.371000", "163936.373000", "163936.375000", "163936.378000", "163936.380000", "163936.383000", "163936.385000", "163936.388000", "163936.390000", "163936.393000", "163936.395000", "163936.398000", "163936.400000", "163936.403000", "163936.405000", "163936.408000", "163936.420000", "163936.423000", "163936.425000", "163936.428000", "163936.430000", "163936.433000", "164015.956000", "164015.958000", "164015.961000", "164015.963000", "164015.966000", "164015.968000", "164015.971000", "164015.973000", "164015.976000", "164015.978000", "164015.981000", "164015.983000", "164015.986000", "164015.988000", "164015.991000", "164015.993000", "164015.996000", "164015.998000", "164016.000000", "164016.003000", "164016.005000", "164016.008000", "164016.010000", "164016.013000", "164016.015000", "164016.018000", "164016.020000", "164055.975000", "164055.978000", "164055.981000", "164055.983000", "164055.986000", "164055.988000", "164055.990000", "164055.993000", "164055.995000", "164055.998000", "164056.000000", "164056.003000", "164056.005000", "164056.008000", "164056.010000", "164056.013000", "164056.015000", "164056.018000", "164056.020000", "164056.023000", "164056.025000", "164056.027000", "164056.030000", "164056.032000", "164056.035000", "164056.037000", "164056.040000", "164135.978000", "164135.980000", "164135.983000", "164135.985000", "164135.988000", "164135.990000", "164135.993000", "164135.995000", "164135.998000", "164136.001000", "164136.004000", "164136.006000", "164136.009000", "164136.011000", "164136.014000", "164136.016000", "164136.019000", "164136.021000", "164136.024000", "164136.026000", "164136.029000", "164136.031000", "164136.033000", "164136.036000", "164136.038000", "164136.041000", "164136.043000", "164215.951000", "164215.954000", "164215.957000", "164215.959000", "164215.962000", "164215.964000", "164215.966000", "164215.969000", "164215.971000", "164215.974000", "164215.976000", "164215.979000", "164215.981000", "164215.984000", "164215.986000", "164215.989000", "164215.991000", "164215.994000", "164215.996000", "164216.000000", "164216.002000", "164216.005000", "164216.007000", "164216.010000", "164216.012000", "164216.015000", "164216.017000", "164255.977000", "164255.980000", "164255.982000", "164255.985000", "164255.987000", "164255.990000", "164255.992000", "164255.995000", "164255.997000", "164256.001000", "164256.003000", "164256.006000", "164256.008000", "164256.011000", "164256.013000", "164256.016000", "164256.018000", "164256.021000", "164256.023000", "164256.026000", "164256.028000", "164256.031000", "164256.033000", "164256.036000", "164256.038000", "164256.041000", "164256.043000", "164335.957000", "164335.960000", "164335.962000", "164335.965000", "164335.967000", "164335.970000", "164335.973000", "164335.975000", "164335.977000", "164335.980000", "164335.982000", "164335.985000", "164335.987000", "164335.990000", "164335.992000", "164335.995000", "164335.997000", "164336.000000", "164336.002000", "164336.005000", "164336.007000", "164336.010000", "164336.012000", "164336.014000", "164336.017000", "164336.019000", "164415.953000", "164415.956000", "164415.959000", "164415.961000", "164415.964000", "164415.966000", "164415.969000", "164415.971000", "164415.974000", "164415.976000", "164415.979000", "164415.981000", "164415.984000", "164415.986000", "164415.989000", "164415.991000", "164415.994000", "164415.997000", "164416.000000", "164416.003000", "164416.005000", "164416.008000", "164416.010000", "164416.013000", "164416.015000", "164416.018000", "164416.020000", "164455.975000", "164455.977000", "164455.980000", "164455.982000", "164455.985000", "164455.987000", "164455.990000", "164455.992000", "164455.995000", "164455.997000", "164456.000000", "164456.002000", "164456.005000", "164456.007000", "164456.010000", "164456.012000", "164456.015000", "164456.017000", "164456.020000", "164456.022000", "164456.025000", "164456.027000", "164456.029000", "164456.032000", "164456.034000", "164456.037000", "164456.039000", "164532.913000", "164532.915000", "164532.918000", "164532.920000", "164532.923000", "164532.925000", "164532.928000", "164532.931000", "164532.933000", "164532.936000", "164532.938000", "164532.940000", "164532.943000", "164532.945000", "164532.948000", "164532.950000", "164532.953000", "164532.955000", "164532.958000", "164532.960000", "164532.963000", "164532.965000", "164532.968000", "164532.970000", "164532.973000"],
