{
  "AcquisitionMatrixPE": 104,
  "AcquisitionNumber": 1,
  "AcquisitionTime": "16:34:10.437500",
  "BandwidthPerPixelPhaseEncode": 17.17,
  "BaseResolution": 104,
  "BodyPartExamined": "BRAIN",
  "CoilCombinationMethod": "Sum of Squares",
  "ConsistencyInfo": "N4_VE11C_LATEST_20160120",
  "ConversionSoftware": "dcm2niix",
  "ConversionSoftwareVersion": "v1.0.20211006",
  "DerivedVendorReportedEchoSpacing": 0.000560011,
  "DeviceSerialNumber": "167006",
  "DwellTime": 2.1e-06,
  "EchoTime": 0.037,
  "EchoTrainLength": 104,
  "EffectiveEchoSpacing": 0.000560011,
  "FlipAngle": 52,
  "HeudiconvVersion": "0.5.3.post569+g418601f",
  "ImageComments": "Unaliased MB4/PE3/LB",
  "ImageOrientationPatientDICOM": [0.998943, -0.0459452, 0.00128291, 0.0437895, 0.94285, -0.330327],
  "ImageOrientationText": "Tra>Cor(-19.3)>Sag(-0.8)",
  "ImageType": [
    "ORIGINAL",
    "PRIMARY",
    "M",
    "MB",
    "ND",
    "MOSAIC"
],
  "ImagingFrequency": 123.259,
  "InPlanePhaseEncodingDirectionDICOM": "COL",
  "InstitutionAddress": "Chemin Queen-Mary 4565,Montreal,District,CA,H3W 1W5",
  "InstitutionName": "IUGM",
  "InstitutionalDepartmentName": "Department",
  "MRAcquisitionType": "2D",
  "MagneticFieldStrength": 3,
  "Manufacturer": "Siemens",
  "ManufacturersModelName": "Prisma_fit",
  "MatrixCoilMode": "SENSE",
  "Modality": "MR",
  "MultibandAccelerationFactor": 4,
  "PartialFourier": 1,
  "PatientPosition": "HFS",
  "PercentPhaseFOV": 100,
  "PercentSampling": 100,
  "PhaseEncodingDirection": "j",
  "PhaseEncodingSteps": 104,
  "PhaseResolution": 1,
  "PixelBandwidth": 2290,
  "ProcedureStepDescription": "games^mario",
  "ProtocolName": "func_task-mario_run-03",
  "PulseSequenceDetails": "%CustomerSeq%\\cmrr_mbep2d_bold",
  "ReceiveCoilActiveElements": "HC1-7;NC1,2",
  "ReceiveCoilName": "HeadNeck_64",
  "ReconMatrixPE": 104,
  "RepetitionTime": 1.49,
  "SAR": 0.0570709,
  "ScanOptions": "FS",
  "ScanningSequence": "EP",
  "SequenceName": "epfid2d1_104",
  "SequenceVariant": "SK\\SS",
  "SeriesDescription": "func_task-mario_run-03",
  "SeriesNumber": 16,
  "ShimSetting": [629, -7245, -8821, 589, 12, -216, -61, -18],
  "SliceThickness": 2,
  "SliceTiming": [0, 0.7825, 0.0975, 0.8825, 0.195, 0.98, 0.2925, 1.0775, 0.3925, 1.175, 0.49, 1.2725, 0.5875, 1.3725, 0.685, 0, 0.7825, 0.0975, 0.8825, 0.195, 0.98, 0.2925, 1.0775, 0.3925, 1.175, 0.49, 1.2725, 0.5875, 1.3725, 0.685, 0, 0.7825, 0.0975, 0.8825, 0.195, 0.98, 0.2925, 1.0775, 0.3925, 1.175, 0.49, 1.2725, 0.5875, 1.3725, 0.685, 0, 0.7825, 0.0975, 0.8825, 0.195, 0.98, 0.2925, 1.0775, 0.3925, 1.175, 0.49, 1.2725, 0.5875, 1.3725, 0.685],
  "SoftwareVersions": "syngo MR E11",
  "SpacingBetweenSlices": 2,
  "StationName": "MRC35049",
  "TaskName": "mario",
  "TotalReadoutTime": 0.0576811,
  "TxRefAmp": 267.542,
  "WipMemBlock": "600058da-3180-491f-8c2f-7b04f24b0550||Sequence: R016 ve11c/master r/e634e98; Dec 19 2017 11:00:25 by eja",
  "dcmmeta_affine": [
    [-1.997886300086975, 0.08757903426885605, -0.02793472446501255, 103.11254119873047],
    [0.09189043939113617, 1.8857003450393677, -0.6600683927536011, -69.42819213867188],
    [0.0025658176746219397, 0.6606543064117432, 1.8877311944961548, -64.19528198242188],
    [0.0, 0.0, 0.0, 1.0]
],
  "dcmmeta_reorient_transform": [
    [0.0, -1.0, 0.0, 103.0],
    [1.0, 0.0, 0.0, 0.0],
    [0.0, 0.0, 1.0, 0.0],
    [0.0, 0.0, 0.0, 1.0]
],
  "dcmmeta_shape": [104, 104, 60, 457],
  "dcmmeta_slice_dim": 2,
  "dcmmeta_version": 0.6,
  "global": {
    "const": {
      "AcquisitionMatrix": [104, 0, 0, 104],
      "AngioFlag": "N",
      "BitsAllocated": 16,
      "BitsStored": 16,
      "BodyPartExamined": "BRAIN",
      "Columns": 832,
      "EchoNumbers": 1,
      "EchoTime": 37.0,
      "EchoTrainLength": 104,
      "FlipAngle": 52.0,
      "HighBit": 15,
      "ImageOrientationPatient": [0.99894313696213, -0.0459452202223, 0.00128290879437, 0.04378951816195, 0.9428501775253, -0.330327142148],
      "ImagePositionPatient": [-871.24255798726, -777.74575463047, 243.39631193109],
      "ImageType": [
        "ORIGINAL",
        "PRIMARY",
        "M",
        "MB",
        "ND",
        "MOSAIC"
],
      "ImagedNucleus": "1H",
      "ImagingFrequency": 123.258823,
      "InPlanePhaseEncodingDirection": "COL",
      "MRAcquisitionType": "2D",
      "MagneticFieldStrength": 3.0,
      "Manufacturer": "SIEMENS",
      "ManufacturerModelName": "Prisma_fit",
      "Modality": "MR",
      "NumberOfAverages": 1.0,
      "NumberOfPhaseEncodingSteps": 104,
      "PercentPhaseFieldOfView": 100.0,
      "PercentSampling": 100.0,
      "PerformedProcedureStepStartTime": "154539.011000",
      "PhotometricInterpretation": "MONOCHROME2",
      "PixelBandwidth": 2290.0,
      "PixelRepresentation": 0,
      "PixelSpacing": [2.0, 2.0],
      "ProtocolName": "func_task-mario_run-03",
      "RepetitionTime": 1490.0,
      "Rows": 832,
      "SAR": 0.05707090361733,
      "SamplesPerPixel": 1,
      "ScanOptions": "FS",
      "ScanningSequence": "EP",
      "SequenceName": "epfid2d1_104",
      "SequenceVariant": [
        "SK",
        "SS"
],
      "SeriesDescription": "func_task-mario_run-03",
      "SeriesNumber": 16,
      "SeriesTime": "163535.846000",
      "SliceLocation": -39.118251956526,
      "SliceThickness": 2.0,
      "SmallestImagePixelValue": 0,
      "SoftwareVersions": "syngo MR E11",
      "SpacingBetweenSlices": 1.9999999713064,
      "SpecificCharacterSet": "ISO_IR 100",
      "StudyID": "1",
      "StudyTime": "154538.934000",
      "TransmitCoilName": "Body",
      "VariableFlipAngleFlag": "N",
      "WindowCenterWidthExplanation": "Algo1",
      "dBdt": 0.0},
    "slices": {}
  },
  "time": {
    "samples": {
      "AcquisitionNumber": [1, 2, 3, 4, 5, 6, 7, 8, 9, 10, 11, 12, 13, 14, 15, 16, 17, 18, 19, 20, 21, 22, 23, 24, 25, 26, 27, 28, 29, 30, 31, 32, 33, 34, 35, 36, 37, 38, 39, 40, 41, 42, 43, 44, 45, 46, 47, 48, 49, 50, 51, 52, 53, 54, 55, 56, 57, 58, 59, 60, 61, 62, 63, 64, 65, 66, 67, 68, 69, 70, 71, 72, 73, 74, 75, 76, 77, 78, 79, 80, 81, 82, 83, 84, 85, 86, 87, 88, 89, 90, 91, 92, 93, 94, 95, 96, 97, 98, 99, 100, 101, 102, 103, 104, 105, 106, 107, 108, 109, 110, 111, 112, 113, 114, 115, 116, 117, 118, 119, 120, 121, 122, 123, 124, 125, 126, 127, 128, 129, 130, 131, 132, 133, 134, 135, 136, 137, 138, 139, 140, 141, 142, 143, 144, 145, 146, 147, 148, 149, 150, 151, 152, 153, 154, 155, 156, 157, 158, 159, 160, 161, 162, 163, 164, 165, 166, 167, 168, 169, 170, 171, 172, 173, 174, 175, 176, 177, 178, 179, 180, 181, 182, 183, 184, 185, 186, 187, 188, 189, 190, 191, 192, 193, 194, 195, 196, 197, 198, 199, 200, 201, 202, 203, 204, 205, 206, 207, 208, 209, 210, 211, 212, 213, 214, 215, 216, 217, 218, 219, 220, 221, 222, 223, 224, 225, 226, 227, 228, 229, 230, 231, 232, 233, 234, 235, 236, 237, 238, 239, 240, 241, 242, 243, 244, 245, 246, 247, 248, 249, 250, 251, 252, 253, 254, 255, 256, 257, 258, 259, 260, 261, 262, 263, 264, 265, 266, 267, 268, 269, 270, 271, 272, 273, 274, 275, 276, 277, 278, 279, 280, 281, 282, 283, 284, 285, 286, 287, 288, 289, 290, 291, 292, 293, 294, 295, 296, 297, 298, 299, 300, 301, 302, 303, 304, 305, 306, 307, 308, 309, 310, 311, 312, 313, 314, 315, 316, 317, 318, 319, 320, 321, 322, 323, 324, 325, 326, 327, 328, 329, 330, 331, 332, 333, 334, 335, 336, 337, 338, 339, 340, 341, 342, 343, 344, 345, 346, 347, 348, 349, 350, 351, 352, 353, 354, 355, 356, 357, 358, 359, 360, 361, 362, 363, 364, 365, 366, 367, 368, 369, 370, 371, 372, 373, 374, 375, 376, 377, 378, 379, 380, 381, 382, 383, 384, 385, 386, 387, 388, 389, 390, 391, 392, 393, 394, 395, 396, 397, 398, 399, 400, 401, 402, 403, 404, 405, 406, 407, 408, 409, 410, 411, 412, 413, 414, 415, 416, 417, 418, 419, 420, 421, 422, 423, 424, 425, 426, 427, 428, 429, 430, 431, 432, 433, 434, 435, 436, 437, 438, 439, 440, 441, 442, 443, 444, 445, 446, 447, 448, 449, 450, 451, 452, 453, 454, 455, 456, 457],
      "AcquisitionTime": ["163410.437500", "163411.927500", "163413.417500", "163414.907500", "163416.397500", "163417.887500", "163419.377500", "163420.867500", "163422.357500", "163423.847500", "163425.337500", "163426.827500", "163428.317500", "163429.807500", "163431.297500", "163432.787500", "163434.277500", "163435.767500", "163437.257500", "163438.747500", "163440.237500", "163441.727500", "163443.217500", "163444.707500", "163446.197500", "163447.687500", "163449.177500", "163450.667500", "163452.157500", "163453.647500", "163455.137500", "163456.627500", "163458.117500", "163459.607500", "163501.097500", "163502.587500", "163504.077500", "163505.567500", "163507.057500", "163508.547500", "163510.037500", "163511.527500", "163513.017500", "163514.507500", "163515.997500", "163517.487500", "163518.977500", "163520.467500", "163521.957500", "163523.447500", "163524.937500", "163526.427500", "163527.917500", "163529.407500", "163530.897500", "163532.387500", "163533.877500", "163535.367500", "163536.857500", "163538.347500", "163539.837500", "163541.327500", "163542.817500", "163544.307500", "163545.797500", "163547.287500", "163548.777500", "163550.267500", "163551.757500", "163553.247500", "163554.737500", "163556.227500", "163557.717500", "163559.207500", "163600.697500", "163602.187500", "163603.677500", "163605.167500", "163606.657500", "163608.147500", "163609.637500", "163611.127500", "163612.617500", "163614.107500", "163615.597500", "163617.087500", "163618.577500", "163620.067500", "163621.557500", "163623.047500", "163624.537500", "163626.027500", "163627.517500", "163629.007500", "163630.497500", "163631.987500", "163633.477500", "163634.967500", "163636.457500", "163637.947500", "163639.437500", "163640.927500", "163642.417500", "163643.907500", "163645.397500", "163646.887500", "163648.377500", "163649.867500", "163651.357500", "163652.847500", "163654.337500", "163655.827500", "163657.317500", "163658.807500", "163700.297500", "163701.787500", "163703.277500", "163704.767500", "163706.257500", "163707.747500", "163709.237500", "163710.727500", "163712.217500", "163713.707500", "163715.197500", "163716.687500", "163718.177500", "163719.667500", "163721.157500", "163722.647500", "163724.137500", "163725.627500", "163727.117500", "163728.607500", "163730.097500", "163731.587500", "163733.077500", "163734.567500", "163736.057500", "163737.547500", "163739.037500", "163740.527500", "163742.017500", "163743.507500", "163744.997500", "163746.487500", "163747.977500", "163749.467500", "163750.957500", "163752.447500", "163753.937500", "163755.427500", "163756.917500", "163758.407500", "163759.897500", "163801.387500", "163802.877500", "163804.367500", "163805.857500", "163807.347500", "163808.837500", "163810.327500", "163811.817500", "163813.307500", "163814.797500", "163816.287500", "163817.777500", "163819.267500", "163820.757500", "163822.247500", "163823.737500", "163825.227500", "163826.717500", "163828.207500", "163829.697500", "163831.187500", "163832.677500", "163834.167500", "163835.657500", "163837.147500", "163838.637500", "163840.127500", "163841.617500", "163843.107500", "163844.597500", "163846.087500", "163847.577500", "163849.067500", "163850.557500", "163852.047500", "163853.537500", "163855.027500", "163856.517500", "163858.007500", "163859.497500", "163900.987500", "163902.477500", "163903.967500", "163905.457500", "163906.947500", "163908.437500", "163909.927500", "163911.417500", "163912.907500", "163914.397500", "163915.887500", "163917.377500", "163918.867500", "163920.357500", "163921.847500", "163923.337500", "163924.827500", "163926.317500", "163927.807500", "163929.297500", "163930.787500", "163932.277500", "163933.767500", "163935.257500", "163936.747500", "163938.237500", "163939.727500", "163941.217500", "163942.707500", "163944.197500", "163945.687500", "163947.177500", "163948.667500", "163950.157500", "163951.647500", "163953.137500", "163954.627500", "163956.117500", "163957.607500", "163959.097500", "164000.587500", "164002.077500", "164003.567500", "164005.057500", "164006.547500", "164008.037500", "164009.527500", "164011.017500", "164012.507500", "164013.997500", "164015.487500", "164016.977500", "164018.467500", "164019.957500", "164021.447500", "164022.937500", "164024.427500", "164025.917500", "164027.407500", "164028.897500", "164030.387500", "164031.877500", "164033.367500", "164034.857500", "164036.347500", "164037.837500", "164039.327500", "164040.817500", "164042.307500", "164043.797500", "164045.287500", "164046.777500", "164048.267500", "164049.757500", "164051.247500", "164052.737500", "164054.227500", "164055.717500", "164057.207500", "164058.697500", "164100.187500", "164101.677500", "164103.167500", "164104.657500", "164106.147500", "164107.637500", "164109.127500", "164110.617500", "164112.107500", "164113.597500", "164115.087500", "164116.577500", "164118.067500", "164119.557500", "164121.047500", "164122.537500", "164124.027500", "164125.517500", "164127.007500", "164128.497500", "164129.987500", "164131.477500", "164132.967500", "164134.457500", "164135.947500", "164137.437500", "164138.927500", "164140.417500", "164141.907500", "164143.397500", "164144.887500", "164146.377500", "164147.867500", "164149.357500", "164150.847500", "164152.337500", "164153.827500", "164155.317500", "164156.807500", "164158.297500", "164159.787500", "164201.277500", "164202.767500", "164204.257500", "164205.747500", "164207.237500", "164208.727500", "164210.217500", "164211.707500", "164213.197500", "164214.687500", "164216.177500", "164217.667500", "164219.157500", "164220.647500", "164222.137500", "164223.627500", "164225.117500", "164226.607500", "164228.097500", "164229.587500", "164231.077500", "164232.567500", "164234.057500", "164235.547500", "164237.037500", "164238.527500", "164240.017500", "164241.507500", "164242.997500", "164244.487500", "164245.977500", "164247.467500", "164248.957500", "164250.447500", "164251.937500", "164253.427500", "164254.917500", "164256.407500", "164257.897500", "164259.387500", "164300.877500", "164302.367500", "164303.857500", "164305.347500", "164306.837500", "164308.327500", "164309.817500", "164311.307500", "164312.797500", "164314.287500", "164315.777500", "164317.267500", "164318.757500", "164320.247500", "164321.737500", "164323.227500", "164324.717500", "164326.207500", "164327.697500", "164329.187500", "164330.677500", "164332.167500", "164333.657500", "164335.147500", "164336.637500", "164338.127500", "164339.617500", "164341.107500", "164342.597500", "164344.087500", "164345.577500", "164347.067500", "164348.557500", "164350.047500", "164351.537500", "164353.027500", "164354.517500", "164356.007500", "164357.497500", "164358.987500", "164400.477500", "164401.967500", "164403.457500", "164404.947500", "164406.437500", "164407.927500", "164409.417500", "164410.907500", "164412.397500", "164413.887500", "164415.377500", "164416.867500", "164418.357500", "164419.847500", "164421.337500", "164422.827500", "164424.317500", "164425.807500", "164427.297500", "164428.787500", "164430.277500", "164431.767500", "164433.257500", "164434.747500", "164436.237500", "164437.727500", "164439.217500", "164440.707500", "164442.197500", "164443.687500", "164445.177500", "164446.667500", "164448.157500", "164449.647500", "164451.137500", "164452.627500", "164454.117500", "164455.607500", "164457.097500", "164458.587500", "164500.077500", "164501.567500", "164503.057500", "164504.547500", "164506.037500", "164507.527500", "164509.017500", "164510.507500", "164511.997500", "164513.487500", "164514.977500", "164516.467500", "164517.957500", "164519.447500", "164520.937500", "164522.427500", "164523.917500", "164525.407500", "164526.897500", "164528.387500", "164529.877500"],
      "ContentTime": ["163535.849000", "163535.853000", "163535.857000", "163535.860000", "163535.863000", "163535.867000", "163535.870000", "163535.873000", "163535.876000", "163535.880000", "163535.883000", "163535.886000", "163535.889000", "163535.893000", "163535.897000", "163535.900000", "163535.903000", "163535.907000", "163535.910000", "163535.913000", "163535.917000", "163535.920000", "163535.923000", "163535.927000", "163535.930000", "163535.934000", "163535.937000", "163535.941000", "163535.944000", "163535.947000", "163555.820000", "163555.824000", "163555.827000", "163555.831000", "163555.834000", "163555.837000", "163555.840000", "163555.844000", "163555.848000", "163555.852000", "163555.855000", "163555.859000", "163555.862000", "163555.865000", "163555.869000", "163555.872000", "163555.875000", "163555.879000", "163555.882000", "163555.885000", "163615.820000", "163615.829000", "163615.832000", "163615.836000", "163615.839000", "163615.842000", "163615.845000", "163615.849000", "163615.852000", "163615.855000", "163615.859000", "163615.862000", "163615.865000", "163615.868000", "163615.872000", "163615.875000", "163615.878000", "163615.881000", "163615.885000", "163615.888000", "163635.820000", "163635.824000", "163635.827000", "163635.830000", "163635.833000", "163635.837000", "163635.840000", "163635.843000", "163635.847000", "163635.850000", "163635.853000", "163635.856000", "163635.860000", "163635.863000", "163635.866000", "163635.869000", "163635.873000", "163635.876000", "163635.879000", "163635.888000", "163655.820000", "163655.824000", "163655.827000", "163655.830000", "163655.833000", "163655.837000", "163655.840000", "163655.843000", "163655.847000", "163655.850000", "163655.853000", "163655.856000", "163655.860000", "163655.863000", "163655.866000", "163655.869000", "163655.873000", "163655.876000", "163655.879000", "163655.882000", "163735.820000", "163735.824000", "163735.827000", "163735.830000", "163735.833000", "163735.837000", "163735.840000", "163735.843000", "163735.847000", "163735.850000", "163735.853000", "163735.856000", "163735.859000", "163735.863000", "163735.866000", "163735.869000", "163735.873000", "163735.876000", "163735.879000", "163735.882000", "163735.886000", "163735.889000", "163735.892000", "163735.895000", "163735.899000", "163735.902000", "163735.905000", "163815.820000", "163815.824000", "163815.827000", "163815.831000", "163815.834000", "163815.837000", "163815.841000", "163815.844000", "163815.847000", "163815.850000", "163815.854000", "163815.857000", "163815.860000", "163815.874000", "163815.877000", "163815.880000", "163815.884000", "163815.887000", "163815.890000", "163815.893000", "163815.897000", "163815.900000", "163815.903000", "163815.907000", "163815.910000", "163815.913000", "163815.916000", "163855.822000", "163855.826000", "163855.830000", "163855.833000", "163855.837000", "163855.840000", "163855.843000", "163855.847000", "163855.850000", "163855.853000", "163855.857000", "163855.860000", "163855.863000", "163855.866000", "163855.870000", "163855.873000", "163855.876000", "163855.879000", "163855.883000", "163855.886000", "163855.889000", "163855.893000", "163855.896000", "163855.899000", "163855.902000", "163855.905000", "163855.909000", "163935.820000", "163935.824000", "163935.827000", "163935.830000", "163935.834000", "163935.837000", "163935.840000", "163935.844000", "163935.847000", "163935.850000", "163935.853000", "163935.856000", "163935.860000", "163935.863000", "163935.866000", "163935.869000", "163935.873000", "163935.876000", "163935.879000", "163935.883000", "163935.886000", "163935.889000", "163935.892000", "163935.896000", "163935.899000", "163935.902000", "164015.819000", "164015.823000", "164015.826000", "164015.829000", "164015.833000", "164015.836000", "164015.839000", "164015.842000", "164015.846000", "164015.849000", "164015.852000", "164015.855000", "164015.859000", "164015.862000", "164015.866000", "164015.869000", "164015.872000", "164015.875000", "164015.879000", "164015.882000", "164015.885000", "164015.888000", "164015.892000", "164015.895000", "164015.898000", "164015.901000", "164015.905000", "164055.820000", "164055.824000", "164055.837000", "164055.840000", "164055.843000", "164055.846000", "164055.850000", "164055.853000", "164055.856000", "164055.859000", "164055.863000", "164055.866000", "164055.869000", "164055.872000", "164055.876000", "164055.879000", "164055.882000", "164055.886000", "164055.889000", "164055.892000", "164055.895000", "164055.898000", "164055.902000", "164055.905000", "164055.908000", "164055.911000", "164055.915000", "164135.820000", "164135.824000", "164135.827000", "164135.830000", "164135.834000", "164135.837000", "164135.840000", "164135.843000", "164135.847000", "164135.850000", "164135.853000", "164135.856000", "164135.860000", "164135.863000", "164135.866000", "164135.869000", "164135.873000", "164135.876000", "164135.879000", "164135.883000", "164135.886000", "164135.889000", "164135.893000", "164135.896000", "164135.899000", "164135.902000", "164135.906000", "164215.820000", "164215.824000", "164215.827000", "164215.830000", "164215.834000", "164215.837000", "164215.840000", "164215.844000", "164215.847000", "164215.850000", "164215.853000", "164215.857000", "164215.860000", "164215.863000", "164215.866000", "164215.870000", "164215.873000", "164215.876000", "164215.879000", "164215.883000", "164215.886000", "164215.889000", "164215.892000", "164215.896000", "164215.899000", "164215.902000", "164215.905000", "164255.820000", "164255.824000", "164255.827000", "164255.831000", "164255.834000", "164255.837000", "164255.840000", "164255.844000", "164255.847000", "164255.850000", "164255.853000", "164255.857000", "164255.860000", "164255.863000", "164255.885000", "164255.888000", "164255.891000", "164255.894000", "164255.898000", "164255.901000", "164255.904000", "164255.908000", "164255.911000", "164255.914000", "164255.917000", "164255.921000", "164255.924000", "164335.820000", "164335.824000", "164335.827000", "164335.830000", "164335.834000", "164335.837000", "164335.840000", "164335.844000", "164335.847000", "164335.851000", "164335.854000", "164335.857000", "164335.861000", "164335.864000", "164335.869000", "164335.872000", "164335.876000", "164335.879000", "164335.882000", "164335.886000", "164335.889000", "164335.892000", "164335.895000", "164335.899000", "164335.902000", "164335.905000", "164415.820000", "164415.824000", "164415.827000", "164415.831000", "164415.834000", "164415.837000", "164415.840000", "164415.844000", "164415.847000", "164415.850000", "164415.854000", "164415.857000", "164415.860000", "164415.864000", "164415.867000", "164415.870000", "164415.874000", "164415.877000", "164415.880000", "164415.884000", "164415.887000", "164415.890000", "164415.893000", "164415.897000", "164415.900000", "164415.903000", "164415.906000", "164455.819000", "164455.823000", "164455.826000", "164455.829000", "164455.833000", "164455.836000", "164455.839000", "164455.843000", "164455.846000", "164455.849000", "164455.852000", "164455.856000", "164455.859000", "164455.862000", "164455.866000", "164455.869000", "164455.872000", "164455.875000", "164455.879000", "164455.882000", "164455.885000", "164455.888000", "164455.892000", "164455.895000", "164455.898000", "164455.901000", "164455.905000", "164532.769000", "164532.773000", "164532.777000", "164532.781000", "164532.784000", "164532.788000", "164532.791000", "164532.794000", "164532.798000", "164532.801000", "164532.804000", "164532.807000", "164532.811000", "164532.814000", "164532.817000", "164532.820000", "164532.823000", "164532.827000", "164532.830000", "164532.833000", "164532.836000", "164532.840000", "164532.843000", "164532.846000", "164532.850000"],
