{
  "AcquisitionMatrixPE": 104,
  "AcquisitionNumber": 1,
  "AcquisitionTime": "16:06:55.642500",
  "BandwidthPerPixelPhaseEncode": 17.17,
  "BaseResolution": 104,
  "BodyPartExamined": "BRAIN",
  "CoilCombinationMethod": "Sum of Squares",
  "ConsistencyInfo": "N4_VE11C_LATEST_20160120",
  "ConversionSoftware": "dcm2niix",
  "ConversionSoftwareVersion": "v1.0.20211006",
  "DerivedVendorReportedEchoSpacing": 0.000560011,
  "DeviceSerialNumber": "167006",
  "DwellTime": 2.1e-06,
  "EchoTime": 0.037,
  "EchoTrainLength": 104,
  "EffectiveEchoSpacing": 0.000560011,
  "FlipAngle": 52,
  "HeudiconvVersion": "0.5.3.post569+g418601f",
  "ImageComments": "Unaliased MB4/PE3/LB",
  "ImageOrientationPatientDICOM": [0.998943, -0.0459452, 0.00128291, 0.0437895, 0.94285, -0.330327],
  "ImageOrientationText": "Tra>Cor(-19.3)>Sag(-0.8)",
  "ImageType": [
    "ORIGINAL",
    "PRIMARY",
    "M",
    "MB",
    "ND",
    "MOSAIC"
],
  "ImagingFrequency": 123.259,
  "InPlanePhaseEncodingDirectionDICOM": "COL",
  "InstitutionAddress": "Chemin Queen-Mary 4565,Montreal,District,CA,H3W 1W5",
  "InstitutionName": "IUGM",
  "InstitutionalDepartmentName": "Department",
  "MRAcquisitionType": "2D",
  "MagneticFieldStrength": 3,
  "Manufacturer": "Siemens",
  "ManufacturersModelName": "Prisma_fit",
  "MatrixCoilMode": "SENSE",
  "Modality": "MR",
  "MultibandAccelerationFactor": 4,
  "PartialFourier": 1,
  "PatientPosition": "HFS",
  "PercentPhaseFOV": 100,
  "PercentSampling": 100,
  "PhaseEncodingDirection": "j",
  "PhaseEncodingSteps": 104,
  "PhaseResolution": 1,
  "PixelBandwidth": 2290,
  "ProcedureStepDescription": "games^mario",
  "ProtocolName": "func_task-mario_run-01",
  "PulseSequenceDetails": "%CustomerSeq%\\cmrr_mbep2d_bold",
  "ReceiveCoilActiveElements": "HC1-7;NC1,2",
  "ReceiveCoilName": "HeadNeck_64",
  "ReconMatrixPE": 104,
  "RepetitionTime": 1.49,
  "SAR": 0.0570709,
  "ScanOptions": "FS",
  "ScanningSequence": "EP",
  "SequenceName": "epfid2d1_104",
  "SequenceVariant": "SK\\SS",
  "SeriesDescription": "func_task-mario_run-01",
  "SeriesNumber": 10,
  "ShimSetting": [629, -7245, -8821, 589, 12, -216, -61, -18],
  "SliceThickness": 2,
  "SliceTiming": [0, 0.7825, 0.0975, 0.88, 0.195, 0.9775, 0.2925, 1.0775, 0.39, 1.175, 0.49, 1.2725, 0.5875, 1.37, 0.685, 0, 0.7825, 0.0975, 0.88, 0.195, 0.9775, 0.2925, 1.0775, 0.39, 1.175, 0.49, 1.2725, 0.5875, 1.37, 0.685, 0, 0.7825, 0.0975, 0.88, 0.195, 0.9775, 0.2925, 1.0775, 0.39, 1.175, 0.49, 1.2725, 0.5875, 1.37, 0.685, 0, 0.7825, 0.0975, 0.88, 0.195, 0.9775, 0.2925, 1.0775, 0.39, 1.175, 0.49, 1.2725, 0.5875, 1.37, 0.685],
  "SoftwareVersions": "syngo MR E11",
  "SpacingBetweenSlices": 2,
  "StationName": "MRC35049",
  "TaskName": "mario",
  "TotalReadoutTime": 0.0576811,
  "TxRefAmp": 267.542,
  "WipMemBlock": "dfea06bb-0061-45ef-9e0c-b0f4de296905||Sequence: R016 ve11c/master r/e634e98; Dec 19 2017 11:00:25 by eja",
  "dcmmeta_affine": [
    [-1.997886300086975, 0.08757903426885605, -0.02793472446501255, 103.11254119873047],
    [0.09189043939113617, 1.8857003450393677, -0.6600683927536011, -69.42819213867188],
    [0.0025658176746219397, 0.6606543064117432, 1.8877311944961548, -64.19528198242188],
    [0.0, 0.0, 0.0, 1.0]
],
  "dcmmeta_reorient_transform": [
    [0.0, -1.0, 0.0, 103.0],
    [1.0, 0.0, 0.0, 0.0],
    [0.0, 0.0, 1.0, 0.0],
    [0.0, 0.0, 0.0, 1.0]
],
  "dcmmeta_shape": [104, 104, 60, 422],
  "dcmmeta_slice_dim": 2,
  "dcmmeta_version": 0.6,
  "global": {
    "const": {
      "AcquisitionMatrix": [104, 0, 0, 104],
      "AngioFlag": "N",
      "BitsAllocated": 16,
      "BitsStored": 16,
      "BodyPartExamined": "BRAIN",
      "Columns": 832,
      "EchoNumbers": 1,
      "EchoTime": 37.0,
      "EchoTrainLength": 104,
      "FlipAngle": 52.0,
      "HighBit": 15,
      "ImageOrientationPatient": [0.99894313696213, -0.0459452202223, 0.00128290879437, 0.04378951816195, 0.9428501775253, -0.330327142148],
      "ImagePositionPatient": [-871.24255798726, -777.74575463047, 243.39631193109],
      "ImageType": [
        "ORIGINAL",
        "PRIMARY",
        "M",
        "MB",
        "ND",
        "MOSAIC"
],
      "ImagedNucleus": "1H",
      "ImagingFrequency": 123.25881,
      "InPlanePhaseEncodingDirection": "COL",
      "MRAcquisitionType": "2D",
      "MagneticFieldStrength": 3.0,
      "Manufacturer": "SIEMENS",
      "ManufacturerModelName": "Prisma_fit",
      "Modality": "MR",
      "NumberOfAverages": 1.0,
      "NumberOfPhaseEncodingSteps": 104,
      "PercentPhaseFieldOfView": 100.0,
      "PercentSampling": 100.0,
      "PerformedProcedureStepStartTime": "154539.011000",
      "PhotometricInterpretation": "MONOCHROME2",
      "PixelBandwidth": 2290.0,
      "PixelRepresentation": 0,
      "PixelSpacing": [2.0, 2.0],
      "ProtocolName": "func_task-mario_run-01",
      "RepetitionTime": 1490.0,
      "Rows": 832,
      "SAR": 0.05707090361733,
      "SamplesPerPixel": 1,
      "ScanOptions": "FS",
      "ScanningSequence": "EP",
      "SequenceName": "epfid2d1_104",
      "SequenceVariant": [
        "SK",
        "SS"
],
      "SeriesDescription": "func_task-mario_run-01",
      "SeriesNumber": 10,
      "SeriesTime": "160821.037000",
      "SliceLocation": -39.118251956526,
      "SliceThickness": 2.0,
      "SmallestImagePixelValue": 0,
      "SoftwareVersions": "syngo MR E11",
      "SpacingBetweenSlices": 1.9999999713064,
      "SpecificCharacterSet": "ISO_IR 100",
      "StudyID": "1",
      "StudyTime": "154538.934000",
      "TransmitCoilName": "Body",
      "VariableFlipAngleFlag": "N",
      "WindowCenterWidthExplanation": "Algo1",
      "dBdt": 0.0},
    "slices": {}
  },
  "time": {
    "samples": {
      "AcquisitionNumber": [1, 2, 3, 4, 5, 6, 7, 8, 9, 10, 11, 12, 13, 14, 15, 16, 17, 18, 19, 20, 21, 22, 23, 24, 25, 26, 27, 28, 29, 30, 31, 32, 33, 34, 35, 36, 37, 38, 39, 40, 41, 42, 43, 44, 45, 46, 47, 48, 49, 50, 51, 52, 53, 54, 55, 56, 57, 58, 59, 60, 61, 62, 63, 64, 65, 66, 67, 68, 69, 70, 71, 72, 73, 74, 75, 76, 77, 78, 79, 80, 81, 82, 83, 84, 85, 86, 87, 88, 89, 90, 91, 92, 93, 94, 95, 96, 97, 98, 99, 100, 101, 102, 103, 104, 105, 106, 107, 108, 109, 110, 111, 112, 113, 114, 115, 116, 117, 118, 119, 120, 121, 122, 123, 124, 125, 126, 127, 128, 129, 130, 131, 132, 133, 134, 135, 136, 137, 138, 139, 140, 141, 142, 143, 144, 145, 146, 147, 148, 149, 150, 151, 152, 153, 154, 155, 156, 157, 158, 159, 160, 161, 162, 163, 164, 165, 166, 167, 168, 169, 170, 171, 172, 173, 174, 175, 176, 177, 178, 179, 180, 181, 182, 183, 184, 185, 186, 187, 188, 189, 190, 191, 192, 193, 194, 195, 196, 197, 198, 199, 200, 201, 202, 203, 204, 205, 206, 207, 208, 209, 210, 211, 212, 213, 214, 215, 216, 217, 218, 219, 220, 221, 222, 223, 224, 225, 226, 227, 228, 229, 230, 231, 232, 233, 234, 235, 236, 237, 238, 239, 240, 241, 242, 243, 244, 245, 246, 247, 248, 249, 250, 251, 252, 253, 254, 255, 256, 257, 258, 259, 260, 261, 262, 263, 264, 265, 266, 267, 268, 269, 270, 271, 272, 273, 274, 275, 276, 277, 278, 279, 280, 281, 282, 283, 284, 285, 286, 287, 288, 289, 290, 291, 292, 293, 294, 295, 296, 297, 298, 299, 300, 301, 302, 303, 304, 305, 306, 307, 308, 309, 310, 311, 312, 313, 314, 315, 316, 317, 318, 319, 320, 321, 322, 323, 324, 325, 326, 327, 328, 329, 330, 331, 332, 333, 334, 335, 336, 337, 338, 339, 340, 341, 342, 343, 344, 345, 346, 347, 348, 349, 350, 351, 352, 353, 354, 355, 356, 357, 358, 359, 360, 361, 362, 363, 364, 365, 366, 367, 368, 369, 370, 371, 372, 373, 374, 375, 376, 377, 378, 379, 380, 381, 382, 383, 384, 385, 386, 387, 388, 389, 390, 391, 392, 393, 394, 395, 396, 397, 398, 399, 400, 401, 402, 403, 404, 405, 406, 407, 408, 409, 410, 411, 412, 413, 414, 415, 416, 417, 418, 419, 420, 421, 422],
      "AcquisitionTime": ["160655.642500", "160657.132500", "160658.622500", "160700.112500", "160701.602500", "160703.092500", "160704.582500", "160706.072500", "160707.562500", "160709.052500", "160710.542500", "160712.032500", "160713.522500", "160715.012500", "160716.502500", "160717.992500", "160719.482500", "160720.972500", "160722.462500", "160723.952500", "160725.442500", "160726.932500", "160728.422500", "160729.912500", "160731.402500", "160732.892500", "160734.382500", "160735.872500", "160737.362500", "160738.852500", "160740.342500", "160741.832500", "160743.322500", "160744.812500", "160746.302500", "160747.792500", "160749.282500", "160750.772500", "160752.262500", "160753.752500", "160755.242500", "160756.732500", "160758.222500", "160759.712500", "160801.202500", "160802.692500", "160804.182500", "160805.672500", "160807.162500", "160808.652500", "160810.142500", "160811.632500", "160813.122500", "160814.612500", "160816.102500", "160817.592500", "160819.082500", "160820.572500", "160822.062500", "160823.552500", "160825.042500", "160826.532500", "160828.022500", "160829.512500", "160831.002500", "160832.492500", "160833.982500", "160835.472500", "160836.962500", "160838.452500", "160839.942500", "160841.432500", "160842.922500", "160844.412500", "160845.902500", "160847.392500", "160848.882500", "160850.372500", "160851.862500", "160853.352500", "160854.842500", "160856.332500", "160857.822500", "160859.312500", "160900.802500", "160902.292500", "160903.782500", "160905.272500", "160906.762500", "160908.252500", "160909.742500", "160911.232500", "160912.722500", "160914.212500", "160915.702500", "160917.192500", "160918.682500", "160920.172500", "160921.662500", "160923.152500", "160924.642500", "160926.132500", "160927.622500", "160929.112500", "160930.602500", "160932.092500", "160933.582500", "160935.072500", "160936.562500", "160938.052500", "160939.542500", "160941.032500", "160942.522500", "160944.012500", "160945.502500", "160946.992500", "160948.482500", "160949.972500", "160951.462500", "160952.952500", "160954.442500", "160955.932500", "160957.422500", "160958.912500", "161000.402500", "161001.892500", "161003.382500", "161004.872500", "161006.362500", "161007.852500", "161009.342500", "161010.832500", "161012.322500", "161013.812500", "161015.302500", "161016.792500", "161018.282500", "161019.772500", "161021.262500", "161022.752500", "161024.242500", "161025.732500", "161027.222500", "161028.712500", "161030.202500", "161031.692500", "161033.182500", "161034.672500", "161036.162500", "161037.652500", "161039.142500", "161040.632500", "161042.122500", "161043.612500", "161045.102500", "161046.592500", "161048.082500", "161049.572500", "161051.062500", "161052.552500", "161054.042500", "161055.532500", "161057.022500", "161058.512500", "161100.002500", "161101.492500", "161102.982500", "161104.472500", "161105.962500", "161107.452500", "161108.942500", "161110.432500", "161111.922500", "161113.412500", "161114.902500", "161116.392500", "161117.882500", "161119.372500", "161120.862500", "161122.352500", "161123.842500", "161125.332500", "161126.822500", "161128.312500", "161129.802500", "161131.292500", "161132.782500", "161134.272500", "161135.762500", "161137.252500", "161138.742500", "161140.232500", "161141.722500", "161143.212500", "161144.702500", "161146.192500", "161147.682500", "161149.172500", "161150.662500", "161152.152500", "161153.642500", "161155.132500", "161156.622500", "161158.112500", "161159.602500", "161201.092500", "161202.582500", "161204.072500", "161205.562500", "161207.052500", "161208.542500", "161210.032500", "161211.522500", "161213.012500", "161214.502500", "161215.992500", "161217.482500", "161218.972500", "161220.462500", "161221.952500", "161223.442500", "161224.932500", "161226.422500", "161227.912500", "161229.402500", "161230.892500", "161232.382500", "161233.872500", "161235.362500", "161236.852500", "161238.342500", "161239.832500", "161241.322500", "161242.812500", "161244.302500", "161245.792500", "161247.282500", "161248.772500", "161250.262500", "161251.752500", "161253.242500", "161254.732500", "161256.222500", "161257.712500", "161259.202500", "161300.692500", "161302.182500", "161303.672500", "161305.162500", "161306.652500", "161308.142500", "161309.632500", "161311.122500", "161312.612500", "161314.102500", "161315.592500", "161317.082500", "161318.572500", "161320.062500", "161321.552500", "161323.042500", "161324.532500", "161326.022500", "161327.512500", "161329.002500", "161330.492500", "161331.982500", "161333.472500", "161334.962500", "161336.452500", "161337.942500", "161339.432500", "161340.922500", "161342.412500", "161343.902500", "161345.392500", "161346.882500", "161348.372500", "161349.862500", "161351.352500", "161352.842500", "161354.332500", "161355.822500", "161357.312500", "161358.802500", "161400.292500", "161401.782500", "161403.272500", "161404.762500", "161406.252500", "161407.742500", "161409.232500", "161410.722500", "161412.212500", "161413.702500", "161415.192500", "161416.682500", "161418.172500", "161419.662500", "161421.152500", "161422.642500", "161424.132500", "161425.622500", "161427.112500", "161428.602500", "161430.092500", "161431.582500", "161433.072500", "161434.562500", "161436.052500", "161437.542500", "161439.032500", "161440.522500", "161442.012500", "161443.502500", "161444.992500", "161446.482500", "161447.972500", "161449.462500", "161450.952500", "161452.442500", "161453.932500", "161455.422500", "161456.912500", "161458.402500", "161459.892500", "161501.382500", "161502.872500", "161504.362500", "161505.852500", "161507.342500", "161508.832500", "161510.322500", "161511.812500", "161513.302500", "161514.792500", "161516.282500", "161517.772500", "161519.262500", "161520.752500", "161522.242500", "161523.732500", "161525.222500", "161526.712500", "161528.202500", "161529.692500", "161531.182500", "161532.672500", "161534.162500", "161535.652500", "161537.142500", "161538.632500", "161540.122500", "161541.612500", "161543.102500", "161544.592500", "161546.082500", "161547.572500", "161549.062500", "161550.552500", "161552.042500", "161553.532500", "161555.022500", "161556.512500", "161558.002500", "161559.492500", "161600.982500", "161602.472500", "161603.962500", "161605.452500", "161606.942500", "161608.432500", "161609.922500", "161611.412500", "161612.902500", "161614.392500", "161615.882500", "161617.372500", "161618.862500", "161620.352500", "161621.842500", "161623.332500", "161624.822500", "161626.312500", "161627.802500", "161629.292500", "161630.782500", "161632.272500", "161633.762500", "161635.252500", "161636.742500", "161638.232500", "161639.722500", "161641.212500", "161642.702500", "161644.192500", "161645.682500", "161647.172500", "161648.662500", "161650.152500", "161651.642500", "161653.132500", "161654.622500", "161656.112500", "161657.602500", "161659.092500", "161700.582500", "161702.072500", "161703.562500", "161705.052500", "161706.542500", "161708.032500", "161709.522500", "161711.012500", "161712.502500", "161713.992500", "161715.482500", "161716.972500", "161718.462500", "161719.952500", "161721.442500", "161722.932500"],
      "ContentTime": ["160821.040000", "160821.044000", "160821.047000", "160821.050000", "160821.054000", "160821.057000", "160821.060000", "160821.064000", "160821.067000", "160821.070000", "160821.078000", "160821.081000", "160821.084000", "160821.088000", "160821.091000", "160821.094000", "160821.097000", "160821.101000", "160821.104000", "160821.107000", "160821.110000", "160821.114000", "160821.117000", "160821.120000", "160821.124000", "160821.127000", "160821.130000", "160821.133000", "160821.137000", "160821.140000", "160821.143000", "160841.006000", "160841.010000", "160841.013000", "160841.016000", "160841.019000", "160841.023000", "160841.026000", "160841.029000", "160841.032000", "160841.035000", "160841.039000", "160841.042000", "160841.045000", "160841.048000", "160841.052000", "160841.055000", "160841.058000", "160841.061000", "160841.065000", "160841.068000", "160901.005000", "160901.009000", "160901.012000", "160901.015000", "160901.018000", "160901.022000", "160901.025000", "160901.028000", "160901.031000", "160901.035000", "160901.038000", "160901.041000", "160901.044000", "160901.048000", "160901.051000", "160901.054000", "160901.057000", "160901.061000", "160901.064000", "160901.067000", "160921.005000", "160921.009000", "160921.012000", "160921.015000", "160921.018000", "160921.022000", "160921.025000", "160921.028000", "160921.031000", "160921.035000", "160921.038000", "160921.041000", "160921.045000", "160921.048000", "160921.051000", "160921.055000", "160921.058000", "160921.061000", "160921.064000", "160921.068000", "161001.007000", "161001.011000", "161001.014000", "161001.017000", "161001.021000", "161001.024000", "161001.027000", "161001.030000", "161001.034000", "161001.037000", "161001.040000", "161001.044000", "161001.047000", "161001.050000", "161001.053000", "161001.057000", "161001.060000", "161001.063000", "161001.066000", "161001.070000", "161001.073000", "161001.076000", "161001.079000", "161001.083000", "161001.086000", "161001.089000", "161001.092000", "161001.096000", "161001.099000", "161001.102000", "161001.105000", "161001.109000", "161041.006000", "161041.010000", "161041.013000", "161041.016000", "161041.020000", "161041.023000", "161041.026000", "161041.030000", "161041.033000", "161041.036000", "161041.039000", "161041.043000", "161041.046000", "161041.049000", "161041.052000", "161041.056000", "161041.059000", "161041.062000", "161041.065000", "161041.069000", "161041.072000", "161041.075000", "161041.078000", "161041.082000", "161041.085000", "161041.088000", "161041.091000", "161121.005000", "161121.009000", "161121.012000", "161121.015000", "161121.019000", "161121.022000", "161121.025000", "161121.029000", "161121.033000", "161121.036000", "161121.039000", "161121.042000", "161121.046000", "161121.049000", "161121.052000", "161121.056000", "161121.059000", "161121.062000", "161121.065000", "161121.069000", "161121.072000", "161121.075000", "161121.078000", "161121.082000", "161121.085000", "161121.088000", "161121.091000", "161201.005000", "161201.009000", "161201.012000", "161201.015000", "161201.019000", "161201.022000", "161201.025000", "161201.028000", "161201.032000", "161201.035000", "161201.038000", "161201.041000", "161201.057000", "161201.061000", "161201.064000", "161201.067000", "161201.070000", "161201.074000", "161201.077000", "161201.080000", "161201.083000", "161201.087000", "161201.090000", "161201.093000", "161201.096000", "161201.100000", "161201.103000", "161241.006000", "161241.010000", "161241.013000", "161241.016000", "161241.020000", "161241.023000", "161241.026000", "161241.030000", "161241.033000", "161241.036000", "161241.039000", "161241.043000", "161241.046000", "161241.049000", "161241.053000", "161241.056000", "161241.059000", "161241.062000", "161241.066000", "161241.069000", "161241.072000", "161241.075000", "161241.079000", "161241.082000", "161241.085000", "161241.088000", "161241.092000", "161321.006000", "161321.010000", "161321.013000", "161321.017000", "161321.020000", "161321.023000", "161321.026000", "161321.030000", "161321.033000", "161321.036000", "161321.040000", "161321.043000", "161321.046000", "161321.050000", "161321.053000", "161321.056000", "161321.059000", "161321.063000", "161321.066000", "161321.069000", "161321.073000", "161321.076000", "161321.079000", "161321.083000", "161321.086000", "161321.089000", "161321.093000", "161401.005000", "161401.010000", "161401.014000", "161401.017000", "161401.021000", "161401.024000", "161401.028000", "161401.031000", "161401.034000", "161401.038000", "161401.041000", "161401.044000", "161401.048000", "161401.051000", "161401.054000", "161401.058000", "161401.061000", "161401.064000", "161401.068000", "161401.071000", "161401.074000", "161401.077000", "161401.080000", "161401.084000", "161401.087000", "161401.090000", "161441.006000", "161441.010000", "161441.013000", "161441.017000", "161441.020000", "161441.023000", "161441.027000", "161441.030000", "161441.033000", "161441.037000", "161441.040000", "161441.043000", "161441.046000", "161441.050000", "161441.053000", "161441.056000", "161441.060000", "161441.063000", "161441.066000", "161441.069000", "161441.073000", "161441.076000", "161441.079000", "161441.082000", "161441.086000", "161441.089000", "161441.092000", "161521.006000", "161521.010000", "161521.013000", "161521.017000", "161521.020000", "161521.023000", "161521.027000", "161521.030000", "161521.033000", "161521.037000", "161521.040000", "161521.043000", "161521.046000", "161521.050000", "161521.053000", "161521.056000", "161521.060000", "161521.063000", "161521.066000", "161521.069000", "161521.073000", "161521.076000", "161521.079000", "161521.082000", "161521.086000", "161521.089000", "161521.092000", "161601.005000", "161601.009000", "161601.012000", "161601.015000", "161601.019000", "161601.022000", "161601.025000", "161601.028000", "161601.032000", "161601.035000", "161601.038000", "161601.042000", "161601.045000", "161601.048000", "161601.052000", "161601.055000", "161601.058000", "161601.062000", "161601.065000", "161601.068000", "161601.071000", "161601.075000", "161601.078000", "161601.081000", "161601.084000", "161601.088000", "161601.091000", "161641.006000", "161641.010000", "161641.013000", "161641.017000", "161641.020000", "161641.029000", "161641.033000", "161641.036000", "161641.039000", "161641.043000", "161641.046000", "161641.051000", "161641.054000", "161641.057000", "161641.061000", "161641.064000", "161641.067000", "161641.071000", "161641.074000", "161641.077000", "161641.081000", "161641.084000", "161641.087000", "161641.090000", "161641.094000", "161641.097000", "161641.100000", "161721.006000", "161721.010000", "161721.013000", "161721.016000", "161721.020000", "161721.023000", "161721.026000", "161721.030000", "161721.033000", "161721.036000", "161721.040000", "161721.043000", "161721.046000", "161721.050000", "161721.053000", "161721.056000", "161721.060000", "161721.063000", "161721.066000", "161721.069000", "161721.073000", "161721.076000", "161721.079000", "161721.083000", "161721.086000", "161721.089000", "161721.092000", "161726.359000", "161726.363000", "161726.366000"],
      "InstanceCreationTime": ["160821.040000", "160821.044000", "160821.047000", "160821.050000", "160821.054000", "160821.057000", "160821.060000", "160821.064000", "160821.067000", "160821.070000", "160821.078000", "160821.081000", "160821.084000", "160821.088000", "160821.091000", "160821.094000", "160821.097000", "160821.101000", "160821.104000", "160821.107000", "160821.110000", "160821.114000", "160821.117000", "160821.120000", "160821.124000", "160821.127000", "160821.130000", "160821.133000", "160821.137000", "160821.140000", "160821.143000", "160841.006000", "160841.010000", "160841.013000", "160841.016000", "160841.019000", "160841.023000", "160841.026000", "160841.029000", "160841.032000", "160841.035000", "160841.039000", "160841.042000", "160841.045000", "160841.048000", "160841.052000", "160841.055000", "160841.058000", "160841.061000", "160841.065000", "160841.068000", "160901.005000", "160901.009000", "160901.012000", "160901.015000", "160901.018000", "160901.022000", "160901.025000", "160901.028000", "160901.031000", "160901.035000", "160901.038000", "160901.041000", "160901.044000", "160901.048000", "160901.051000", "160901.054000", "160901.057000", "160901.061000", "160901.064000", "160901.067000", "160921.005000", "160921.009000", "160921.012000", "160921.015000", "160921.018000", "160921.022000", "160921.025000", "160921.028000", "160921.031000", "160921.035000", "160921.038000", "160921.041000", "160921.045000", "160921.048000", "160921.051000", "160921.055000", "160921.058000", "160921.061000", "160921.064000", "160921.068000", "161001.007000", "161001.011000", "161001.014000", "161001.017000", "161001.021000", "161001.024000", "161001.027000", "161001.030000", "161001.034000", "161001.037000", "161001.040000", "161001.044000", "161001.047000", "161001.050000", "161001.053000", "161001.057000", "161001.060000", "161001.063000", "161001.066000", "161001.070000", "161001.073000", "161001.076000", "161001.079000", "161001.083000", "161001.086000", "161001.089000", "161001.092000", "161001.096000", "161001.099000", "161001.102000", "161001.105000", "161001.109000", "161041.006000", "161041.010000", "161041.013000", "161041.016000", "161041.020000", "161041.023000", "161041.026000", "161041.030000", "161041.033000", "161041.036000", "161041.039000", "161041.043000", "161041.046000", "161041.049000", "161041.052000", "161041.056000", "161041.059000", "161041.062000", "161041.065000", "161041.069000", "161041.072000", "161041.075000", "161041.078000", "161041.082000", "161041.085000", "161041.088000", "161041.091000", "161121.005000", "161121.009000", "161121.012000", "161121.015000", "161121.019000", "161121.022000", "161121.025000", "161121.029000", "161121.033000", "161121.036000", "161121.039000", "161121.042000", "161121.046000", "161121.049000", "161121.052000", "161121.056000", "161121.059000", "161121.062000", "161121.065000", "161121.069000", "161121.072000", "161121.075000", "161121.078000", "161121.082000", "161121.085000", "161121.088000", "161121.091000", "161201.005000", "161201.009000", "161201.012000", "161201.015000", "161201.019000", "161201.022000", "161201.025000", "161201.028000", "161201.032000", "161201.035000", "161201.038000", "161201.041000", "161201.057000", "161201.061000", "161201.064000", "161201.067000", "161201.070000", "161201.074000", "161201.077000", "161201.080000", "161201.083000", "161201.087000", "161201.090000", "161201.093000", "161201.096000", "161201.100000", "161201.103000", "161241.006000", "161241.010000", "161241.013000", "161241.016000", "161241.020000", "161241.023000", "161241.026000", "161241.030000", "161241.033000", "161241.036000", "161241.039000", "161241.043000", "161241.046000", "161241.049000", "161241.053000", "161241.056000", "161241.059000", "161241.062000", "161241.066000", "161241.069000", "161241.072000", "161241.075000", "161241.079000", "161241.082000", "161241.085000", "161241.088000", "161241.092000", "161321.006000", "161321.010000", "161321.013000", "161321.017000", "161321.020000", "161321.023000", "161321.026000", "161321.030000", "161321.033000", "161321.036000", "161321.040000", "161321.043000", "161321.046000", "161321.050000", "161321.053000", "161321.056000", "161321.059000", "161321.063000", "161321.066000", "161321.069000", "161321.073000", "161321.076000", "161321.079000", "161321.083000", "161321.086000", "161321.089000", "161321.093000", "161401.005000", "161401.010000", "161401.014000", "161401.017000", "161401.021000", "161401.024000", "161401.028000", "161401.031000", "161401.034000", "161401.038000", "161401.041000", "161401.044000", "161401.048000", "161401.051000", "161401.054000", "161401.058000", "161401.061000", "161401.064000", "161401.068000", "161401.071000", "161401.074000", "161401.077000", "161401.080000", "161401.084000", "161401.087000", "161401.090000", "161441.006000", "161441.010000", "161441.013000", "161441.017000", "161441.020000", "161441.023000", "161441.027000", "161441.030000", "161441.033000", "161441.037000", "161441.040000", "161441.043000", "161441.046000", "161441.050000", "161441.053000", "161441.056000", "161441.060000", "161441.063000", "161441.066000", "161441.069000", "161441.073000", "161441.076000", "161441.079000", "161441.082000", "161441.086000", "161441.089000", "161441.092000", "161521.006000", "161521.010000", "161521.013000", "161521.017000", "161521.020000", "161521.023000", "161521.027000", "161521.030000", "161521.033000", "161521.037000", "161521.040000", "161521.043000", "161521.046000", "161521.050000", "161521.053000", "161521.056000", "161521.060000", "161521.063000", "161521.066000", "161521.069000", "161521.073000", "161521.076000", "161521.079000", "161521.082000", "161521.086000", "161521.089000", "161521.092000", "161601.005000", "161601.009000", "161601.012000", "161601.015000", "161601.019000", "161601.022000", "161601.025000", "161601.028000", "161601.032000", "161601.035000", "161601.038000", "161601.042000", "161601.045000", "161601.048000", "161601.052000", "161601.055000", "161601.058000", "161601.062000", "161601.065000", "161601.068000", "161601.071000", "161601.075000", "161601.078000", "161601.081000", "161601.084000", "161601.088000", "161601.091000", "161641.006000", "161641.010000", "161641.013000", "161641.017000", "161641.020000", "161641.029000", "161641.033000", "161641.036000", "161641.039000", "161641.043000", "161641.046000", "161641.051000", "161641.054000", "161641.057000", "161641.061000", "161641.064000", "161641.067000", "161641.071000", "161641.074000", "161641.077000", "161641.081000", "161641.084000", "161641.087000", "161641.090000", "161641.094000", "161641.097000", "161641.100000", "161721.006000", "161721.010000", "161721.013000", "161721.016000", "161721.020000", "161721.023000", "161721.026000", "161721.030000", "161721.033000", "161721.036000", "161721.040000", "161721.043000", "161721.046000", "161721.050000", "161721.053000", "161721.056000", "161721.060000", "161721.063000", "161721.066000", "161721.069000", "161721.073000", "161721.076000", "161721.079000", "161721.083000", "161721.086000", "161721.089000", "161721.092000", "161726.359000", "161726.363000", "161726.366000"],
