{
  "AcquisitionMatrixPE": 104,
  "AcquisitionNumber": 1,
  "AcquisitionTime": "16:48:30.830000",
  "BandwidthPerPixelPhaseEncode": 17.17,
  "BaseResolution": 104,
  "BodyPartExamined": "BRAIN",
  "CoilCombinationMethod": "Sum of Squares",
  "ConsistencyInfo": "N4_VE11C_LATEST_20160120",
  "ConversionSoftware": "dcm2niix",
  "ConversionSoftwareVersion": "v1.0.20211006",
  "DerivedVendorReportedEchoSpacing": 0.000560011,
  "DeviceSerialNumber": "167006",
  "DwellTime": 2.1e-06,
  "EchoTime": 0.037,
  "EchoTrainLength": 104,
  "EffectiveEchoSpacing": 0.000560011,
  "FlipAngle": 52,
  "HeudiconvVersion": "0.5.3.post569+g418601f",
  "ImageComments": "Unaliased MB4/PE3/LB",
  "ImageOrientationPatientDICOM": [0.998943, -0.0459452, 0.00128291, 0.0437895, 0.94285, -0.330327],
  "ImageOrientationText": "Tra>Cor(-19.3)>Sag(-0.8)",
  "ImageType": [
    "ORIGINAL",
    "PRIMARY",
    "M",
    "MB",
    "ND",
    "MOSAIC"
],
  "ImagingFrequency": 123.259,
  "InPlanePhaseEncodingDirectionDICOM": "COL",
  "InstitutionAddress": "Chemin Queen-Mary 4565,Montreal,District,CA,H3W 1W5",
  "InstitutionName": "IUGM",
  "InstitutionalDepartmentName": "Department",
  "MRAcquisitionType": "2D",
  "MagneticFieldStrength": 3,
  "Manufacturer": "Siemens",
  "ManufacturersModelName": "Prisma_fit",
  "MatrixCoilMode": "SENSE",
  "Modality": "MR",
  "MultibandAccelerationFactor": 4,
  "PartialFourier": 1,
  "PatientPosition": "HFS",
  "PercentPhaseFOV": 100,
  "PercentSampling": 100,
  "PhaseEncodingDirection": "j",
  "PhaseEncodingSteps": 104,
  "PhaseResolution": 1,
  "PixelBandwidth": 2290,
  "ProcedureStepDescription": "games^mario",
  "ProtocolName": "func_task-mario_run-04",
  "PulseSequenceDetails": "%CustomerSeq%\\cmrr_mbep2d_bold",
  "ReceiveCoilActiveElements": "HC1-7;NC1,2",
  "ReceiveCoilName": "HeadNeck_64",
  "ReconMatrixPE": 104,
  "RepetitionTime": 1.49,
  "SAR": 0.0570709,
  "ScanOptions": "FS",
  "ScanningSequence": "EP",
  "SequenceName": "epfid2d1_104",
  "SequenceVariant": "SK\\SS",
  "SeriesDescription": "func_task-mario_run-04",
  "SeriesNumber": 19,
  "ShimSetting": [629, -7245, -8821, 589, 12, -216, -61, -18],
  "SliceThickness": 2,
  "SliceTiming": [0, 0.7825, 0.0975, 0.8825, 0.195, 0.98, 0.2925, 1.0775, 0.3925, 1.175, 0.49, 1.2725, 0.5875, 1.3725, 0.685, 0, 0.7825, 0.0975, 0.8825, 0.195, 0.98, 0.2925, 1.0775, 0.3925, 1.175, 0.49, 1.2725, 0.5875, 1.3725, 0.685, 0, 0.7825, 0.0975, 0.8825, 0.195, 0.98, 0.2925, 1.0775, 0.3925, 1.175, 0.49, 1.2725, 0.5875, 1.3725, 0.685, 0, 0.7825, 0.0975, 0.8825, 0.195, 0.98, 0.2925, 1.0775, 0.3925, 1.175, 0.49, 1.2725, 0.5875, 1.3725, 0.685],
  "SoftwareVersions": "syngo MR E11",
  "SpacingBetweenSlices": 2,
  "StationName": "MRC35049",
  "TaskName": "mario",
  "TotalReadoutTime": 0.0576811,
  "TxRefAmp": 267.542,
  "WipMemBlock": "0df3afc5-67df-4284-8950-82dae1558a93||Sequence: R016 ve11c/master r/e634e98; Dec 19 2017 11:00:25 by eja",
  "dcmmeta_affine": [
    [-1.997886300086975, 0.08757903426885605, -0.02793472446501255, 103.11254119873047],
    [0.09189043939113617, 1.8857003450393677, -0.6600683927536011, -69.42819213867188],
    [0.0025658176746219397, 0.6606543064117432, 1.8877311944961548, -64.19528198242188],
    [0.0, 0.0, 0.0, 1.0]
],
  "dcmmeta_reorient_transform": [
    [0.0, -1.0, 0.0, 103.0],
    [1.0, 0.0, 0.0, 0.0],
    [0.0, 0.0, 1.0, 0.0],
    [0.0, 0.0, 0.0, 1.0]
],
  "dcmmeta_shape": [104, 104, 60, 477],
  "dcmmeta_slice_dim": 2,
  "dcmmeta_version": 0.6,
  "global": {
    "const": {
      "AcquisitionMatrix": [104, 0, 0, 104],
      "AngioFlag": "N",
      "BitsAllocated": 16,
      "BitsStored": 16,
      "BodyPartExamined": "BRAIN",
      "Columns": 832,
      "EchoNumbers": 1,
      "EchoTime": 37.0,
      "EchoTrainLength": 104,
      "FlipAngle": 52.0,
      "HighBit": 15,
      "ImageOrientationPatient": [0.99894313696213, -0.0459452202223, 0.00128290879437, 0.04378951816195, 0.9428501775253, -0.330327142148],
      "ImagePositionPatient": [-871.24255798726, -777.74575463047, 243.39631193109],
      "ImageType": [
        "ORIGINAL",
        "PRIMARY",
        "M",
        "MB",
        "ND",
        "MOSAIC"
],
      "ImagedNucleus": "1H",
      "ImagingFrequency": 123.258828,
      "InPlanePhaseEncodingDirection": "COL",
      "MRAcquisitionType": "2D",
      "MagneticFieldStrength": 3.0,
      "Manufacturer": "SIEMENS",
      "ManufacturerModelName": "Prisma_fit",
      "Modality": "MR",
      "NumberOfAverages": 1.0,
      "NumberOfPhaseEncodingSteps": 104,
      "PercentPhaseFieldOfView": 100.0,
      "PercentSampling": 100.0,
      "PerformedProcedureStepStartTime": "154539.011000",
      "PhotometricInterpretation": "MONOCHROME2",
      "PixelBandwidth": 2290.0,
      "PixelRepresentation": 0,
      "PixelSpacing": [2.0, 2.0],
      "ProtocolName": "func_task-mario_run-04",
      "RepetitionTime": 1490.0,
      "Rows": 832,
      "SAR": 0.05707090361733,
      "SamplesPerPixel": 1,
      "ScanOptions": "FS",
      "ScanningSequence": "EP",
      "SequenceName": "epfid2d1_104",
      "SequenceVariant": [
        "SK",
        "SS"
],
      "SeriesDescription": "func_task-mario_run-04",
      "SeriesNumber": 19,
      "SeriesTime": "165001.039000",
      "SliceLocation": -39.118251956526,
      "SliceThickness": 2.0,
      "SmallestImagePixelValue": 0,
      "SoftwareVersions": "syngo MR E11",
      "SpacingBetweenSlices": 1.9999999713064,
      "SpecificCharacterSet": "ISO_IR 100",
      "StudyID": "1",
      "StudyTime": "154538.934000",
      "TransmitCoilName": "Body",
      "VariableFlipAngleFlag": "N",
      "WindowCenterWidthExplanation": "Algo1",
      "dBdt": 0.0},
    "slices": {}
  },
  "time": {
    "samples": {
      "AcquisitionNumber": [1, 2, 3, 4, 5, 6, 7, 8, 9, 10, 11, 12, 13, 14, 15, 16, 17, 18, 19, 20, 21, 22, 23, 24, 25, 26, 27, 28, 29, 30, 31, 32, 33, 34, 35, 36, 37, 38, 39, 40, 41, 42, 43, 44, 45, 46, 47, 48, 49, 50, 51, 52, 53, 54, 55, 56, 57, 58, 59, 60, 61, 62, 63, 64, 65, 66, 67, 68, 69, 70, 71, 72, 73, 74, 75, 76, 77, 78, 79, 80, 81, 82, 83, 84, 85, 86, 87, 88, 89, 90, 91, 92, 93, 94, 95, 96, 97, 98, 99, 100, 101, 102, 103, 104, 105, 106, 107, 108, 109, 110, 111, 112, 113, 114, 115, 116, 117, 118, 119, 120, 121, 122, 123, 124, 125, 126, 127, 128, 129, 130, 131, 132, 133, 134, 135, 136, 137, 138, 139, 140, 141, 142, 143, 144, 145, 146, 147, 148, 149, 150, 151, 152, 153, 154, 155, 156, 157, 158, 159, 160, 161, 162, 163, 164, 165, 166, 167, 168, 169, 170, 171, 172, 173, 174, 175, 176, 177, 178, 179, 180, 181, 182, 183, 184, 185, 186, 187, 188, 189, 190, 191, 192, 193, 194, 195, 196, 197, 198, 199, 200, 201, 202, 203, 204, 205, 206, 207, 208, 209, 210, 211, 212, 213, 214, 215, 216, 217, 218, 219, 220, 221, 222, 223, 224, 225, 226, 227, 228, 229, 230, 231, 232, 233, 234, 235, 236, 237, 238, 239, 240, 241, 242, 243, 244, 245, 246, 247, 248, 249, 250, 251, 252, 253, 254, 255, 256, 257, 258, 259, 260, 261, 262, 263, 264, 265, 266, 267, 268, 269, 270, 271, 272, 273, 274, 275, 276, 277, 278, 279, 280, 281, 282, 283, 284, 285, 286, 287, 288, 289, 290, 291, 292, 293, 294, 295, 296, 297, 298, 299, 300, 301, 302, 303, 304, 305, 306, 307, 308, 309, 310, 311, 312, 313, 314, 315, 316, 317, 318, 319, 320, 321, 322, 323, 324, 325, 326, 327, 328, 329, 330, 331, 332, 333, 334, 335, 336, 337, 338, 339, 340, 341, 342, 343, 344, 345, 346, 347, 348, 349, 350, 351, 352, 353, 354, 355, 356, 357, 358, 359, 360, 361, 362, 363, 364, 365, 366, 367, 368, 369, 370, 371, 372, 373, 374, 375, 376, 377, 378, 379, 380, 381, 382, 383, 384, 385, 386, 387, 388, 389, 390, 391, 392, 393, 394, 395, 396, 397, 398, 399, 400, 401, 402, 403, 404, 405, 406, 407, 408, 409, 410, 411, 412, 413, 414, 415, 416, 417, 418, 419, 420, 421, 422, 423, 424, 425, 426, 427, 428, 429, 430, 431, 432, 433, 434, 435, 436, 437, 438, 439, 440, 441, 442, 443, 444, 445, 446, 447, 448, 449, 450, 451, 452, 453, 454, 455, 456, 457, 458, 459, 460, 461, 462, 463, 464, 465, 466, 467, 468, 469, 470, 471, 472, 473, 474, 475, 476, 477],
      "AcquisitionTime": ["164830.830000", "164832.320000", "164833.810000", "164835.300000", "164836.790000", "164838.280000", "164839.770000", "164841.260000", "164842.750000", "164844.240000", "164845.730000", "164847.220000", "164848.710000", "164850.200000", "164851.690000", "164853.180000", "164854.670000", "164856.160000", "164857.650000", "164859.140000", "164900.630000", "164902.120000", "164903.610000", "164905.100000", "164906.590000", "164908.080000", "164909.570000", "164911.060000", "164912.550000", "164914.040000", "164915.530000", "164917.020000", "164918.510000", "164920.000000", "164921.490000", "164922.980000", "164924.470000", "164925.960000", "164927.450000", "164928.940000", "164930.430000", "164931.920000", "164933.410000", "164934.900000", "164936.390000", "164937.880000", "164939.370000", "164940.860000", "164942.350000", "164943.840000", "164945.330000", "164946.820000", "164948.310000", "164949.800000", "164951.290000", "164952.780000", "164954.270000", "164955.760000", "164957.250000", "164958.740000", "165000.230000", "165001.720000", "165003.210000", "165004.700000", "165006.190000", "165007.680000", "165009.170000", "165010.660000", "165012.150000", "165013.640000", "165015.130000", "165016.620000", "165018.110000", "165019.600000", "165021.090000", "165022.580000", "165024.070000", "165025.560000", "165027.050000", "165028.540000", "165030.030000", "165031.520000", "165033.010000", "165034.500000", "165035.990000", "165037.480000", "165038.970000", "165040.460000", "165041.950000", "165043.440000", "165044.930000", "165046.420000", "165047.910000", "165049.400000", "165050.890000", "165052.380000", "165053.870000", "165055.360000", "165056.850000", "165058.340000", "165059.830000", "165101.320000", "165102.810000", "165104.300000", "165105.790000", "165107.280000", "165108.770000", "165110.260000", "165111.750000", "165113.240000", "165114.730000", "165116.220000", "165117.710000", "165119.200000", "165120.690000", "165122.180000", "165123.670000", "165125.160000", "165126.650000", "165128.140000", "165129.630000", "165131.120000", "165132.610000", "165134.100000", "165135.590000", "165137.080000", "165138.570000", "165140.060000", "165141.550000", "165143.040000", "165144.530000", "165146.020000", "165147.510000", "165149.000000", "165150.490000", "165151.980000", "165153.470000", "165154.960000", "165156.450000", "165157.940000", "165159.430000", "165200.920000", "165202.410000", "165203.900000", "165205.390000", "165206.880000", "165208.370000", "165209.860000", "165211.350000", "165212.840000", "165214.330000", "165215.820000", "165217.310000", "165218.800000", "165220.290000", "165221.780000", "165223.270000", "165224.760000", "165226.250000", "165227.740000", "165229.230000", "165230.720000", "165232.210000", "165233.700000", "165235.190000", "165236.680000", "165238.170000", "165239.660000", "165241.150000", "165242.640000", "165244.130000", "165245.620000", "165247.110000", "165248.600000", "165250.090000", "165251.580000", "165253.070000", "165254.560000", "165256.050000", "165257.540000", "165259.030000", "165300.520000", "165302.010000", "165303.500000", "165304.990000", "165306.480000", "165307.970000", "165309.460000", "165310.950000", "165312.440000", "165313.930000", "165315.420000", "165316.910000", "165318.400000", "165319.890000", "165321.380000", "165322.870000", "165324.360000", "165325.850000", "165327.340000", "165328.830000", "165330.320000", "165331.810000", "165333.300000", "165334.790000", "165336.280000", "165337.770000", "165339.260000", "165340.750000", "165342.240000", "165343.730000", "165345.220000", "165346.710000", "165348.200000", "165349.690000", "165351.180000", "165352.670000", "165354.160000", "165355.650000", "165357.140000", "165358.630000", "165400.120000", "165401.610000", "165403.100000", "165404.590000", "165406.080000", "165407.570000", "165409.060000", "165410.550000", "165412.040000", "165413.530000", "165415.020000", "165416.510000", "165418.000000", "165419.490000", "165420.980000", "165422.470000", "165423.960000", "165425.450000", "165426.940000", "165428.430000", "165429.920000", "165431.410000", "165432.900000", "165434.390000", "165435.880000", "165437.370000", "165438.860000", "165440.350000", "165441.840000", "165443.330000", "165444.820000", "165446.310000", "165447.800000", "165449.290000", "165450.780000", "165452.270000", "165453.760000", "165455.250000", "165456.740000", "165458.230000", "165459.720000", "165501.210000", "165502.700000", "165504.190000", "165505.680000", "165507.170000", "165508.660000", "165510.150000", "165511.640000", "165513.130000", "165514.620000", "165516.110000", "165517.600000", "165519.090000", "165520.580000", "165522.070000", "165523.560000", "165525.050000", "165526.540000", "165528.030000", "165529.520000", "165531.010000", "165532.500000", "165533.990000", "165535.480000", "165536.970000", "165538.460000", "165539.950000", "165541.440000", "165542.930000", "165544.420000", "165545.910000", "165547.400000", "165548.890000", "165550.380000", "165551.870000", "165553.360000", "165554.850000", "165556.340000", "165557.830000", "165559.320000", "165600.810000", "165602.300000", "165603.790000", "165605.280000", "165606.770000", "165608.260000", "165609.750000", "165611.240000", "165612.730000", "165614.220000", "165615.710000", "165617.200000", "165618.690000", "165620.180000", "165621.670000", "165623.160000", "165624.650000", "165626.140000", "165627.630000", "165629.120000", "165630.610000", "165632.100000", "165633.590000", "165635.080000", "165636.570000", "165638.060000", "165639.550000", "165641.040000", "165642.530000", "165644.020000", "165645.510000", "165647.000000", "165648.490000", "165649.980000", "165651.470000", "165652.960000", "165654.450000", "165655.940000", "165657.430000", "165658.920000", "165700.410000", "165701.900000", "165703.390000", "165704.880000", "165706.370000", "165707.860000", "165709.350000", "165710.840000", "165712.330000", "165713.820000", "165715.310000", "165716.800000", "165718.290000", "165719.780000", "165721.270000", "165722.760000", "165724.250000", "165725.740000", "165727.230000", "165728.720000", "165730.210000", "165731.700000", "165733.190000", "165734.680000", "165736.170000", "165737.660000", "165739.150000", "165740.640000", "165742.130000", "165743.620000", "165745.110000", "165746.600000", "165748.090000", "165749.580000", "165751.070000", "165752.560000", "165754.050000", "165755.540000", "165757.030000", "165758.520000", "165800.010000", "165801.500000", "165802.990000", "165804.480000", "165805.970000", "165807.460000", "165808.950000", "165810.440000", "165811.930000", "165813.420000", "165814.910000", "165816.400000", "165817.890000", "165819.380000", "165820.870000", "165822.360000", "165823.850000", "165825.340000", "165826.830000", "165828.320000", "165829.810000", "165831.300000", "165832.790000", "165834.280000", "165835.770000", "165837.260000", "165838.750000", "165840.240000", "165841.730000", "165843.220000", "165844.710000", "165846.200000", "165847.690000", "165849.180000", "165850.670000", "165852.160000", "165853.650000", "165855.140000", "165856.630000", "165858.120000", "165859.610000", "165901.100000", "165902.590000", "165904.080000", "165905.570000", "165907.060000", "165908.550000", "165910.040000", "165911.530000", "165913.020000", "165914.510000", "165916.000000", "165917.490000", "165918.980000", "165920.470000", "165921.960000", "165923.450000", "165924.940000", "165926.430000", "165927.920000", "165929.410000", "165930.900000", "165932.390000", "165933.880000", "165935.370000", "165936.860000", "165938.350000", "165939.840000", "165941.330000", "165942.820000", "165944.310000", "165945.800000", "165947.290000", "165948.780000", "165950.270000", "165951.760000", "165953.250000", "165954.740000", "165956.230000", "165957.720000", "165959.210000", "170000.700000", "170002.190000", "170003.680000", "170005.170000", "170006.660000", "170008.150000", "170009.640000", "170011.130000", "170012.620000", "170014.110000", "170015.600000", "170017.090000", "170018.580000", "170020.070000"],
      "ContentTime": ["165001.043000", "165001.047000", "165001.050000", "165001.054000", "165001.057000", "165001.060000", "165001.064000", "165001.067000", "165001.071000", "165001.074000", "165001.077000", "165001.080000", "165001.084000", "165001.087000", "165001.090000", "165001.093000", "165001.097000", "165001.100000", "165001.103000", "165001.107000", "165001.110000", "165001.113000", "165001.116000", "165001.120000", "165001.123000", "165001.126000", "165001.129000", "165001.132000", "165001.137000", "165001.140000", "165001.143000", "165001.147000", "165001.150000", "165001.153000", "165021.006000", "165021.010000", "165021.013000", "165021.016000", "165021.027000", "165021.030000", "165021.033000", "165021.036000", "165021.040000", "165021.043000", "165021.046000", "165021.050000", "165021.053000", "165021.056000", "165021.059000", "165021.063000", "165021.066000", "165021.069000", "165021.073000", "165021.076000", "165041.005000", "165041.009000", "165041.013000", "165041.016000", "165041.020000", "165041.023000", "165041.026000", "165041.029000", "165041.033000", "165041.036000", "165041.040000", "165041.043000", "165041.046000", "165041.050000", "165041.053000", "165041.056000", "165041.059000", "165041.063000", "165041.076000", "165041.079000", "165041.083000", "165101.005000", "165101.009000", "165101.012000", "165101.015000", "165101.018000", "165101.022000", "165101.025000", "165101.028000", "165101.031000", "165101.035000", "165101.038000", "165101.041000", "165101.044000", "165101.048000", "165101.051000", "165101.054000", "165101.058000", "165101.061000", "165101.064000", "165101.067000", "165121.005000", "165121.009000", "165121.012000", "165121.015000", "165121.019000", "165121.022000", "165121.025000", "165121.028000", "165121.032000", "165121.035000", "165121.038000", "165121.042000", "165121.045000", "165121.048000", "165121.051000", "165121.055000", "165121.058000", "165121.061000", "165201.006000", "165201.010000", "165201.013000", "165201.016000", "165201.020000", "165201.023000", "165201.026000", "165201.029000", "165201.033000", "165201.036000", "165201.039000", "165201.043000", "165201.046000", "165201.049000", "165201.053000", "165201.056000", "165201.059000", "165201.062000", "165201.066000", "165201.069000", "165201.072000", "165201.075000", "165201.078000", "165201.082000", "165201.085000", "165201.088000", "165201.092000", "165241.006000", "165241.010000", "165241.013000", "165241.016000", "165241.020000", "165241.023000", "165241.026000", "165241.029000", "165241.033000", "165241.036000", "165241.039000", "165241.043000", "165241.046000", "165241.049000", "165241.052000", "165241.056000", "165241.059000", "165241.062000", "165241.065000", "165241.069000", "165241.072000", "165241.076000", "165241.079000", "165241.083000", "165241.096000", "165241.099000", "165241.103000", "165321.005000", "165321.009000", "165321.018000", "165321.021000", "165321.025000", "165321.028000", "165321.031000", "165321.035000", "165321.038000", "165321.041000", "165321.045000", "165321.048000", "165321.051000", "165321.054000", "165321.058000", "165321.061000", "165321.065000", "165321.068000", "165321.071000", "165321.075000", "165321.078000", "165321.081000", "165321.085000", "165321.089000", "165321.092000", "165321.095000", "165321.099000", "165401.006000", "165401.010000", "165401.013000", "165401.017000", "165401.020000", "165401.024000", "165401.027000", "165401.031000", "165401.040000", "165401.043000", "165401.046000", "165401.049000", "165401.053000", "165401.056000", "165401.059000", "165401.063000", "165401.066000", "165401.069000", "165401.072000", "165401.076000", "165401.079000", "165401.082000", "165401.086000", "165401.089000", "165401.092000", "165401.095000", "165441.006000", "165441.010000", "165441.013000", "165441.017000", "165441.020000", "165441.023000", "165441.027000", "165441.030000", "165441.033000", "165441.037000", "165441.040000", "165441.043000", "165441.046000", "165441.050000", "165441.053000", "165441.056000", "165441.060000", "165441.063000", "165441.066000", "165441.069000", "165441.072000", "165441.076000", "165441.079000", "165441.082000", "165441.085000", "165441.089000", "165441.092000", "165521.005000", "165521.009000", "165521.012000", "165521.015000", "165521.019000", "165521.022000", "165521.025000", "165521.028000", "165521.032000", "165521.035000", "165521.038000", "165521.042000", "165521.045000", "165521.049000", "165521.052000", "165521.055000", "165521.059000", "165521.062000", "165521.065000", "165521.068000", "165521.072000", "165521.075000", "165521.078000", "165521.081000", "165521.085000", "165521.088000", "165521.091000", "165601.005000", "165601.009000", "165601.012000", "165601.015000", "165601.019000", "165601.022000", "165601.025000", "165601.029000", "165601.032000", "165601.035000", "165601.038000", "165601.042000", "165601.045000", "165601.048000", "165601.052000", "165601.055000", "165601.058000", "165601.062000", "165601.065000", "165601.068000", "165601.072000", "165601.075000", "165601.078000", "165601.081000", "165601.085000", "165601.088000", "165601.091000", "165641.006000", "165641.010000", "165641.013000", "165641.016000", "165641.020000", "165641.023000", "165641.027000", "165641.030000", "165641.033000", "165641.036000", "165641.040000", "165641.043000", "165641.047000", "165641.050000", "165641.053000", "165641.056000", "165641.060000", "165641.063000", "165641.066000", "165641.070000", "165641.073000", "165641.076000", "165641.079000", "165641.083000", "165641.086000", "165641.089000", "165641.092000", "165721.006000", "165721.010000", "165721.013000", "165721.039000", "165721.043000", "165721.046000", "165721.049000", "165721.052000", "165721.056000", "165721.059000", "165721.062000", "165721.066000", "165721.069000", "165721.072000", "165721.076000", "165721.079000", "165721.082000", "165721.085000", "165721.089000", "165721.092000", "165721.095000", "165721.098000", "165721.102000", "165721.105000", "165721.108000", "165721.112000", "165721.115000", "165801.005000", "165801.009000", "165801.012000", "165801.016000", "165801.019000", "165801.024000", "165801.028000", "165801.031000", "165801.035000", "165801.038000", "165801.042000", "165801.046000", "165801.049000", "165801.053000", "165801.057000", "165801.060000", "165801.064000", "165801.067000", "165801.070000", "165801.074000", "165801.077000", "165801.080000", "165801.084000", "165801.087000", "165801.090000", "165801.093000", "165841.006000", "165841.010000", "165841.013000", "165841.016000", "165841.020000", "165841.023000", "165841.026000", "165841.029000", "165841.033000", "165841.036000", "165841.039000", "165841.042000", "165841.046000", "165841.049000", "165841.052000", "165841.055000", "165841.059000", "165841.062000", "165841.065000", "165841.069000", "165841.072000", "165841.075000", "165841.078000", "165841.082000", "165841.085000", "165841.088000", "165841.091000", "165921.006000", "165921.010000", "165921.013000", "165921.017000", "165921.020000", "165921.023000", "165921.026000", "165921.030000", "165921.033000", "165921.036000", "165921.039000", "165921.043000", "165921.046000", "165921.049000", "165921.052000", "165921.056000", "165921.070000", "165921.074000", "165921.077000", "165921.080000", "165921.083000", "165921.086000", "165921.090000", "165921.093000", "165921.096000", "165921.100000", "165921.103000", "170001.005000", "170001.009000", "170001.012000", "170001.016000", "170001.019000", "170001.022000", "170001.025000", "170001.029000", "170001.032000", "170001.035000", "170001.039000", "170001.042000", "170001.045000", "170001.048000", "170001.052000", "170001.055000", "170001.058000", "170001.061000", "170001.065000", "170001.068000", "170001.071000", "170001.074000", "170001.078000", "170001.081000", "170001.084000", "170001.088000", "170001.091000", "170022.908000", "170022.911000", "170022.914000", "170022.918000", "170022.921000", "170022.924000", "170022.928000", "170022.931000", "170022.934000", "170022.937000", "170022.941000", "170022.944000", "170022.947000", "170022.950000", "170022.954000"],
