{
  "AcquisitionMatrixPE": 104,
  "AcquisitionNumber": 1,
  "AcquisitionTime": "11:47:34.795000",
  "BandwidthPerPixelPhaseEncode": 17.17,
  "BaseResolution": 104,
  "BodyPartExamined": "BRAIN",
  "CoilString": "HC1-7;NC1_2",
  "ConsistencyInfo": "N4_VE11C_LATEST_20160120",
  "ConversionSoftware": "dcm2niix",
  "ConversionSoftwareVersion": "v1.0.20190902",
  "DerivedVendorReportedEchoSpacing": 0.000560011,
  "DeviceSerialNumber": "167006",
  "DwellTime": 2.1e-06,
  "EchoTime": 0.037,
  "EchoTrainLength": 104,
  "EffectiveEchoSpacing": 0.000560011,
  "FlipAngle": 52,
  "HeudiconvVersion": "0.10.0",
  "ImageComments": "Unaliased_MB4_PE3_LB",
  "ImageOrientationPatientDICOM": [0.995977, 0.0611862, 0.065469, -0.0353024, 0.939429, -0.340921],
  "ImageType": [
    "ORIGINAL",
    "PRIMARY",
    "P",
    "MB",
    "ND",
    "MOSAIC"
],
  "ImagingFrequency": 123.259,
  "InPlanePhaseEncodingDirectionDICOM": "COL",
  "InstitutionAddress": "Chemin_Queen-Mary_4565_Montreal_District_CA_H3W_1W5",
  "InstitutionName": "IUGM",
  "InstitutionalDepartmentName": "Department",
  "MRAcquisitionType": "2D",
  "MagneticFieldStrength": 3,
  "Manufacturer": "Siemens",
  "ManufacturersModelName": "Prisma_fit",
  "Modality": "MR",
  "MultibandAccelerationFactor": 4,
  "PartialFourier": 1,
  "PatientPosition": "HFS",
  "PercentPhaseFOV": 100,
  "PhaseEncodingDirection": "j",
  "PhaseEncodingSteps": 104,
  "PhaseResolution": 1,
  "PixelBandwidth": 2290,
  "ProcedureStepDescription": "games_mario",
  "ProtocolName": "func_task-mario_run-04",
  "PulseSequenceDetails": "%CustomerSeq%_cmrr_mbep2d_bold",
  "ReceiveCoilActiveElements": "HC1-7;NC1,2",
  "ReceiveCoilName": "HeadNeck_64",
  "ReconMatrixPE": 104,
  "RepetitionTime": 1.49,
  "SAR": 0.0583359,
  "ScanOptions": "FS",
  "ScanningSequence": "EP",
  "SequenceName": "epfid2d1_104",
  "SequenceVariant": "SK_SS",
  "SeriesDescription": "func_task-mario_run-04",
  "SeriesNumber": 23,
  "ShimSetting": [634, -7191, -8846, 617, 59, 0, -28, -9],
  "SliceThickness": 2,
  "SliceTiming": [0, 0.785, 0.0975, 0.8825, 0.195, 0.98, 0.295, 1.0775, 0.3925, 1.175, 0.49, 1.275, 0.5875, 1.3725, 0.685, 0, 0.785, 0.0975, 0.8825, 0.195, 0.98, 0.295, 1.0775, 0.3925, 1.175, 0.49, 1.275, 0.5875, 1.3725, 0.685, 0, 0.785, 0.0975, 0.8825, 0.195, 0.98, 0.295, 1.0775, 0.3925, 1.175, 0.49, 1.275, 0.5875, 1.3725, 0.685, 0, 0.785, 0.0975, 0.8825, 0.195, 0.98, 0.295, 1.0775, 0.3925, 1.175, 0.49, 1.275, 0.5875, 1.3725, 0.685],
  "SoftwareVersions": "syngo_MR_E11",
  "SpacingBetweenSlices": 2,
  "StationName": "MRC35049",
  "TaskName": "mario",
  "TotalReadoutTime": 0.0576811,
  "TxRefAmp": 291.539,
  "WipMemBlock": "89979960-fae9-4c2e-a150-77c8ac7dfc6f||Sequence: R016 ve11c/master r/e634e98; Dec 19 2017 11:00:25 by eja",
  "dcmmeta_affine": [
    [-1.9919538497924805, -0.07060481607913971, 0.16472633183002472, 106.74921417236328],
    [-0.12237249314785004, 1.878857970237732, -0.674475908279419, -53.66007614135742],
    [0.1309380680322647, 0.6818414330482483, 1.8756192922592163, -72.95337677001953],
    [0.0, 0.0, 0.0, 1.0]
],
  "dcmmeta_reorient_transform": [
    [0.0, -1.0, 0.0, 103.0],
    [1.0, 0.0, 0.0, 0.0],
    [0.0, 0.0, 1.0, 0.0],
    [0.0, 0.0, 0.0, 1.0]
],
  "dcmmeta_shape": [104, 104, 60, 443],
  "dcmmeta_slice_dim": 2,
  "dcmmeta_version": 0.6,
  "global": {
    "const": {
      "AcquisitionMatrix": [104, 0, 0, 104],
      "AngioFlag": "N",
      "BitsAllocated": 16,
      "BitsStored": 16,
      "BodyPartExamined": "BRAIN",
      "Columns": 832,
      "EchoNumbers": 1,
      "EchoTime": 37.0,
      "EchoTrainLength": 104,
      "FlipAngle": 52.0,
      "HighBit": 15,
      "ImageOrientationPatient": [0.99597693208518, 0.06118624665419, 0.06546903065234, -0.0353024077714, 0.93942897592423, -0.3409207227487],
      "ImagePositionPatient": [-798.84796929906, -868.31017451142, 197.80512606147],
      "ImageType": [
        "ORIGINAL",
        "PRIMARY",
        "P",
        "MB",
        "ND",
        "MOSAIC"
],
      "ImagedNucleus": "1H",
      "ImagingFrequency": 123.258977,
      "InPlanePhaseEncodingDirection": "COL",
      "LargestImagePixelValue": 4095,
      "MRAcquisitionType": "2D",
      "MagneticFieldStrength": 3.0,
      "Manufacturer": "SIEMENS",
      "ManufacturerModelName": "Prisma_fit",
      "Modality": "MR",
      "NumberOfAverages": 1.0,
      "NumberOfPhaseEncodingSteps": 104,
      "PercentPhaseFieldOfView": 100.0,
      "PercentSampling": 100.0,
      "PerformedProcedureStepStartTime": "103211.801000",
      "PhotometricInterpretation": "MONOCHROME2",
      "PixelBandwidth": 2290.0,
      "PixelRepresentation": 0,
      "PixelSpacing": [2.0, 2.0],
      "ProtocolName": "func_task-mario_run-04",
      "RepetitionTime": 1490.0,
      "RescaleIntercept": -4096.0,
      "RescaleSlope": 2.0,
      "RescaleType": "US",
      "Rows": 832,
      "SAR": 0.058335899291,
      "SamplesPerPixel": 1,
      "ScanOptions": "FS",
      "ScanningSequence": "EP",
      "SequenceName": "epfid2d1_104",
      "SequenceVariant": [
        "SK",
        "SS"
],
      "SeriesDescription": "func_task-mario_run-04",
      "SeriesNumber": 23,
      "SeriesTime": "114906.998000",
      "SliceLocation": -41.527958314307,
      "SliceThickness": 2.0,
      "SmallestImagePixelValue": 0,
      "SoftwareVersions": "syngo MR E11",
      "SpacingBetweenSlices": 2.0000000388996,
      "SpecificCharacterSet": "ISO_IR 100",
      "StudyID": "1",
      "StudyTime": "103211.728000",
      "TransmitCoilName": "Body",
      "VariableFlipAngleFlag": "N",
      "WindowCenterWidthExplanation": "Algo1",
      "dBdt": 0.0},
    "slices": {}
  },
  "time": {
    "samples": {
      "AcquisitionNumber": [1, 2, 3, 4, 5, 6, 7, 8, 9, 10, 11, 12, 13, 14, 15, 16, 17, 18, 19, 20, 21, 22, 23, 24, 25, 26, 27, 28, 29, 30, 31, 32, 33, 34, 35, 36, 37, 38, 39, 40, 41, 42, 43, 44, 45, 46, 47, 48, 49, 50, 51, 52, 53, 54, 55, 56, 57, 58, 59, 60, 61, 62, 63, 64, 65, 66, 67, 68, 69, 70, 71, 72, 73, 74, 75, 76, 77, 78, 79, 80, 81, 82, 83, 84, 85, 86, 87, 88, 89, 90, 91, 92, 93, 94, 95, 96, 97, 98, 99, 100, 101, 102, 103, 104, 105, 106, 107, 108, 109, 110, 111, 112, 113, 114, 115, 116, 117, 118, 119, 120, 121, 122, 123, 124, 125, 126, 127, 128, 129, 130, 131, 132, 133, 134, 135, 136, 137, 138, 139, 140, 141, 142, 143, 144, 145, 146, 147, 148, 149, 150, 151, 152, 153, 154, 155, 156, 157, 158, 159, 160, 161, 162, 163, 164, 165, 166, 167, 168, 169, 170, 171, 172, 173, 174, 175, 176, 177, 178, 179, 180, 181, 182, 183, 184, 185, 186, 187, 188, 189, 190, 191, 192, 193, 194, 195, 196, 197, 198, 199, 200, 201, 202, 203, 204, 205, 206, 207, 208, 209, 210, 211, 212, 213, 214, 215, 216, 217, 218, 219, 220, 221, 222, 223, 224, 225, 226, 227, 228, 229, 230, 231, 232, 233, 234, 235, 236, 237, 238, 239, 240, 241, 242, 243, 244, 245, 246, 247, 248, 249, 250, 251, 252, 253, 254, 255, 256, 257, 258, 259, 260, 261, 262, 263, 264, 265, 266, 267, 268, 269, 270, 271, 272, 273, 274, 275, 276, 277, 278, 279, 280, 281, 282, 283, 284, 285, 286, 287, 288, 289, 290, 291, 292, 293, 294, 295, 296, 297, 298, 299, 300, 301, 302, 303, 304, 305, 306, 307, 308, 309, 310, 311, 312, 313, 314, 315, 316, 317, 318, 319, 320, 321, 322, 323, 324, 325, 326, 327, 328, 329, 330, 331, 332, 333, 334, 335, 336, 337, 338, 339, 340, 341, 342, 343, 344, 345, 346, 347, 348, 349, 350, 351, 352, 353, 354, 355, 356, 357, 358, 359, 360, 361, 362, 363, 364, 365, 366, 367, 368, 369, 370, 371, 372, 373, 374, 375, 376, 377, 378, 379, 380, 381, 382, 383, 384, 385, 386, 387, 388, 389, 390, 391, 392, 393, 394, 395, 396, 397, 398, 399, 400, 401, 402, 403, 404, 405, 406, 407, 408, 409, 410, 411, 412, 413, 414, 415, 416, 417, 418, 419, 420, 421, 422, 423, 424, 425, 426, 427, 428, 429, 430, 431, 432, 433, 434, 435, 436, 437, 438, 439, 440, 441, 442, 443],
      "AcquisitionTime": ["114734.795000", "114736.285000", "114737.775000", "114739.265000", "114740.755000", "114742.245000", "114743.735000", "114745.225000", "114746.715000", "114748.205000", "114749.695000", "114751.185000", "114752.675000", "114754.165000", "114755.655000", "114757.145000", "114758.635000", "114800.125000", "114801.615000", "114803.105000", "114804.595000", "114806.085000", "114807.575000", "114809.065000", "114810.555000", "114812.045000", "114813.535000", "114815.025000", "114816.515000", "114818.005000", "114819.495000", "114820.985000", "114822.475000", "114823.965000", "114825.455000", "114826.945000", "114828.435000", "114829.925000", "114831.415000", "114832.905000", "114834.395000", "114835.885000", "114837.375000", "114838.865000", "114840.355000", "114841.845000", "114843.335000", "114844.825000", "114846.315000", "114847.805000", "114849.295000", "114850.785000", "114852.275000", "114853.765000", "114855.255000", "114856.745000", "114858.235000", "114859.725000", "114901.215000", "114902.705000", "114904.195000", "114905.685000", "114907.175000", "114908.665000", "114910.155000", "114911.645000", "114913.135000", "114914.625000", "114916.115000", "114917.605000", "114919.095000", "114920.585000", "114922.075000", "114923.565000", "114925.055000", "114926.545000", "114928.035000", "114929.525000", "114931.015000", "114932.505000", "114933.995000", "114935.485000", "114936.975000", "114938.465000", "114939.955000", "114941.445000", "114942.935000", "114944.425000", "114945.915000", "114947.405000", "114948.895000", "114950.385000", "114951.875000", "114953.365000", "114954.855000", "114956.345000", "114957.835000", "114959.325000", "115000.815000", "115002.305000", "115003.795000", "115005.285000", "115006.775000", "115008.265000", "115009.755000", "115011.245000", "115012.735000", "115014.225000", "115015.715000", "115017.205000", "115018.695000", "115020.185000", "115021.675000", "115023.165000", "115024.655000", "115026.145000", "115027.635000", "115029.125000", "115030.615000", "115032.105000", "115033.595000", "115035.085000", "115036.575000", "115038.065000", "115039.555000", "115041.045000", "115042.535000", "115044.025000", "115045.515000", "115047.005000", "115048.495000", "115049.985000", "115051.475000", "115052.965000", "115054.455000", "115055.945000", "115057.435000", "115058.925000", "115100.415000", "115101.905000", "115103.395000", "115104.885000", "115106.375000", "115107.865000", "115109.355000", "115110.845000", "115112.335000", "115113.825000", "115115.315000", "115116.805000", "115118.295000", "115119.785000", "115121.275000", "115122.765000", "115124.255000", "115125.745000", "115127.235000", "115128.725000", "115130.215000", "115131.705000", "115133.195000", "115134.685000", "115136.175000", "115137.665000", "115139.155000", "115140.645000", "115142.135000", "115143.625000", "115145.115000", "115146.605000", "115148.095000", "115149.585000", "115151.075000", "115152.565000", "115154.055000", "115155.545000", "115157.035000", "115158.525000", "115200.015000", "115201.505000", "115202.995000", "115204.485000", "115205.975000", "115207.465000", "115208.955000", "115210.445000", "115211.935000", "115213.425000", "115214.915000", "115216.405000", "115217.895000", "115219.385000", "115220.875000", "115222.365000", "115223.855000", "115225.345000", "115226.835000", "115228.325000", "115229.815000", "115231.305000", "115232.795000", "115234.285000", "115235.775000", "115237.265000", "115238.755000", "115240.245000", "115241.735000", "115243.225000", "115244.715000", "115246.205000", "115247.695000", "115249.185000", "115250.675000", "115252.165000", "115253.655000", "115255.145000", "115256.635000", "115258.125000", "115259.615000", "115301.105000", "115302.595000", "115304.085000", "115305.575000", "115307.065000", "115308.555000", "115310.045000", "115311.535000", "115313.025000", "115314.515000", "115316.005000", "115317.495000", "115318.985000", "115320.475000", "115321.965000", "115323.455000", "115324.945000", "115326.435000", "115327.925000", "115329.415000", "115330.905000", "115332.395000", "115333.885000", "115335.375000", "115336.865000", "115338.355000", "115339.845000", "115341.335000", "115342.825000", "115344.315000", "115345.805000", "115347.295000", "115348.785000", "115350.275000", "115351.765000", "115353.255000", "115354.745000", "115356.235000", "115357.725000", "115359.215000", "115400.705000", "115402.195000", "115403.685000", "115405.175000", "115406.665000", "115408.155000", "115409.645000", "115411.135000", "115412.625000", "115414.115000", "115415.605000", "115417.095000", "115418.585000", "115420.075000", "115421.565000", "115423.055000", "115424.545000", "115426.035000", "115427.525000", "115429.015000", "115430.505000", "115431.995000", "115433.485000", "115434.975000", "115436.465000", "115437.955000", "115439.445000", "115440.935000", "115442.425000", "115443.915000", "115445.405000", "115446.895000", "115448.385000", "115449.875000", "115451.365000", "115452.855000", "115454.345000", "115455.835000", "115457.325000", "115458.815000", "115500.305000", "115501.795000", "115503.285000", "115504.775000", "115506.265000", "115507.755000", "115509.245000", "115510.735000", "115512.225000", "115513.715000", "115515.205000", "115516.695000", "115518.185000", "115519.675000", "115521.165000", "115522.655000", "115524.145000", "115525.635000", "115527.125000", "115528.615000", "115530.105000", "115531.595000", "115533.085000", "115534.575000", "115536.065000", "115537.555000", "115539.045000", "115540.535000", "115542.025000", "115543.515000", "115545.005000", "115546.495000", "115547.985000", "115549.475000", "115550.965000", "115552.455000", "115553.945000", "115555.435000", "115556.925000", "115558.415000", "115559.905000", "115601.395000", "115602.885000", "115604.375000", "115605.865000", "115607.355000", "115608.845000", "115610.335000", "115611.825000", "115613.315000", "115614.805000", "115616.295000", "115617.785000", "115619.275000", "115620.765000", "115622.255000", "115623.745000", "115625.235000", "115626.725000", "115628.215000", "115629.705000", "115631.195000", "115632.685000", "115634.175000", "115635.665000", "115637.155000", "115638.645000", "115640.135000", "115641.625000", "115643.115000", "115644.605000", "115646.095000", "115647.585000", "115649.075000", "115650.565000", "115652.055000", "115653.545000", "115655.035000", "115656.525000", "115658.015000", "115659.505000", "115700.995000", "115702.485000", "115703.975000", "115705.465000", "115706.955000", "115708.445000", "115709.935000", "115711.425000", "115712.915000", "115714.405000", "115715.895000", "115717.385000", "115718.875000", "115720.365000", "115721.855000", "115723.345000", "115724.835000", "115726.325000", "115727.815000", "115729.305000", "115730.795000", "115732.285000", "115733.775000", "115735.265000", "115736.755000", "115738.245000", "115739.735000", "115741.225000", "115742.715000", "115744.205000", "115745.695000", "115747.185000", "115748.675000", "115750.165000", "115751.655000", "115753.145000", "115754.635000", "115756.125000", "115757.615000", "115759.105000", "115800.595000", "115802.085000", "115803.575000", "115805.065000", "115806.555000", "115808.045000", "115809.535000", "115811.025000", "115812.515000", "115814.005000", "115815.495000", "115816.985000", "115818.475000", "115819.965000", "115821.455000", "115822.945000", "115824.435000", "115825.925000", "115827.415000", "115828.905000", "115830.395000", "115831.885000", "115833.375000"],
      "ContentTime": ["114907.000000", "114907.003000", "114907.006000", "114907.009000", "114907.011000", "114907.014000", "114907.016000", "114907.019000", "114907.021000", "114907.024000", "114907.027000", "114907.029000", "114907.032000", "114907.034000", "114907.037000", "114907.039000", "114907.042000", "114907.045000", "114907.047000", "114907.050000", "114907.052000", "114907.055000", "114907.057000", "114907.060000", "114907.063000", "114907.065000", "114907.068000", "114907.070000", "114907.073000", "114907.076000", "114907.078000", "114907.081000", "114907.083000", "114907.086000", "114907.088000", "114907.091000", "114907.093000", "114907.096000", "114907.099000", "114926.871000", "114926.874000", "114926.877000", "114926.879000", "114926.882000", "114926.885000", "114926.887000", "114926.890000", "114926.912000", "114926.915000", "114926.917000", "114926.920000", "114926.922000", "114926.925000", "114926.927000", "114926.930000", "114926.932000", "114926.935000", "114926.938000", "114926.940000", "114946.876000", "114946.879000", "114946.882000", "114946.884000", "114946.887000", "114946.889000", "114946.892000", "114946.895000", "114946.897000", "114946.900000", "114946.902000", "114946.905000", "114946.907000", "114946.910000", "114946.913000", "114946.915000", "114946.918000", "114946.920000", "114946.923000", "114946.926000", "115006.875000", "115006.878000", "115006.881000", "115006.883000", "115006.886000", "115006.888000", "115006.891000", "115006.894000", "115006.896000", "115006.899000", "115006.901000", "115006.904000", "115006.907000", "115006.909000", "115006.912000", "115006.914000", "115006.917000", "115006.919000", "115006.922000", "115006.925000", "115006.927000", "115046.923000", "115046.926000", "115046.928000", "115046.931000", "115046.933000", "115046.936000", "115046.938000", "115046.941000", "115046.944000", "115046.946000", "115046.949000", "115046.951000", "115046.954000", "115046.957000", "115046.959000", "115046.962000", "115046.964000", "115046.967000", "115046.969000", "115046.972000", "115046.975000", "115046.978000", "115046.980000", "115046.983000", "115046.985000", "115046.988000", "115046.991000", "115046.993000", "115126.903000", "115126.905000", "115126.908000", "115126.911000", "115126.913000", "115126.916000", "115126.918000", "115126.921000", "115126.924000", "115126.926000", "115126.929000", "115126.931000", "115126.934000", "115126.937000", "115126.939000", "115126.942000", "115126.944000", "115126.947000", "115126.949000", "115126.952000", "115126.955000", "115126.957000", "115126.960000", "115126.962000", "115126.965000", "115126.968000", "115126.970000", "115206.904000", "115206.907000", "115206.910000", "115206.912000", "115206.915000", "115206.918000", "115206.920000", "115206.923000", "115206.925000", "115206.928000", "115206.931000", "115206.933000", "115206.936000", "115206.938000", "115206.941000", "115206.944000", "115206.946000", "115206.949000", "115206.951000", "115206.954000", "115206.956000", "115206.959000", "115206.962000", "115206.964000", "115206.967000", "115206.969000", "115206.972000", "115246.895000", "115246.915000", "115246.918000", "115246.920000", "115246.923000", "115246.926000", "115246.928000", "115246.931000", "115246.934000", "115246.936000", "115246.939000", "115246.941000", "115246.944000", "115246.947000", "115246.949000", "115246.952000", "115246.954000", "115246.957000", "115246.960000", "115246.962000", "115246.965000", "115246.967000", "115246.970000", "115246.972000", "115246.975000", "115246.978000", "115246.980000", "115326.908000", "115326.911000", "115326.914000", "115326.916000", "115326.919000", "115326.921000", "115326.924000", "115326.927000", "115326.929000", "115326.932000", "115326.934000", "115326.937000", "115326.939000", "115326.942000", "115326.945000", "115326.947000", "115326.950000", "115326.952000", "115326.955000", "115326.957000", "115326.960000", "115326.962000", "115326.965000", "115326.968000", "115326.970000", "115326.973000", "115326.975000", "115406.945000", "115406.948000", "115406.950000", "115406.953000", "115406.956000", "115406.965000", "115406.967000", "115406.970000", "115406.973000", "115406.975000", "115406.978000", "115406.980000", "115406.983000", "115406.986000", "115406.988000", "115406.991000", "115406.993000", "115406.996000", "115406.998000", "115407.002000", "115407.005000", "115407.007000", "115407.010000", "115407.012000", "115407.015000", "115407.018000", "115426.840000", "115426.843000", "115426.846000", "115426.848000", "115426.851000", "115426.854000", "115426.856000", "115426.859000", "115426.861000", "115426.864000", "115426.867000", "115426.869000", "115426.872000", "115426.874000", "115506.923000", "115506.926000", "115506.929000", "115506.932000", "115506.934000", "115506.937000", "115506.940000", "115506.943000", "115506.946000", "115506.949000", "115506.952000", "115506.955000", "115506.958000", "115506.960000", "115506.963000", "115506.966000", "115506.969000", "115506.971000", "115506.974000", "115506.977000", "115506.979000", "115506.982000", "115506.985000", "115506.987000", "115506.990000", "115506.993000", "115506.995000", "115546.908000", "115546.911000", "115546.914000", "115546.916000", "115546.919000", "115546.922000", "115546.924000", "115546.927000", "115546.929000", "115546.932000", "115546.935000", "115546.938000", "115546.940000", "115546.943000", "115546.945000", "115546.948000", "115546.951000", "115546.953000", "115546.956000", "115546.958000", "115546.961000", "115546.963000", "115546.966000", "115546.969000", "115546.971000", "115546.974000", "115546.977000", "115627.356000", "115627.359000", "115627.361000", "115627.364000", "115627.366000", "115627.369000", "115627.372000", "115627.374000", "115627.377000", "115627.380000", "115627.382000", "115627.385000", "115627.387000", "115627.390000", "115627.392000", "115627.395000", "115627.398000", "115627.400000", "115627.403000", "115627.405000", "115627.408000", "115627.411000", "115627.413000", "115627.416000", "115627.418000", "115627.421000", "115706.976000", "115706.979000", "115706.982000", "115706.984000", "115706.995000", "115706.998000", "115707.000000", "115707.003000", "115707.006000", "115707.008000", "115707.011000", "115707.014000", "115707.016000", "115707.019000", "115707.022000", "115707.024000", "115707.027000", "115707.029000", "115707.032000", "115707.035000", "115707.037000", "115707.040000", "115707.042000", "115707.045000", "115707.048000", "115707.050000", "115707.053000", "115747.060000", "115747.063000", "115747.066000", "115747.068000", "115747.071000", "115747.073000", "115747.076000", "115747.078000", "115747.081000", "115747.083000", "115747.086000", "115747.089000", "115747.091000", "115747.094000", "115747.096000", "115747.099000", "115747.101000", "115747.104000", "115747.107000", "115747.109000", "115747.112000", "115747.114000", "115747.117000", "115747.119000", "115747.122000", "115747.125000", "115747.127000", "115826.903000", "115826.906000", "115826.908000", "115826.911000", "115826.913000", "115826.916000", "115826.919000", "115826.921000", "115826.924000", "115826.926000", "115826.929000", "115826.932000", "115826.934000", "115826.937000", "115826.939000", "115826.942000", "115826.945000", "115826.947000", "115826.950000", "115826.952000", "115826.955000", "115826.957000", "115826.960000", "115826.963000", "115826.965000", "115826.968000", "115826.970000", "115836.453000", "115836.455000", "115836.458000", "115836.461000", "115836.463000", "115836.466000"],
