{
  "AcquisitionMatrixPE": 104,
  "AcquisitionNumber": 1,
  "AcquisitionTime": "11:22:0.007500",
  "BandwidthPerPixelPhaseEncode": 17.17,
  "BaseResolution": 104,
  "BodyPartExamined": "BRAIN",
  "CoilString": "HC1-7;NC1_2",
  "ConsistencyInfo": "N4_VE11C_LATEST_20160120",
  "ConversionSoftware": "dcm2niix",
  "ConversionSoftwareVersion": "v1.0.20190902",
  "DerivedVendorReportedEchoSpacing": 0.000560011,
  "DeviceSerialNumber": "167006",
  "DwellTime": 2.1e-06,
  "EchoTime": 0.037,
  "EchoTrainLength": 104,
  "EffectiveEchoSpacing": 0.000560011,
  "FlipAngle": 52,
  "HeudiconvVersion": "0.10.0",
  "ImageComments": "Unaliased_MB4_PE3_LB",
  "ImageOrientationPatientDICOM": [0.995977, 0.0611862, 0.065469, -0.0353024, 0.939429, -0.340921],
  "ImageType": [
    "ORIGINAL",
    "PRIMARY",
    "P",
    "MB",
    "ND",
    "MOSAIC"
],
  "ImagingFrequency": 123.259,
  "InPlanePhaseEncodingDirectionDICOM": "COL",
  "InstitutionAddress": "Chemin_Queen-Mary_4565_Montreal_District_CA_H3W_1W5",
  "InstitutionName": "IUGM",
  "InstitutionalDepartmentName": "Department",
  "MRAcquisitionType": "2D",
  "MagneticFieldStrength": 3,
  "Manufacturer": "Siemens",
  "ManufacturersModelName": "Prisma_fit",
  "Modality": "MR",
  "MultibandAccelerationFactor": 4,
  "PartialFourier": 1,
  "PatientPosition": "HFS",
  "PercentPhaseFOV": 100,
  "PhaseEncodingDirection": "j",
  "PhaseEncodingSteps": 104,
  "PhaseResolution": 1,
  "PixelBandwidth": 2290,
  "ProcedureStepDescription": "games_mario",
  "ProtocolName": "func_task-mario_run-02",
  "PulseSequenceDetails": "%CustomerSeq%_cmrr_mbep2d_bold",
  "ReceiveCoilActiveElements": "HC1-7;NC1,2",
  "ReceiveCoilName": "HeadNeck_64",
  "ReconMatrixPE": 104,
  "RepetitionTime": 1.49,
  "SAR": 0.0583359,
  "ScanOptions": "FS",
  "ScanningSequence": "EP",
  "SequenceName": "epfid2d1_104",
  "SequenceVariant": "SK_SS",
  "SeriesDescription": "func_task-mario_run-02",
  "SeriesNumber": 17,
  "ShimSetting": [634, -7191, -8846, 617, 59, 0, -28, -9],
  "SliceThickness": 2,
  "SliceTiming": [0, 0.785, 0.0975, 0.8825, 0.1975, 0.98, 0.295, 1.0775, 0.3925, 1.1775, 0.49, 1.275, 0.5875, 1.3725, 0.6875, 0, 0.785, 0.0975, 0.8825, 0.1975, 0.98, 0.295, 1.0775, 0.3925, 1.1775, 0.49, 1.275, 0.5875, 1.3725, 0.6875, 0, 0.785, 0.0975, 0.8825, 0.1975, 0.98, 0.295, 1.0775, 0.3925, 1.1775, 0.49, 1.275, 0.5875, 1.3725, 0.6875, 0, 0.785, 0.0975, 0.8825, 0.1975, 0.98, 0.295, 1.0775, 0.3925, 1.1775, 0.49, 1.275, 0.5875, 1.3725, 0.6875],
  "SoftwareVersions": "syngo_MR_E11",
  "SpacingBetweenSlices": 2,
  "StationName": "MRC35049",
  "TaskName": "mario",
  "TotalReadoutTime": 0.0576811,
  "TxRefAmp": 291.539,
  "WipMemBlock": "4e9c2851-eae3-4d46-9e1d-8ea69315f741||Sequence: R016 ve11c/master r/e634e98; Dec 19 2017 11:00:25 by eja",
  "dcmmeta_affine": [
    [-1.9919538497924805, -0.07060481607913971, 0.16472633183002472, 106.74921417236328],
    [-0.12237249314785004, 1.878857970237732, -0.674475908279419, -53.66007614135742],
    [0.1309380680322647, 0.6818414330482483, 1.8756192922592163, -72.95337677001953],
    [0.0, 0.0, 0.0, 1.0]
],
  "dcmmeta_reorient_transform": [
    [0.0, -1.0, 0.0, 103.0],
    [1.0, 0.0, 0.0, 0.0],
    [0.0, 0.0, 1.0, 0.0],
    [0.0, 0.0, 0.0, 1.0]
],
  "dcmmeta_shape": [104, 104, 60, 445],
  "dcmmeta_slice_dim": 2,
  "dcmmeta_version": 0.6,
  "global": {
    "const": {
      "AcquisitionMatrix": [104, 0, 0, 104],
      "AngioFlag": "N",
      "BitsAllocated": 16,
      "BitsStored": 16,
      "BodyPartExamined": "BRAIN",
      "Columns": 832,
      "EchoNumbers": 1,
      "EchoTime": 37.0,
      "EchoTrainLength": 104,
      "FlipAngle": 52.0,
      "HighBit": 15,
      "ImageOrientationPatient": [0.99597693208518, 0.06118624665419, 0.06546903065234, -0.0353024077714, 0.93942897592423, -0.3409207227487],
      "ImagePositionPatient": [-798.84796929906, -868.31017451142, 197.80512606147],
      "ImageType": [
        "ORIGINAL",
        "PRIMARY",
        "P",
        "MB",
        "ND",
        "MOSAIC"
],
      "ImagedNucleus": "1H",
      "ImagingFrequency": 123.258964,
      "InPlanePhaseEncodingDirection": "COL",
      "LargestImagePixelValue": 4095,
      "MRAcquisitionType": "2D",
      "MagneticFieldStrength": 3.0,
      "Manufacturer": "SIEMENS",
      "ManufacturerModelName": "Prisma_fit",
      "Modality": "MR",
      "NumberOfAverages": 1.0,
      "NumberOfPhaseEncodingSteps": 104,
      "PercentPhaseFieldOfView": 100.0,
      "PercentSampling": 100.0,
      "PerformedProcedureStepStartTime": "103211.801000",
      "PhotometricInterpretation": "MONOCHROME2",
      "PixelBandwidth": 2290.0,
      "PixelRepresentation": 0,
      "PixelSpacing": [2.0, 2.0],
      "ProtocolName": "func_task-mario_run-02",
      "RepetitionTime": 1490.0,
      "RescaleIntercept": -4096.0,
      "RescaleSlope": 2.0,
      "RescaleType": "US",
      "Rows": 832,
      "SAR": 0.058335899291,
      "SamplesPerPixel": 1,
      "ScanOptions": "FS",
      "ScanningSequence": "EP",
      "SequenceName": "epfid2d1_104",
      "SequenceVariant": [
        "SK",
        "SS"
],
      "SeriesDescription": "func_task-mario_run-02",
      "SeriesNumber": 17,
      "SeriesTime": "112329.341000",
      "SliceLocation": -41.527958314307,
      "SliceThickness": 2.0,
      "SmallestImagePixelValue": 0,
      "SoftwareVersions": "syngo MR E11",
      "SpacingBetweenSlices": 2.0000000388996,
      "SpecificCharacterSet": "ISO_IR 100",
      "StudyID": "1",
      "StudyTime": "103211.728000",
      "TransmitCoilName": "Body",
      "VariableFlipAngleFlag": "N",
      "WindowCenterWidthExplanation": "Algo1",
      "dBdt": 0.0},
    "slices": {}
  },
  "time": {
    "samples": {
      "AcquisitionNumber": [1, 2, 3, 4, 5, 6, 7, 8, 9, 10, 11, 12, 13, 14, 15, 16, 17, 18, 19, 20, 21, 22, 23, 24, 25, 26, 27, 28, 29, 30, 31, 32, 33, 34, 35, 36, 37, 38, 39, 40, 41, 42, 43, 44, 45, 46, 47, 48, 49, 50, 51, 52, 53, 54, 55, 56, 57, 58, 59, 60, 61, 62, 63, 64, 65, 66, 67, 68, 69, 70, 71, 72, 73, 74, 75, 76, 77, 78, 79, 80, 81, 82, 83, 84, 85, 86, 87, 88, 89, 90, 91, 92, 93, 94, 95, 96, 97, 98, 99, 100, 101, 102, 103, 104, 105, 106, 107, 108, 109, 110, 111, 112, 113, 114, 115, 116, 117, 118, 119, 120, 121, 122, 123, 124, 125, 126, 127, 128, 129, 130, 131, 132, 133, 134, 135, 136, 137, 138, 139, 140, 141, 142, 143, 144, 145, 146, 147, 148, 149, 150, 151, 152, 153, 154, 155, 156, 157, 158, 159, 160, 161, 162, 163, 164, 165, 166, 167, 168, 169, 170, 171, 172, 173, 174, 175, 176, 177, 178, 179, 180, 181, 182, 183, 184, 185, 186, 187, 188, 189, 190, 191, 192, 193, 194, 195, 196, 197, 198, 199, 200, 201, 202, 203, 204, 205, 206, 207, 208, 209, 210, 211, 212, 213, 214, 215, 216, 217, 218, 219, 220, 221, 222, 223, 224, 225, 226, 227, 228, 229, 230, 231, 232, 233, 234, 235, 236, 237, 238, 239, 240, 241, 242, 243, 244, 245, 246, 247, 248, 249, 250, 251, 252, 253, 254, 255, 256, 257, 258, 259, 260, 261, 262, 263, 264, 265, 266, 267, 268, 269, 270, 271, 272, 273, 274, 275, 276, 277, 278, 279, 280, 281, 282, 283, 284, 285, 286, 287, 288, 289, 290, 291, 292, 293, 294, 295, 296, 297, 298, 299, 300, 301, 302, 303, 304, 305, 306, 307, 308, 309, 310, 311, 312, 313, 314, 315, 316, 317, 318, 319, 320, 321, 322, 323, 324, 325, 326, 327, 328, 329, 330, 331, 332, 333, 334, 335, 336, 337, 338, 339, 340, 341, 342, 343, 344, 345, 346, 347, 348, 349, 350, 351, 352, 353, 354, 355, 356, 357, 358, 359, 360, 361, 362, 363, 364, 365, 366, 367, 368, 369, 370, 371, 372, 373, 374, 375, 376, 377, 378, 379, 380, 381, 382, 383, 384, 385, 386, 387, 388, 389, 390, 391, 392, 393, 394, 395, 396, 397, 398, 399, 400, 401, 402, 403, 404, 405, 406, 407, 408, 409, 410, 411, 412, 413, 414, 415, 416, 417, 418, 419, 420, 421, 422, 423, 424, 425, 426, 427, 428, 429, 430, 431, 432, 433, 434, 435, 436, 437, 438, 439, 440, 441, 442, 443, 444, 445],
      "AcquisitionTime": ["112200.007500", "112201.497500", "112202.987500", "112204.477500", "112205.967500", "112207.457500", "112208.947500", "112210.437500", "112211.927500", "112213.417500", "112214.907500", "112216.397500", "112217.887500", "112219.377500", "112220.867500", "112222.357500", "112223.847500", "112225.337500", "112226.827500", "112228.317500", "112229.807500", "112231.297500", "112232.787500", "112234.277500", "112235.767500", "112237.257500", "112238.747500", "112240.237500", "112241.727500", "112243.217500", "112244.707500", "112246.197500", "112247.687500", "112249.177500", "112250.667500", "112252.157500", "112253.647500", "112255.137500", "112256.627500", "112258.117500", "112259.607500", "112301.097500", "112302.587500", "112304.077500", "112305.567500", "112307.057500", "112308.547500", "112310.037500", "112311.527500", "112313.017500", "112314.507500", "112315.997500", "112317.487500", "112318.977500", "112320.467500", "112321.957500", "112323.447500", "112324.937500", "112326.427500", "112327.917500", "112329.407500", "112330.897500", "112332.387500", "112333.877500", "112335.367500", "112336.857500", "112338.347500", "112339.837500", "112341.327500", "112342.817500", "112344.307500", "112345.797500", "112347.287500", "112348.777500", "112350.267500", "112351.757500", "112353.247500", "112354.737500", "112356.227500", "112357.717500", "112359.207500", "112400.697500", "112402.187500", "112403.677500", "112405.167500", "112406.657500", "112408.147500", "112409.637500", "112411.127500", "112412.617500", "112414.107500", "112415.597500", "112417.087500", "112418.577500", "112420.067500", "112421.557500", "112423.047500", "112424.537500", "112426.027500", "112427.517500", "112429.007500", "112430.497500", "112431.987500", "112433.477500", "112434.967500", "112436.457500", "112437.947500", "112439.437500", "112440.927500", "112442.417500", "112443.907500", "112445.397500", "112446.887500", "112448.377500", "112449.867500", "112451.357500", "112452.847500", "112454.337500", "112455.827500", "112457.317500", "112458.807500", "112500.297500", "112501.787500", "112503.277500", "112504.767500", "112506.257500", "112507.747500", "112509.237500", "112510.727500", "112512.217500", "112513.707500", "112515.197500", "112516.687500", "112518.177500", "112519.667500", "112521.157500", "112522.647500", "112524.137500", "112525.627500", "112527.117500", "112528.607500", "112530.097500", "112531.587500", "112533.077500", "112534.567500", "112536.057500", "112537.547500", "112539.037500", "112540.527500", "112542.017500", "112543.507500", "112544.997500", "112546.487500", "112547.977500", "112549.467500", "112550.957500", "112552.447500", "112553.937500", "112555.427500", "112556.917500", "112558.407500", "112559.897500", "112601.387500", "112602.877500", "112604.367500", "112605.857500", "112607.347500", "112608.837500", "112610.327500", "112611.817500", "112613.307500", "112614.797500", "112616.287500", "112617.777500", "112619.267500", "112620.757500", "112622.247500", "112623.737500", "112625.227500", "112626.717500", "112628.207500", "112629.697500", "112631.187500", "112632.677500", "112634.167500", "112635.657500", "112637.147500", "112638.637500", "112640.127500", "112641.617500", "112643.107500", "112644.597500", "112646.087500", "112647.577500", "112649.067500", "112650.557500", "112652.047500", "112653.537500", "112655.027500", "112656.517500", "112658.007500", "112659.497500", "112700.987500", "112702.477500", "112703.967500", "112705.457500", "112706.947500", "112708.437500", "112709.927500", "112711.417500", "112712.907500", "112714.397500", "112715.887500", "112717.377500", "112718.867500", "112720.357500", "112721.847500", "112723.337500", "112724.827500", "112726.317500", "112727.807500", "112729.297500", "112730.787500", "112732.277500", "112733.767500", "112735.257500", "112736.747500", "112738.237500", "112739.727500", "112741.217500", "112742.707500", "112744.197500", "112745.687500", "112747.177500", "112748.667500", "112750.157500", "112751.647500", "112753.137500", "112754.627500", "112756.117500", "112757.607500", "112759.097500", "112800.587500", "112802.077500", "112803.567500", "112805.057500", "112806.547500", "112808.037500", "112809.527500", "112811.017500", "112812.507500", "112813.997500", "112815.487500", "112816.977500", "112818.467500", "112819.957500", "112821.447500", "112822.937500", "112824.427500", "112825.917500", "112827.407500", "112828.897500", "112830.387500", "112831.877500", "112833.367500", "112834.857500", "112836.347500", "112837.837500", "112839.327500", "112840.817500", "112842.307500", "112843.797500", "112845.287500", "112846.777500", "112848.267500", "112849.757500", "112851.247500", "112852.737500", "112854.227500", "112855.717500", "112857.207500", "112858.697500", "112900.187500", "112901.677500", "112903.167500", "112904.657500", "112906.147500", "112907.637500", "112909.127500", "112910.617500", "112912.107500", "112913.597500", "112915.087500", "112916.577500", "112918.067500", "112919.557500", "112921.047500", "112922.537500", "112924.027500", "112925.517500", "112927.007500", "112928.497500", "112929.987500", "112931.477500", "112932.967500", "112934.457500", "112935.947500", "112937.437500", "112938.927500", "112940.417500", "112941.907500", "112943.397500", "112944.887500", "112946.377500", "112947.867500", "112949.357500", "112950.847500", "112952.337500", "112953.827500", "112955.317500", "112956.807500", "112958.297500", "112959.787500", "113001.277500", "113002.767500", "113004.257500", "113005.747500", "113007.237500", "113008.727500", "113010.217500", "113011.707500", "113013.197500", "113014.687500", "113016.177500", "113017.667500", "113019.157500", "113020.647500", "113022.137500", "113023.627500", "113025.117500", "113026.607500", "113028.097500", "113029.587500", "113031.077500", "113032.567500", "113034.057500", "113035.547500", "113037.037500", "113038.527500", "113040.017500", "113041.507500", "113042.997500", "113044.487500", "113045.977500", "113047.467500", "113048.957500", "113050.447500", "113051.937500", "113053.427500", "113054.917500", "113056.407500", "113057.897500", "113059.387500", "113100.877500", "113102.367500", "113103.857500", "113105.347500", "113106.837500", "113108.327500", "113109.817500", "113111.307500", "113112.797500", "113114.287500", "113115.777500", "113117.267500", "113118.757500", "113120.247500", "113121.737500", "113123.227500", "113124.717500", "113126.207500", "113127.697500", "113129.187500", "113130.677500", "113132.167500", "113133.657500", "113135.147500", "113136.637500", "113138.127500", "113139.617500", "113141.107500", "113142.597500", "113144.087500", "113145.577500", "113147.067500", "113148.557500", "113150.047500", "113151.537500", "113153.027500", "113154.517500", "113156.007500", "113157.497500", "113158.987500", "113200.477500", "113201.967500", "113203.457500", "113204.947500", "113206.437500", "113207.927500", "113209.417500", "113210.907500", "113212.397500", "113213.887500", "113215.377500", "113216.867500", "113218.357500", "113219.847500", "113221.337500", "113222.827500", "113224.317500", "113225.807500", "113227.297500", "113228.787500", "113230.277500", "113231.767500", "113233.257500", "113234.747500", "113236.237500", "113237.727500", "113239.217500", "113240.707500", "113242.197500", "113243.687500", "113245.177500", "113246.667500", "113248.157500", "113249.647500", "113251.137500", "113252.627500", "113254.117500", "113255.607500", "113257.097500", "113258.587500", "113300.077500", "113301.567500"],
      "ContentTime": ["112329.343000", "112329.346000", "112329.354000", "112329.356000", "112329.359000", "112329.361000", "112329.364000", "112329.367000", "112329.369000", "112329.372000", "112329.374000", "112329.377000", "112329.379000", "112329.383000", "112329.386000", "112329.388000", "112329.391000", "112329.393000", "112329.396000", "112329.398000", "112329.401000", "112329.404000", "112329.406000", "112329.409000", "112329.411000", "112329.414000", "112329.416000", "112329.419000", "112329.421000", "112329.424000", "112329.427000", "112329.429000", "112329.432000", "112329.434000", "112329.437000", "112349.214000", "112349.217000", "112349.219000", "112349.222000", "112349.224000", "112349.227000", "112349.230000", "112349.232000", "112349.235000", "112349.238000", "112349.240000", "112349.243000", "112349.245000", "112349.248000", "112349.250000", "112349.253000", "112349.256000", "112349.259000", "112349.261000", "112349.264000", "112409.225000", "112409.228000", "112409.230000", "112409.233000", "112409.236000", "112409.238000", "112409.241000", "112409.244000", "112409.246000", "112409.249000", "112409.251000", "112409.254000", "112409.256000", "112409.259000", "112409.262000", "112409.264000", "112409.267000", "112409.269000", "112409.272000", "112409.275000", "112429.223000", "112429.226000", "112429.229000", "112429.231000", "112429.234000", "112429.237000", "112429.239000", "112429.242000", "112429.244000", "112429.247000", "112429.249000", "112429.252000", "112429.255000", "112429.257000", "112429.260000", "112429.262000", "112429.265000", "112429.267000", "112429.270000", "112429.272000", "112429.275000", "112509.265000", "112509.268000", "112509.271000", "112509.273000", "112509.276000", "112509.279000", "112509.281000", "112509.284000", "112509.286000", "112509.289000", "112509.291000", "112509.294000", "112509.297000", "112509.299000", "112509.302000", "112509.304000", "112509.307000", "112509.310000", "112509.312000", "112509.315000", "112509.317000", "112509.320000", "112509.322000", "112509.325000", "112509.328000", "112509.330000", "112509.333000", "112509.335000", "112509.338000", "112509.341000", "112549.245000", "112549.248000", "112549.250000", "112549.253000", "112549.256000", "112549.258000", "112549.261000", "112549.263000", "112549.266000", "112549.269000", "112549.271000", "112549.274000", "112549.276000", "112549.279000", "112549.282000", "112549.284000", "112549.287000", "112549.289000", "112549.292000", "112549.294000", "112549.297000", "112549.300000", "112549.302000", "112549.305000", "112549.308000", "112549.310000", "112549.313000", "112629.247000", "112629.250000", "112629.252000", "112629.255000", "112629.258000", "112629.260000", "112629.263000", "112629.266000", "112629.268000", "112629.271000", "112629.273000", "112629.276000", "112629.279000", "112629.281000", "112629.284000", "112629.286000", "112629.289000", "112629.291000", "112629.294000", "112629.297000", "112629.299000", "112629.302000", "112629.304000", "112629.307000", "112629.310000", "112629.312000", "112709.243000", "112709.246000", "112709.248000", "112709.251000", "112709.254000", "112709.256000", "112709.259000", "112709.261000", "112709.264000", "112709.266000", "112709.269000", "112709.272000", "112709.274000", "112709.277000", "112709.280000", "112709.282000", "112709.285000", "112709.287000", "112709.290000", "112709.292000", "112709.295000", "112709.298000", "112709.300000", "112709.303000", "112709.305000", "112709.308000", "112709.317000", "112749.250000", "112749.253000", "112749.256000", "112749.258000", "112749.261000", "112749.263000", "112749.266000", "112749.268000", "112749.271000", "112749.274000", "112749.276000", "112749.279000", "112749.282000", "112749.284000", "112749.287000", "112749.289000", "112749.292000", "112749.295000", "112749.297000", "112749.300000", "112749.302000", "112749.305000", "112749.308000", "112749.310000", "112749.313000", "112749.315000", "112749.318000", "112829.253000", "112829.256000", "112829.259000", "112829.261000", "112829.264000", "112829.266000", "112829.269000", "112829.272000", "112829.274000", "112829.277000", "112829.280000", "112829.282000", "112829.285000", "112829.287000", "112829.290000", "112829.293000", "112829.295000", "112829.298000", "112829.300000", "112829.303000", "112829.305000", "112829.308000", "112829.311000", "112829.313000", "112829.316000", "112829.319000", "112829.321000", "112909.250000", "112909.253000", "112909.255000", "112909.258000", "112909.260000", "112909.263000", "112909.266000", "112909.268000", "112909.271000", "112909.273000", "112909.276000", "112909.278000", "112909.281000", "112909.284000", "112909.286000", "112909.289000", "112909.291000", "112909.294000", "112909.297000", "112909.299000", "112909.302000", "112909.304000", "112909.307000", "112909.309000", "112909.312000", "112909.315000", "112909.317000", "112949.263000", "112949.266000", "112949.269000", "112949.271000", "112949.274000", "112949.276000", "112949.279000", "112949.282000", "112949.284000", "112949.287000", "112949.289000", "112949.292000", "112949.295000", "112949.297000", "112949.300000", "112949.302000", "112949.305000", "112949.307000", "112949.310000", "112949.313000", "112949.315000", "112949.318000", "112949.320000", "112949.323000", "112949.326000", "112949.328000", "112949.331000", "113029.597000", "113029.600000", "113029.602000", "113029.605000", "113029.608000", "113029.610000", "113029.613000", "113029.615000", "113029.618000", "113029.629000", "113029.632000", "113029.634000", "113029.637000", "113029.640000", "113029.642000", "113029.645000", "113029.647000", "113029.650000", "113029.653000", "113029.655000", "113029.658000", "113029.660000", "113029.663000", "113029.665000", "113029.668000", "113029.671000", "113109.246000", "113109.249000", "113109.251000", "113109.254000", "113109.257000", "113109.259000", "113109.262000", "113109.264000", "113109.267000", "113109.270000", "113109.272000", "113109.275000", "113109.277000", "113109.280000", "113109.283000", "113109.285000", "113109.288000", "113109.291000", "113109.293000", "113109.296000", "113109.298000", "113109.301000", "113109.304000", "113109.306000", "113109.309000", "113109.311000", "113109.314000", "113149.247000", "113149.249000", "113149.252000", "113149.255000", "113149.257000", "113149.260000", "113149.263000", "113149.265000", "113149.268000", "113149.270000", "113149.273000", "113149.275000", "113149.278000", "113149.281000", "113149.283000", "113149.286000", "113149.288000", "113149.291000", "113149.294000", "113149.296000", "113149.299000", "113149.301000", "113149.304000", "113149.307000", "113149.309000", "113149.312000", "113149.314000", "113229.272000", "113229.275000", "113229.278000", "113229.280000", "113229.283000", "113229.285000", "113229.288000", "113229.291000", "113229.293000", "113229.296000", "113229.298000", "113229.301000", "113229.303000", "113229.306000", "113229.309000", "113229.311000", "113229.314000", "113229.316000", "113229.319000", "113229.322000", "113229.324000", "113229.327000", "113229.329000", "113229.332000", "113229.335000", "113229.337000", "113229.340000", "113305.140000", "113305.143000", "113305.146000", "113305.148000", "113305.151000", "113305.153000", "113305.156000", "113305.159000", "113305.161000", "113305.164000", "113305.166000", "113305.169000", "113305.172000", "113305.174000", "113305.177000", "113305.179000", "113305.182000", "113305.184000", "113305.187000", "113305.190000", "113305.192000", "113305.195000", "113305.197000", "113305.200000"],
