{
  "AcquisitionMatrixPE": 104,
  "AcquisitionNumber": 1,
  "AcquisitionTime": "17:13:58.007500",
  "BandwidthPerPixelPhaseEncode": 17.17,
  "BaseResolution": 104,
  "BodyPartExamined": "BRAIN",
  "CoilCombinationMethod": "Sum of Squares",
  "ConsistencyInfo": "N4_VE11C_LATEST_20160120",
  "ConversionSoftware": "dcm2niix",
  "ConversionSoftwareVersion": "v1.0.20211006",
  "DerivedVendorReportedEchoSpacing": 0.000560011,
  "DeviceSerialNumber": "167006",
  "DwellTime": 2.1e-06,
  "EchoTime": 0.037,
  "EchoTime1": 0.037,
  "EchoTime2": 0.001,
  "EchoTrainLength": 104,
  "EffectiveEchoSpacing": 0.000560011,
  "FlipAngle": 52,
  "HeudiconvVersion": "0.11.3.post9+gc939bf8",
  "ImageComments": "Unaliased MB4/PE3/LB",
  "ImageOrientationPatientDICOM": [0.999754, -0.0208446, 0.00755852, 0.0221639, 0.929844, -0.367285],
  "ImageOrientationText": "Tra>Cor(-21.6)>Sag(-0.0)",
  "ImageType": [
    "ORIGINAL",
    "PRIMARY",
    "P",
    "MB",
    "ND",
    "MOSAIC",
    "PHASE"
],
  "ImagingFrequency": 123.259,
  "InPlanePhaseEncodingDirectionDICOM": "COL",
  "InstitutionAddress": "Chemin Queen-Mary 4565,Montreal,District,CA,H3W 1W5",
  "InstitutionName": "IUGM",
  "InstitutionalDepartmentName": "Department",
  "MRAcquisitionType": "2D",
  "MagneticFieldStrength": 3,
  "Manufacturer": "Siemens",
  "ManufacturersModelName": "Prisma_fit",
  "MatrixCoilMode": "SENSE",
  "Modality": "MR",
  "MultibandAccelerationFactor": 4,
  "PartialFourier": 1,
  "PatientPosition": "HFS",
  "PercentPhaseFOV": 100,
  "PercentSampling": 100,
  "PhaseEncodingDirection": "j",
  "PhaseEncodingSteps": 104,
  "PhaseResolution": 1,
  "PixelBandwidth": 2290,
  "ProcedureStepDescription": "games^mario",
  "ProtocolName": "func_task-mario_run-01",
  "PulseSequenceDetails": "%CustomerSeq%\\cmrr_mbep2d_bold",
  "ReceiveCoilActiveElements": "HC1-7;NC1,2",
  "ReceiveCoilName": "HeadNeck_64",
  "ReconMatrixPE": 104,
  "RepetitionTime": 1.49,
  "SAR": 0.0705248,
  "ScanOptions": "FS",
  "ScanningSequence": "EP",
  "SequenceName": "epfid2d1_104",
  "SequenceVariant": "SK\\SS",
  "SeriesDescription": "func_task-mario_run-01",
  "SeriesNumber": 11,
  "ShimSetting": [616, -7248, -8834, 400, 24, -323, 6, 26],
  "SliceThickness": 2,
  "SliceTiming": [0, 0.7825, 0.0975, 0.8825, 0.195, 0.98, 0.295, 1.0775, 0.3925, 1.175, 0.49, 1.2725, 0.5875, 1.3725, 0.685, 0, 0.7825, 0.0975, 0.8825, 0.195, 0.98, 0.295, 1.0775, 0.3925, 1.175, 0.49, 1.2725, 0.5875, 1.3725, 0.685, 0, 0.7825, 0.0975, 0.8825, 0.195, 0.98, 0.295, 1.0775, 0.3925, 1.175, 0.49, 1.2725, 0.5875, 1.3725, 0.685, 0, 0.7825, 0.0975, 0.8825, 0.195, 0.98, 0.295, 1.0775, 0.3925, 1.175, 0.49, 1.2725, 0.5875, 1.3725, 0.685],
  "SoftwareVersions": "syngo MR E11",
  "SpacingBetweenSlices": 2,
  "StationName": "MRC35049",
  "TaskName": "mario",
  "TotalReadoutTime": 0.0576811,
  "TxRefAmp": 286.384,
  "WipMemBlock": "519adbf9-d5ff-450a-ab99-db22434f450f||Sequence: R017 ve11c/master r/75a17815+; Jun 28 2022 16:32:11 by eja",
  "dcmmeta_affine": [
    [-1.999508261680603, 0.04432770237326622, -0.0012553386623039842, 101.7541732788086],
    [0.041689276695251465, 1.8596887588500977, -0.7347241640090942, -63.976661682128906],
    [0.015117046423256397, 0.7345696687698364, 1.8601555824279785, -68.51203918457031],
    [0.0, 0.0, 0.0, 1.0]
],
  "dcmmeta_reorient_transform": [
    [0.0, -1.0, 0.0, 103.0],
    [1.0, 0.0, 0.0, 0.0],
    [0.0, 0.0, 1.0, 0.0],
    [0.0, 0.0, 0.0, 1.0]
],
  "dcmmeta_shape": [104, 104, 60, 436],
  "dcmmeta_slice_dim": 2,
  "dcmmeta_version": 0.6,
  "global": {
    "const": {
      "AcquisitionMatrix": [104, 0, 0, 104],
      "AngioFlag": "N",
      "BitsAllocated": 16,
      "BitsStored": 16,
      "BodyPartExamined": "BRAIN",
      "Columns": 832,
      "EchoNumbers": 1,
      "EchoTime": 37.0,
      "EchoTrainLength": 104,
      "FlipAngle": 52.0,
      "HighBit": 15,
      "ImageOrientationPatient": [0.99975415466118, -0.0208446387133, 0.00755852330984, 0.02216385049818, 0.92984439882182, -0.3672848454684],
      "ImagePositionPatient": [-850.27623254566, -789.32310924818, 269.02940445186],
      "ImageType": [
        "ORIGINAL",
        "PRIMARY",
        "P",
        "MB",
        "ND",
        "MOSAIC"
],
      "ImagedNucleus": "1H",
      "ImagingFrequency": 123.258773,
      "InPlanePhaseEncodingDirection": "COL",
      "LargestImagePixelValue": 4095,
      "MRAcquisitionType": "2D",
      "MagneticFieldStrength": 3.0,
      "Manufacturer": "SIEMENS",
      "ManufacturerModelName": "Prisma_fit",
      "Modality": "MR",
      "NumberOfAverages": 1.0,
      "NumberOfPhaseEncodingSteps": 104,
      "PercentPhaseFieldOfView": 100.0,
      "PercentSampling": 100.0,
      "PerformedProcedureStepStartTime": "170411.973000",
      "PhotometricInterpretation": "MONOCHROME2",
      "PixelBandwidth": 2290.0,
      "PixelRepresentation": 0,
      "PixelSpacing": [2.0, 2.0],
      "ProtocolName": "func_task-mario_run-01",
      "RepetitionTime": 1490.0,
      "RescaleIntercept": -4096.0,
      "RescaleSlope": 2.0,
      "RescaleType": "US",
      "Rows": 832,
      "SAR": 0.07052476275055,
      "SamplesPerPixel": 1,
      "ScanOptions": "FS",
      "ScanningSequence": "EP",
      "SequenceName": "epfid2d1_104",
      "SequenceVariant": [
        "SK",
        "SS"
],
      "SeriesDescription": "func_task-mario_run-01",
      "SeriesNumber": 11,
      "SeriesTime": "171500.171000",
      "SliceLocation": -40.2827923297,
      "SliceThickness": 2.0,
      "SmallestImagePixelValue": 0,
      "SoftwareVersions": "syngo MR E11",
      "SpacingBetweenSlices": 1.9999999721326,
      "SpecificCharacterSet": "ISO_IR 100",
      "StudyID": "1",
      "StudyTime": "170411.889000",
      "TransmitCoilName": "Body",
      "VariableFlipAngleFlag": "N",
      "WindowCenterWidthExplanation": "Algo1",
      "dBdt": 0.0},
    "slices": {}
  },
  "time": {
    "samples": {
      "AcquisitionNumber": [1, 2, 3, 4, 5, 6, 7, 8, 9, 10, 11, 12, 13, 14, 15, 16, 17, 18, 19, 20, 21, 22, 23, 24, 25, 26, 27, 28, 29, 30, 31, 32, 33, 34, 35, 36, 37, 38, 39, 40, 41, 42, 43, 44, 45, 46, 47, 48, 49, 50, 51, 52, 53, 54, 55, 56, 57, 58, 59, 60, 61, 62, 63, 64, 65, 66, 67, 68, 69, 70, 71, 72, 73, 74, 75, 76, 77, 78, 79, 80, 81, 82, 83, 84, 85, 86, 87, 88, 89, 90, 91, 92, 93, 94, 95, 96, 97, 98, 99, 100, 101, 102, 103, 104, 105, 106, 107, 108, 109, 110, 111, 112, 113, 114, 115, 116, 117, 118, 119, 120, 121, 122, 123, 124, 125, 126, 127, 128, 129, 130, 131, 132, 133, 134, 135, 136, 137, 138, 139, 140, 141, 142, 143, 144, 145, 146, 147, 148, 149, 150, 151, 152, 153, 154, 155, 156, 157, 158, 159, 160, 161, 162, 163, 164, 165, 166, 167, 168, 169, 170, 171, 172, 173, 174, 175, 176, 177, 178, 179, 180, 181, 182, 183, 184, 185, 186, 187, 188, 189, 190, 191, 192, 193, 194, 195, 196, 197, 198, 199, 200, 201, 202, 203, 204, 205, 206, 207, 208, 209, 210, 211, 212, 213, 214, 215, 216, 217, 218, 219, 220, 221, 222, 223, 224, 225, 226, 227, 228, 229, 230, 231, 232, 233, 234, 235, 236, 237, 238, 239, 240, 241, 242, 243, 244, 245, 246, 247, 248, 249, 250, 251, 252, 253, 254, 255, 256, 257, 258, 259, 260, 261, 262, 263, 264, 265, 266, 267, 268, 269, 270, 271, 272, 273, 274, 275, 276, 277, 278, 279, 280, 281, 282, 283, 284, 285, 286, 287, 288, 289, 290, 291, 292, 293, 294, 295, 296, 297, 298, 299, 300, 301, 302, 303, 304, 305, 306, 307, 308, 309, 310, 311, 312, 313, 314, 315, 316, 317, 318, 319, 320, 321, 322, 323, 324, 325, 326, 327, 328, 329, 330, 331, 332, 333, 334, 335, 336, 337, 338, 339, 340, 341, 342, 343, 344, 345, 346, 347, 348, 349, 350, 351, 352, 353, 354, 355, 356, 357, 358, 359, 360, 361, 362, 363, 364, 365, 366, 367, 368, 369, 370, 371, 372, 373, 374, 375, 376, 377, 378, 379, 380, 381, 382, 383, 384, 385, 386, 387, 388, 389, 390, 391, 392, 393, 394, 395, 396, 397, 398, 399, 400, 401, 402, 403, 404, 405, 406, 407, 408, 409, 410, 411, 412, 413, 414, 415, 416, 417, 418, 419, 420, 421, 422, 423, 424, 425, 426, 427, 428, 429, 430, 431, 432, 433, 434, 435, 436],
      "AcquisitionTime": ["171358.007500", "171359.497500", "171400.987500", "171402.477500", "171403.967500", "171405.457500", "171406.947500", "171408.437500", "171409.927500", "171411.417500", "171412.907500", "171414.397500", "171415.887500", "171417.377500", "171418.867500", "171420.357500", "171421.847500", "171423.337500", "171424.827500", "171426.317500", "171427.807500", "171429.297500", "171430.787500", "171432.277500", "171433.767500", "171435.257500", "171436.747500", "171438.237500", "171439.727500", "171441.217500", "171442.707500", "171444.197500", "171445.687500", "171447.177500", "171448.667500", "171450.157500", "171451.647500", "171453.137500", "171454.627500", "171456.117500", "171457.607500", "171459.097500", "171500.587500", "171502.077500", "171503.567500", "171505.057500", "171506.547500", "171508.037500", "171509.527500", "171511.017500", "171512.507500", "171513.997500", "171515.487500", "171516.977500", "171518.467500", "171519.957500", "171521.447500", "171522.937500", "171524.427500", "171525.917500", "171527.407500", "171528.897500", "171530.387500", "171531.877500", "171533.367500", "171534.857500", "171536.347500", "171537.837500", "171539.327500", "171540.817500", "171542.307500", "171543.797500", "171545.287500", "171546.777500", "171548.267500", "171549.757500", "171551.247500", "171552.737500", "171554.227500", "171555.717500", "171557.207500", "171558.697500", "171600.187500", "171601.677500", "171603.167500", "171604.657500", "171606.147500", "171607.637500", "171609.127500", "171610.617500", "171612.107500", "171613.597500", "171615.087500", "171616.577500", "171618.067500", "171619.557500", "171621.047500", "171622.537500", "171624.027500", "171625.517500", "171627.007500", "171628.497500", "171629.987500", "171631.477500", "171632.967500", "171634.457500", "171635.947500", "171637.437500", "171638.927500", "171640.417500", "171641.907500", "171643.397500", "171644.887500", "171646.377500", "171647.867500", "171649.357500", "171650.847500", "171652.337500", "171653.827500", "171655.317500", "171656.807500", "171658.297500", "171659.787500", "171701.277500", "171702.767500", "171704.257500", "171705.747500", "171707.237500", "171708.727500", "171710.217500", "171711.707500", "171713.197500", "171714.687500", "171716.177500", "171717.667500", "171719.157500", "171720.647500", "171722.137500", "171723.627500", "171725.117500", "171726.607500", "171728.097500", "171729.587500", "171731.077500", "171732.567500", "171734.057500", "171735.547500", "171737.037500", "171738.527500", "171740.017500", "171741.507500", "171742.997500", "171744.487500", "171745.977500", "171747.467500", "171748.957500", "171750.447500", "171751.937500", "171753.427500", "171754.917500", "171756.407500", "171757.897500", "171759.387500", "171800.877500", "171802.367500", "171803.857500", "171805.347500", "171806.837500", "171808.327500", "171809.817500", "171811.307500", "171812.797500", "171814.287500", "171815.777500", "171817.267500", "171818.757500", "171820.247500", "171821.737500", "171823.227500", "171824.717500", "171826.207500", "171827.697500", "171829.187500", "171830.677500", "171832.167500", "171833.657500", "171835.147500", "171836.637500", "171838.127500", "171839.617500", "171841.107500", "171842.597500", "171844.087500", "171845.577500", "171847.067500", "171848.557500", "171850.047500", "171851.537500", "171853.027500", "171854.517500", "171856.007500", "171857.497500", "171858.987500", "171900.477500", "171901.967500", "171903.457500", "171904.947500", "171906.437500", "171907.927500", "171909.417500", "171910.907500", "171912.397500", "171913.887500", "171915.377500", "171916.867500", "171918.357500", "171919.847500", "171921.337500", "171922.827500", "171924.317500", "171925.807500", "171927.297500", "171928.787500", "171930.277500", "171931.767500", "171933.257500", "171934.747500", "171936.237500", "171937.727500", "171939.217500", "171940.707500", "171942.197500", "171943.687500", "171945.177500", "171946.667500", "171948.157500", "171949.647500", "171951.137500", "171952.627500", "171954.117500", "171955.607500", "171957.097500", "171958.587500", "172000.077500", "172001.567500", "172003.057500", "172004.547500", "172006.037500", "172007.527500", "172009.017500", "172010.507500", "172011.997500", "172013.487500", "172014.977500", "172016.467500", "172017.957500", "172019.447500", "172020.937500", "172022.427500", "172023.917500", "172025.407500", "172026.897500", "172028.387500", "172029.877500", "172031.367500", "172032.857500", "172034.347500", "172035.837500", "172037.327500", "172038.817500", "172040.307500", "172041.797500", "172043.287500", "172044.777500", "172046.267500", "172047.757500", "172049.247500", "172050.737500", "172052.227500", "172053.717500", "172055.207500", "172056.697500", "172058.187500", "172059.677500", "172101.167500", "172102.657500", "172104.147500", "172105.637500", "172107.127500", "172108.617500", "172110.107500", "172111.597500", "172113.087500", "172114.577500", "172116.067500", "172117.557500", "172119.047500", "172120.537500", "172122.027500", "172123.517500", "172125.007500", "172126.497500", "172127.987500", "172129.477500", "172130.967500", "172132.457500", "172133.947500", "172135.437500", "172136.927500", "172138.417500", "172139.907500", "172141.397500", "172142.887500", "172144.377500", "172145.867500", "172147.357500", "172148.847500", "172150.337500", "172151.827500", "172153.317500", "172154.807500", "172156.297500", "172157.787500", "172159.277500", "172200.767500", "172202.257500", "172203.747500", "172205.237500", "172206.727500", "172208.217500", "172209.707500", "172211.197500", "172212.687500", "172214.177500", "172215.667500", "172217.157500", "172218.647500", "172220.137500", "172221.627500", "172223.117500", "172224.607500", "172226.097500", "172227.587500", "172229.077500", "172230.567500", "172232.057500", "172233.547500", "172235.037500", "172236.527500", "172238.017500", "172239.507500", "172240.997500", "172242.487500", "172243.977500", "172245.467500", "172246.957500", "172248.447500", "172249.937500", "172251.427500", "172252.917500", "172254.407500", "172255.897500", "172257.387500", "172258.877500", "172300.367500", "172301.857500", "172303.347500", "172304.837500", "172306.327500", "172307.817500", "172309.307500", "172310.797500", "172312.287500", "172313.777500", "172315.267500", "172316.757500", "172318.247500", "172319.737500", "172321.227500", "172322.717500", "172324.207500", "172325.697500", "172327.187500", "172328.677500", "172330.167500", "172331.657500", "172333.147500", "172334.637500", "172336.127500", "172337.617500", "172339.107500", "172340.597500", "172342.087500", "172343.577500", "172345.067500", "172346.557500", "172348.047500", "172349.537500", "172351.027500", "172352.517500", "172354.007500", "172355.497500", "172356.987500", "172358.477500", "172359.967500", "172401.457500", "172402.947500", "172404.437500", "172405.927500", "172407.417500", "172408.907500", "172410.397500", "172411.887500", "172413.377500", "172414.867500", "172416.357500", "172417.847500", "172419.337500", "172420.827500", "172422.317500", "172423.807500", "172425.297500", "172426.787500", "172428.277500", "172429.767500", "172431.257500", "172432.747500", "172434.237500", "172435.727500", "172437.217500", "172438.707500", "172440.197500", "172441.687500", "172443.177500", "172444.667500", "172446.157500"],
      "ContentTime": ["171500.173000", "171500.175000", "171500.178000", "171500.181000", "171500.183000", "171500.186000", "171500.188000", "171500.191000", "171500.200000", "171500.202000", "171520.187000", "171520.191000", "171520.194000", "171520.196000", "171520.199000", "171520.202000", "171520.204000", "171520.207000", "171520.209000", "171520.213000", "171520.215000", "171520.218000", "171520.220000", "171520.225000", "171520.228000", "171520.230000", "171520.233000", "171520.235000", "171520.238000", "171520.241000", "171520.243000", "171540.147000", "171540.150000", "171540.153000", "171540.155000", "171540.158000", "171540.160000", "171540.163000", "171540.173000", "171540.176000", "171540.178000", "171540.181000", "171540.183000", "171540.186000", "171540.188000", "171540.191000", "171540.193000", "171540.196000", "171540.204000", "171540.206000", "171540.209000", "171600.169000", "171600.177000", "171600.180000", "171600.183000", "171600.185000", "171600.188000", "171600.190000", "171600.193000", "171600.195000", "171600.198000", "171600.200000", "171600.203000", "171600.205000", "171600.208000", "171600.210000", "171600.213000", "171600.215000", "171600.218000", "171600.220000", "171600.223000", "171620.139000", "171620.142000", "171620.145000", "171620.147000", "171620.150000", "171620.152000", "171620.155000", "171620.157000", "171620.160000", "171620.163000", "171620.167000", "171620.169000", "171620.172000", "171620.174000", "171620.177000", "171620.180000", "171620.182000", "171620.185000", "171620.187000", "171620.190000", "171700.193000", "171700.196000", "171700.199000", "171700.201000", "171700.204000", "171700.206000", "171700.209000", "171700.212000", "171700.214000", "171700.217000", "171700.219000", "171700.222000", "171700.224000", "171700.227000", "171700.230000", "171700.232000", "171700.235000", "171700.237000", "171700.240000", "171700.242000", "171700.245000", "171700.248000", "171700.250000", "171700.253000", "171700.255000", "171700.258000", "171700.260000", "171700.263000", "171700.265000", "171700.268000", "171740.172000", "171740.180000", "171740.183000", "171740.185000", "171740.188000", "171740.191000", "171740.193000", "171740.196000", "171740.198000", "171740.201000", "171740.203000", "171740.206000", "171740.208000", "171740.211000", "171740.214000", "171740.216000", "171740.219000", "171740.221000", "171740.224000", "171740.226000", "171740.229000", "171740.232000", "171740.234000", "171740.237000", "171740.239000", "171740.242000", "171740.245000", "171820.643000", "171820.645000", "171820.648000", "171820.651000", "171820.653000", "171820.656000", "171820.659000", "171820.661000", "171820.664000", "171820.666000", "171820.669000", "171820.671000", "171820.674000", "171820.676000", "171820.679000", "171820.681000", "171820.684000", "171820.686000", "171820.689000", "171820.692000", "171820.694000", "171820.697000", "171820.699000", "171820.702000", "171820.704000", "171820.707000", "171820.710000", "171900.153000", "171900.156000", "171900.159000", "171900.161000", "171900.164000", "171900.166000", "171900.169000", "171900.171000", "171900.174000", "171900.177000", "171900.179000", "171900.182000", "171900.184000", "171900.187000", "171900.189000", "171900.192000", "171900.194000", "171900.197000", "171900.199000", "171900.202000", "171900.204000", "171900.207000", "171900.210000", "171900.212000", "171900.215000", "171900.217000", "171900.220000", "171940.155000", "171940.221000", "171940.223000", "171940.226000", "171940.229000", "171940.231000", "171940.234000", "171940.236000", "171940.239000", "171940.241000", "171940.244000", "171940.246000", "171940.249000", "171940.251000", "171940.254000", "171940.265000", "171940.267000", "171940.270000", "171940.272000", "171940.275000", "171940.278000", "171940.280000", "171940.283000", "171940.285000", "171940.288000", "171940.290000", "172020.164000", "172020.167000", "172020.170000", "172020.172000", "172020.175000", "172020.177000", "172020.180000", "172020.190000", "172020.192000", "172020.195000", "172020.198000", "172020.200000", "172020.203000", "172020.205000", "172020.208000", "172020.210000", "172020.219000", "172020.222000", "172020.224000", "172020.227000", "172020.229000", "172020.232000", "172020.234000", "172020.237000", "172020.239000", "172020.242000", "172020.244000", "172100.172000", "172100.175000", "172100.177000", "172100.180000", "172100.182000", "172100.185000", "172100.187000", "172100.190000", "172100.201000", "172100.204000", "172100.206000", "172100.209000", "172100.211000", "172100.214000", "172100.216000", "172100.219000", "172100.221000", "172100.224000", "172100.226000", "172100.229000", "172100.231000", "172100.234000", "172100.237000", "172100.239000", "172100.242000", "172100.244000", "172100.247000", "172140.157000", "172140.160000", "172140.163000", "172140.165000", "172140.168000", "172140.170000", "172140.173000", "172140.175000", "172140.178000", "172140.181000", "172140.183000", "172140.186000", "172140.188000", "172140.191000", "172140.193000", "172140.196000", "172140.198000", "172140.201000", "172140.203000", "172140.206000", "172140.209000", "172140.211000", "172140.214000", "172140.216000", "172140.223000", "172140.225000", "172140.228000", "172220.243000", "172220.246000", "172220.248000", "172220.251000", "172220.253000", "172220.256000", "172220.258000", "172220.261000", "172220.263000", "172220.266000", "172220.268000", "172220.271000", "172220.273000", "172220.276000", "172220.278000", "172220.281000", "172220.283000", "172220.286000", "172220.289000", "172220.291000", "172220.294000", "172220.296000", "172220.299000", "172220.301000", "172220.304000", "172220.306000", "172220.309000", "172300.220000", "172300.224000", "172300.227000", "172300.229000", "172300.232000", "172300.234000", "172300.237000", "172300.239000", "172300.242000", "172300.245000", "172300.247000", "172300.250000", "172300.252000", "172300.255000", "172300.258000", "172300.260000", "172300.263000", "172300.265000", "172300.268000", "172300.271000", "172300.273000", "172300.276000", "172300.278000", "172300.281000", "172300.283000", "172300.286000", "172300.288000", "172340.214000", "172340.217000", "172340.219000", "172340.222000", "172340.224000", "172340.227000", "172340.229000", "172340.232000", "172340.234000", "172340.237000", "172340.239000", "172340.247000", "172340.250000", "172340.252000", "172340.255000", "172340.257000", "172340.260000", "172340.262000", "172340.265000", "172340.267000", "172340.270000", "172340.273000", "172340.275000", "172340.278000", "172340.280000", "172340.283000", "172340.285000", "172420.184000", "172420.187000", "172420.189000", "172420.192000", "172420.195000", "172420.197000", "172420.200000", "172420.202000", "172420.205000", "172420.207000", "172420.210000", "172420.212000", "172420.215000", "172420.218000", "172420.220000", "172420.223000", "172420.225000", "172420.228000", "172420.230000", "172420.233000", "172420.235000", "172420.238000", "172420.240000", "172420.243000", "172420.245000", "172420.248000", "172449.891000", "172449.894000", "172449.896000", "172449.899000", "172449.901000", "172449.904000", "172449.906000", "172449.909000", "172449.912000", "172449.914000", "172449.917000", "172449.919000", "172449.922000", "172449.924000", "172449.927000", "172449.929000", "172449.932000", "172449.934000", "172449.937000", "172449.939000"],
