{
  "AcquisitionMatrixPE": 104,
  "AcquisitionNumber": 1,
  "AcquisitionTime": "17:13:58.007500",
  "BandwidthPerPixelPhaseEncode": 17.17,
  "BaseResolution": 104,
  "BodyPartExamined": "BRAIN",
  "CoilCombinationMethod": "Sum of Squares",
  "ConsistencyInfo": "N4_VE11C_LATEST_20160120",
  "ConversionSoftware": "dcm2niix",
  "ConversionSoftwareVersion": "v1.0.20211006",
  "DerivedVendorReportedEchoSpacing": 0.000560011,
  "DeviceSerialNumber": "167006",
  "DwellTime": 2.1e-06,
  "EchoTime": 0.037,
  "EchoTrainLength": 104,
  "EffectiveEchoSpacing": 0.000560011,
  "FlipAngle": 52,
  "HeudiconvVersion": "0.11.3.post9+gc939bf8",
  "ImageComments": "Unaliased MB4/PE3/LB",
  "ImageOrientationPatientDICOM": [0.999754, -0.0208446, 0.00755852, 0.0221639, 0.929844, -0.367285],
  "ImageOrientationText": "Tra>Cor(-21.6)>Sag(-0.0)",
  "ImageType": [
    "ORIGINAL",
    "PRIMARY",
    "M",
    "MB",
    "ND",
    "MOSAIC"
],
  "ImagingFrequency": 123.259,
  "InPlanePhaseEncodingDirectionDICOM": "COL",
  "InstitutionAddress": "Chemin Queen-Mary 4565,Montreal,District,CA,H3W 1W5",
  "InstitutionName": "IUGM",
  "InstitutionalDepartmentName": "Department",
  "MRAcquisitionType": "2D",
  "MagneticFieldStrength": 3,
  "Manufacturer": "Siemens",
  "ManufacturersModelName": "Prisma_fit",
  "MatrixCoilMode": "SENSE",
  "Modality": "MR",
  "MultibandAccelerationFactor": 4,
  "PartialFourier": 1,
  "PatientPosition": "HFS",
  "PercentPhaseFOV": 100,
  "PercentSampling": 100,
  "PhaseEncodingDirection": "j",
  "PhaseEncodingSteps": 104,
  "PhaseResolution": 1,
  "PixelBandwidth": 2290,
  "ProcedureStepDescription": "games^mario",
  "ProtocolName": "func_task-mario_run-01",
  "PulseSequenceDetails": "%CustomerSeq%\\cmrr_mbep2d_bold",
  "ReceiveCoilActiveElements": "HC1-7;NC1,2",
  "ReceiveCoilName": "HeadNeck_64",
  "ReconMatrixPE": 104,
  "RepetitionTime": 1.49,
  "SAR": 0.0705248,
  "ScanOptions": "FS",
  "ScanningSequence": "EP",
  "SequenceName": "epfid2d1_104",
  "SequenceVariant": "SK\\SS",
  "SeriesDescription": "func_task-mario_run-01",
  "SeriesNumber": 10,
  "ShimSetting": [616, -7248, -8834, 400, 24, -323, 6, 26],
  "SliceThickness": 2,
  "SliceTiming": [0, 0.7825, 0.0975, 0.8825, 0.195, 0.98, 0.295, 1.0775, 0.3925, 1.175, 0.49, 1.2725, 0.5875, 1.3725, 0.685, 0, 0.7825, 0.0975, 0.8825, 0.195, 0.98, 0.295, 1.0775, 0.3925, 1.175, 0.49, 1.2725, 0.5875, 1.3725, 0.685, 0, 0.7825, 0.0975, 0.8825, 0.195, 0.98, 0.295, 1.0775, 0.3925, 1.175, 0.49, 1.2725, 0.5875, 1.3725, 0.685, 0, 0.7825, 0.0975, 0.8825, 0.195, 0.98, 0.295, 1.0775, 0.3925, 1.175, 0.49, 1.2725, 0.5875, 1.3725, 0.685],
  "SoftwareVersions": "syngo MR E11",
  "SpacingBetweenSlices": 2,
  "StationName": "MRC35049",
  "TaskName": "mario",
  "TotalReadoutTime": 0.0576811,
  "TxRefAmp": 286.384,
  "WipMemBlock": "519adbf9-d5ff-450a-ab99-db22434f450f||Sequence: R017 ve11c/master r/75a17815+; Jun 28 2022 16:32:11 by eja",
  "dcmmeta_affine": [
    [-1.999508261680603, 0.04432770237326622, -0.0012553386623039842, 101.7541732788086],
    [0.041689276695251465, 1.8596887588500977, -0.7347241640090942, -63.976661682128906],
    [0.015117046423256397, 0.7345696687698364, 1.8601555824279785, -68.51203918457031],
    [0.0, 0.0, 0.0, 1.0]
],
  "dcmmeta_reorient_transform": [
    [0.0, -1.0, 0.0, 103.0],
    [1.0, 0.0, 0.0, 0.0],
    [0.0, 0.0, 1.0, 0.0],
    [0.0, 0.0, 0.0, 1.0]
],
  "dcmmeta_shape": [104, 104, 60, 436],
  "dcmmeta_slice_dim": 2,
  "dcmmeta_version": 0.6,
  "global": {
    "const": {
      "AcquisitionMatrix": [104, 0, 0, 104],
      "AngioFlag": "N",
      "BitsAllocated": 16,
      "BitsStored": 16,
      "BodyPartExamined": "BRAIN",
      "Columns": 832,
      "EchoNumbers": 1,
      "EchoTime": 37.0,
      "EchoTrainLength": 104,
      "FlipAngle": 52.0,
      "HighBit": 15,
      "ImageOrientationPatient": [0.99975415466118, -0.0208446387133, 0.00755852330984, 0.02216385049818, 0.92984439882182, -0.3672848454684],
      "ImagePositionPatient": [-850.27623254566, -789.32310924818, 269.02940445186],
      "ImageType": [
        "ORIGINAL",
        "PRIMARY",
        "M",
        "MB",
        "ND",
        "MOSAIC"
],
      "ImagedNucleus": "1H",
      "ImagingFrequency": 123.258773,
      "InPlanePhaseEncodingDirection": "COL",
      "MRAcquisitionType": "2D",
      "MagneticFieldStrength": 3.0,
      "Manufacturer": "SIEMENS",
      "ManufacturerModelName": "Prisma_fit",
      "Modality": "MR",
      "NumberOfAverages": 1.0,
      "NumberOfPhaseEncodingSteps": 104,
      "PercentPhaseFieldOfView": 100.0,
      "PercentSampling": 100.0,
      "PerformedProcedureStepStartTime": "170411.973000",
      "PhotometricInterpretation": "MONOCHROME2",
      "PixelBandwidth": 2290.0,
      "PixelRepresentation": 0,
      "PixelSpacing": [2.0, 2.0],
      "ProtocolName": "func_task-mario_run-01",
      "RepetitionTime": 1490.0,
      "Rows": 832,
      "SAR": 0.07052476275055,
      "SamplesPerPixel": 1,
      "ScanOptions": "FS",
      "ScanningSequence": "EP",
      "SequenceName": "epfid2d1_104",
      "SequenceVariant": [
        "SK",
        "SS"
],
      "SeriesDescription": "func_task-mario_run-01",
      "SeriesNumber": 10,
      "SeriesTime": "171500.079000",
      "SliceLocation": -40.2827923297,
      "SliceThickness": 2.0,
      "SmallestImagePixelValue": 0,
      "SoftwareVersions": "syngo MR E11",
      "SpacingBetweenSlices": 1.9999999721326,
      "SpecificCharacterSet": "ISO_IR 100",
      "StudyID": "1",
      "StudyTime": "170411.889000",
      "TransmitCoilName": "Body",
      "VariableFlipAngleFlag": "N",
      "WindowCenterWidthExplanation": "Algo1",
      "dBdt": 0.0},
    "slices": {}
  },
  "time": {
    "samples": {
      "AcquisitionNumber": [1, 2, 3, 4, 5, 6, 7, 8, 9, 10, 11, 12, 13, 14, 15, 16, 17, 18, 19, 20, 21, 22, 23, 24, 25, 26, 27, 28, 29, 30, 31, 32, 33, 34, 35, 36, 37, 38, 39, 40, 41, 42, 43, 44, 45, 46, 47, 48, 49, 50, 51, 52, 53, 54, 55, 56, 57, 58, 59, 60, 61, 62, 63, 64, 65, 66, 67, 68, 69, 70, 71, 72, 73, 74, 75, 76, 77, 78, 79, 80, 81, 82, 83, 84, 85, 86, 87, 88, 89, 90, 91, 92, 93, 94, 95, 96, 97, 98, 99, 100, 101, 102, 103, 104, 105, 106, 107, 108, 109, 110, 111, 112, 113, 114, 115, 116, 117, 118, 119, 120, 121, 122, 123, 124, 125, 126, 127, 128, 129, 130, 131, 132, 133, 134, 135, 136, 137, 138, 139, 140, 141, 142, 143, 144, 145, 146, 147, 148, 149, 150, 151, 152, 153, 154, 155, 156, 157, 158, 159, 160, 161, 162, 163, 164, 165, 166, 167, 168, 169, 170, 171, 172, 173, 174, 175, 176, 177, 178, 179, 180, 181, 182, 183, 184, 185, 186, 187, 188, 189, 190, 191, 192, 193, 194, 195, 196, 197, 198, 199, 200, 201, 202, 203, 204, 205, 206, 207, 208, 209, 210, 211, 212, 213, 214, 215, 216, 217, 218, 219, 220, 221, 222, 223, 224, 225, 226, 227, 228, 229, 230, 231, 232, 233, 234, 235, 236, 237, 238, 239, 240, 241, 242, 243, 244, 245, 246, 247, 248, 249, 250, 251, 252, 253, 254, 255, 256, 257, 258, 259, 260, 261, 262, 263, 264, 265, 266, 267, 268, 269, 270, 271, 272, 273, 274, 275, 276, 277, 278, 279, 280, 281, 282, 283, 284, 285, 286, 287, 288, 289, 290, 291, 292, 293, 294, 295, 296, 297, 298, 299, 300, 301, 302, 303, 304, 305, 306, 307, 308, 309, 310, 311, 312, 313, 314, 315, 316, 317, 318, 319, 320, 321, 322, 323, 324, 325, 326, 327, 328, 329, 330, 331, 332, 333, 334, 335, 336, 337, 338, 339, 340, 341, 342, 343, 344, 345, 346, 347, 348, 349, 350, 351, 352, 353, 354, 355, 356, 357, 358, 359, 360, 361, 362, 363, 364, 365, 366, 367, 368, 369, 370, 371, 372, 373, 374, 375, 376, 377, 378, 379, 380, 381, 382, 383, 384, 385, 386, 387, 388, 389, 390, 391, 392, 393, 394, 395, 396, 397, 398, 399, 400, 401, 402, 403, 404, 405, 406, 407, 408, 409, 410, 411, 412, 413, 414, 415, 416, 417, 418, 419, 420, 421, 422, 423, 424, 425, 426, 427, 428, 429, 430, 431, 432, 433, 434, 435, 436],
      "AcquisitionTime": ["171358.007500", "171359.497500", "171400.987500", "171402.477500", "171403.967500", "171405.457500", "171406.947500", "171408.437500", "171409.927500", "171411.417500", "171412.907500", "171414.397500", "171415.887500", "171417.377500", "171418.867500", "171420.357500", "171421.847500", "171423.337500", "171424.827500", "171426.317500", "171427.807500", "171429.297500", "171430.787500", "171432.277500", "171433.767500", "171435.257500", "171436.747500", "171438.237500", "171439.727500", "171441.217500", "171442.707500", "171444.197500", "171445.687500", "171447.177500", "171448.667500", "171450.157500", "171451.647500", "171453.137500", "171454.627500", "171456.117500", "171457.607500", "171459.097500", "171500.587500", "171502.077500", "171503.567500", "171505.057500", "171506.547500", "171508.037500", "171509.527500", "171511.017500", "171512.507500", "171513.997500", "171515.487500", "171516.977500", "171518.467500", "171519.957500", "171521.447500", "171522.937500", "171524.427500", "171525.917500", "171527.407500", "171528.897500", "171530.387500", "171531.877500", "171533.367500", "171534.857500", "171536.347500", "171537.837500", "171539.327500", "171540.817500", "171542.307500", "171543.797500", "171545.287500", "171546.777500", "171548.267500", "171549.757500", "171551.247500", "171552.737500", "171554.227500", "171555.717500", "171557.207500", "171558.697500", "171600.187500", "171601.677500", "171603.167500", "171604.657500", "171606.147500", "171607.637500", "171609.127500", "171610.617500", "171612.107500", "171613.597500", "171615.087500", "171616.577500", "171618.067500", "171619.557500", "171621.047500", "171622.537500", "171624.027500", "171625.517500", "171627.007500", "171628.497500", "171629.987500", "171631.477500", "171632.967500", "171634.457500", "171635.947500", "171637.437500", "171638.927500", "171640.417500", "171641.907500", "171643.397500", "171644.887500", "171646.377500", "171647.867500", "171649.357500", "171650.847500", "171652.337500", "171653.827500", "171655.317500", "171656.807500", "171658.297500", "171659.787500", "171701.277500", "171702.767500", "171704.257500", "171705.747500", "171707.237500", "171708.727500", "171710.217500", "171711.707500", "171713.197500", "171714.687500", "171716.177500", "171717.667500", "171719.157500", "171720.647500", "171722.137500", "171723.627500", "171725.117500", "171726.607500", "171728.097500", "171729.587500", "171731.077500", "171732.567500", "171734.057500", "171735.547500", "171737.037500", "171738.527500", "171740.017500", "171741.507500", "171742.997500", "171744.487500", "171745.977500", "171747.467500", "171748.957500", "171750.447500", "171751.937500", "171753.427500", "171754.917500", "171756.407500", "171757.897500", "171759.387500", "171800.877500", "171802.367500", "171803.857500", "171805.347500", "171806.837500", "171808.327500", "171809.817500", "171811.307500", "171812.797500", "171814.287500", "171815.777500", "171817.267500", "171818.757500", "171820.247500", "171821.737500", "171823.227500", "171824.717500", "171826.207500", "171827.697500", "171829.187500", "171830.677500", "171832.167500", "171833.657500", "171835.147500", "171836.637500", "171838.127500", "171839.617500", "171841.107500", "171842.597500", "171844.087500", "171845.577500", "171847.067500", "171848.557500", "171850.047500", "171851.537500", "171853.027500", "171854.517500", "171856.007500", "171857.497500", "171858.987500", "171900.477500", "171901.967500", "171903.457500", "171904.947500", "171906.437500", "171907.927500", "171909.417500", "171910.907500", "171912.397500", "171913.887500", "171915.377500", "171916.867500", "171918.357500", "171919.847500", "171921.337500", "171922.827500", "171924.317500", "171925.807500", "171927.297500", "171928.787500", "171930.277500", "171931.767500", "171933.257500", "171934.747500", "171936.237500", "171937.727500", "171939.217500", "171940.707500", "171942.197500", "171943.687500", "171945.177500", "171946.667500", "171948.157500", "171949.647500", "171951.137500", "171952.627500", "171954.117500", "171955.607500", "171957.097500", "171958.587500", "172000.077500", "172001.567500", "172003.057500", "172004.547500", "172006.037500", "172007.527500", "172009.017500", "172010.507500", "172011.997500", "172013.487500", "172014.977500", "172016.467500", "172017.957500", "172019.447500", "172020.937500", "172022.427500", "172023.917500", "172025.407500", "172026.897500", "172028.387500", "172029.877500", "172031.367500", "172032.857500", "172034.347500", "172035.837500", "172037.327500", "172038.817500", "172040.307500", "172041.797500", "172043.287500", "172044.777500", "172046.267500", "172047.757500", "172049.247500", "172050.737500", "172052.227500", "172053.717500", "172055.207500", "172056.697500", "172058.187500", "172059.677500", "172101.167500", "172102.657500", "172104.147500", "172105.637500", "172107.127500", "172108.617500", "172110.107500", "172111.597500", "172113.087500", "172114.577500", "172116.067500", "172117.557500", "172119.047500", "172120.537500", "172122.027500", "172123.517500", "172125.007500", "172126.497500", "172127.987500", "172129.477500", "172130.967500", "172132.457500", "172133.947500", "172135.437500", "172136.927500", "172138.417500", "172139.907500", "172141.397500", "172142.887500", "172144.377500", "172145.867500", "172147.357500", "172148.847500", "172150.337500", "172151.827500", "172153.317500", "172154.807500", "172156.297500", "172157.787500", "172159.277500", "172200.767500", "172202.257500", "172203.747500", "172205.237500", "172206.727500", "172208.217500", "172209.707500", "172211.197500", "172212.687500", "172214.177500", "172215.667500", "172217.157500", "172218.647500", "172220.137500", "172221.627500", "172223.117500", "172224.607500", "172226.097500", "172227.587500", "172229.077500", "172230.567500", "172232.057500", "172233.547500", "172235.037500", "172236.527500", "172238.017500", "172239.507500", "172240.997500", "172242.487500", "172243.977500", "172245.467500", "172246.957500", "172248.447500", "172249.937500", "172251.427500", "172252.917500", "172254.407500", "172255.897500", "172257.387500", "172258.877500", "172300.367500", "172301.857500", "172303.347500", "172304.837500", "172306.327500", "172307.817500", "172309.307500", "172310.797500", "172312.287500", "172313.777500", "172315.267500", "172316.757500", "172318.247500", "172319.737500", "172321.227500", "172322.717500", "172324.207500", "172325.697500", "172327.187500", "172328.677500", "172330.167500", "172331.657500", "172333.147500", "172334.637500", "172336.127500", "172337.617500", "172339.107500", "172340.597500", "172342.087500", "172343.577500", "172345.067500", "172346.557500", "172348.047500", "172349.537500", "172351.027500", "172352.517500", "172354.007500", "172355.497500", "172356.987500", "172358.477500", "172359.967500", "172401.457500", "172402.947500", "172404.437500", "172405.927500", "172407.417500", "172408.907500", "172410.397500", "172411.887500", "172413.377500", "172414.867500", "172416.357500", "172417.847500", "172419.337500", "172420.827500", "172422.317500", "172423.807500", "172425.297500", "172426.787500", "172428.277500", "172429.767500", "172431.257500", "172432.747500", "172434.237500", "172435.727500", "172437.217500", "172438.707500", "172440.197500", "172441.687500", "172443.177500", "172444.667500", "172446.157500"],
      "ContentTime": ["171500.082000", "171500.085000", "171500.089000", "171500.095000", "171500.098000", "171500.102000", "171500.105000", "171500.108000", "171500.117000", "171500.120000", "171500.124000", "171520.021000", "171520.025000", "171520.028000", "171520.032000", "171520.035000", "171520.038000", "171520.042000", "171520.045000", "171520.048000", "171520.052000", "171520.055000", "171520.058000", "171520.062000", "171520.065000", "171520.068000", "171520.072000", "171520.075000", "171520.127000", "171520.130000", "171520.134000", "171540.023000", "171540.033000", "171540.037000", "171540.040000", "171540.043000", "171540.047000", "171540.050000", "171540.053000", "171540.057000", "171540.060000", "171540.063000", "171540.067000", "171540.070000", "171540.074000", "171540.077000", "171540.080000", "171540.084000", "171540.087000", "171540.091000", "171540.094000", "171600.022000", "171600.043000", "171600.047000", "171600.050000", "171600.054000", "171600.057000", "171600.060000", "171600.064000", "171600.067000", "171600.071000", "171600.074000", "171600.077000", "171600.081000", "171600.084000", "171600.087000", "171600.092000", "171600.103000", "171600.107000", "171600.110000", "171600.113000", "171620.022000", "171620.026000", "171620.029000", "171620.033000", "171620.036000", "171620.040000", "171620.043000", "171620.046000", "171620.050000", "171620.053000", "171620.057000", "171620.060000", "171620.063000", "171620.067000", "171620.070000", "171620.074000", "171620.077000", "171620.080000", "171620.084000", "171620.087000", "171700.021000", "171700.025000", "171700.028000", "171700.032000", "171700.035000", "171700.038000", "171700.042000", "171700.046000", "171700.049000", "171700.052000", "171700.056000", "171700.059000", "171700.062000", "171700.066000", "171700.075000", "171700.079000", "171700.082000", "171700.086000", "171700.089000", "171700.092000", "171700.096000", "171700.099000", "171700.102000", "171700.110000", "171700.114000", "171700.117000", "171700.120000", "171700.124000", "171700.127000", "171700.131000", "171740.021000", "171740.025000", "171740.028000", "171740.032000", "171740.035000", "171740.038000", "171740.042000", "171740.045000", "171740.049000", "171740.052000", "171740.055000", "171740.059000", "171740.062000", "171740.066000", "171740.069000", "171740.081000", "171740.084000", "171740.088000", "171740.091000", "171740.094000", "171740.098000", "171740.101000", "171740.104000", "171740.108000", "171740.111000", "171740.115000", "171740.118000", "171820.022000", "171820.026000", "171820.029000", "171820.033000", "171820.036000", "171820.039000", "171820.043000", "171820.046000", "171820.049000", "171820.053000", "171820.056000", "171820.060000", "171820.076000", "171820.079000", "171820.083000", "171820.086000", "171820.089000", "171820.093000", "171820.096000", "171820.099000", "171820.103000", "171820.106000", "171820.109000", "171820.113000", "171820.116000", "171820.120000", "171820.123000", "171900.021000", "171900.025000", "171900.029000", "171900.032000", "171900.036000", "171900.039000", "171900.042000", "171900.046000", "171900.049000", "171900.053000", "171900.056000", "171900.059000", "171900.063000", "171900.066000", "171900.069000", "171900.073000", "171900.076000", "171900.080000", "171900.083000", "171900.086000", "171900.090000", "171900.093000", "171900.097000", "171900.100000", "171900.103000", "171900.107000", "171900.110000", "171940.021000", "171940.025000", "171940.028000", "171940.032000", "171940.035000", "171940.039000", "171940.043000", "171940.046000", "171940.049000", "171940.053000", "171940.056000", "171940.060000", "171940.063000", "171940.066000", "171940.070000", "171940.073000", "171940.076000", "171940.080000", "171940.083000", "171940.087000", "171940.090000", "171940.093000", "171940.097000", "171940.100000", "171940.103000", "171940.107000", "172020.022000", "172020.026000", "172020.029000", "172020.033000", "172020.036000", "172020.039000", "172020.043000", "172020.046000", "172020.050000", "172020.053000", "172020.056000", "172020.060000", "172020.063000", "172020.066000", "172020.070000", "172020.073000", "172020.076000", "172020.080000", "172020.083000", "172020.087000", "172020.090000", "172020.093000", "172020.097000", "172020.100000", "172020.103000", "172020.107000", "172020.110000", "172100.022000", "172100.026000", "172100.029000", "172100.033000", "172100.036000", "172100.039000", "172100.043000", "172100.046000", "172100.050000", "172100.053000", "172100.056000", "172100.060000", "172100.063000", "172100.067000", "172100.070000", "172100.073000", "172100.076000", "172100.080000", "172100.083000", "172100.087000", "172100.090000", "172100.093000", "172100.097000", "172100.100000", "172100.103000", "172100.107000", "172100.110000", "172140.021000", "172140.025000", "172140.028000", "172140.032000", "172140.035000", "172140.039000", "172140.042000", "172140.046000", "172140.049000", "172140.052000", "172140.055000", "172140.059000", "172140.062000", "172140.066000", "172140.069000", "172140.072000", "172140.076000", "172140.079000", "172140.082000", "172140.086000", "172140.089000", "172140.093000", "172140.096000", "172140.099000", "172140.103000", "172140.106000", "172140.109000", "172220.022000", "172220.026000", "172220.029000", "172220.033000", "172220.036000", "172220.040000", "172220.043000", "172220.054000", "172220.057000", "172220.061000", "172220.064000", "172220.067000", "172220.071000", "172220.074000", "172220.078000", "172220.081000", "172220.084000", "172220.088000", "172220.091000", "172220.095000", "172220.098000", "172220.101000", "172220.105000", "172220.108000", "172220.111000", "172220.115000", "172220.118000", "172300.022000", "172300.026000", "172300.029000", "172300.033000", "172300.036000", "172300.039000", "172300.043000", "172300.046000", "172300.055000", "172300.059000", "172300.062000", "172300.075000", "172300.078000", "172300.082000", "172300.085000", "172300.088000", "172300.092000", "172300.095000", "172300.098000", "172300.102000", "172300.105000", "172300.116000", "172300.119000", "172300.123000", "172300.126000", "172300.130000", "172300.133000", "172340.021000", "172340.025000", "172340.028000", "172340.032000", "172340.035000", "172340.039000", "172340.042000", "172340.045000", "172340.049000", "172340.052000", "172340.055000", "172340.059000", "172340.062000", "172340.065000", "172340.069000", "172340.072000", "172340.075000", "172340.079000", "172340.082000", "172340.086000", "172340.089000", "172340.093000", "172340.096000", "172340.099000", "172340.104000", "172340.111000", "172340.114000", "172420.022000", "172420.026000", "172420.029000", "172420.033000", "172420.036000", "172420.040000", "172420.043000", "172420.046000", "172420.050000", "172420.053000", "172420.056000", "172420.060000", "172420.063000", "172420.067000", "172420.070000", "172420.073000", "172420.077000", "172420.080000", "172420.092000", "172420.095000", "172420.098000", "172420.102000", "172420.105000", "172420.109000", "172420.112000", "172420.115000", "172449.780000", "172449.784000", "172449.787000", "172449.791000", "172449.794000", "172449.798000", "172449.801000", "172449.804000", "172449.808000", "172449.811000", "172449.815000", "172449.818000", "172449.821000", "172449.825000", "172449.828000", "172449.831000", "172449.835000", "172449.838000", "172449.842000", "172449.845000"],
