{
  "AcquisitionMatrixPE": 104,
  "AcquisitionNumber": 1,
  "AcquisitionTime": "13:52:22.635000",
  "BandwidthPerPixelPhaseEncode": 17.17,
  "BaseResolution": 104,
  "BodyPartExamined": "BRAIN",
  "CoilCombinationMethod": "Sum of Squares",
  "ConsistencyInfo": "N4_VE11C_LATEST_20160120",
  "ConversionSoftware": "dcm2niix",
  "ConversionSoftwareVersion": "v1.0.20211006",
  "DerivedVendorReportedEchoSpacing": 0.000560011,
  "DeviceSerialNumber": "167006",
  "DwellTime": 2.1e-06,
  "EchoTime": 0.037,
  "EchoTime1": 0.037,
  "EchoTime2": 0.001,
  "EchoTrainLength": 104,
  "EffectiveEchoSpacing": 0.000560011,
  "FlipAngle": 52,
  "HeudiconvVersion": "0.10.0",
  "ImageComments": "Unaliased MB4/PE3/LB",
  "ImageOrientationPatientDICOM": [0.998876, -0.00292515, 0.0473179, 0.0139478, 0.972053, -0.234346],
  "ImageOrientationText": "Tra>Cor(-13.6)>Sag(2.6)",
  "ImageType": [
    "ORIGINAL",
    "PRIMARY",
    "P",
    "MB",
    "ND",
    "MOSAIC",
    "PHASE"
],
  "ImagingFrequency": 123.259,
  "InPlanePhaseEncodingDirectionDICOM": "COL",
  "InstitutionAddress": "Chemin Queen-Mary 4565,Montreal,District,CA,H3W 1W5",
  "InstitutionName": "IUGM",
  "InstitutionalDepartmentName": "Department",
  "MRAcquisitionType": "2D",
  "MagneticFieldStrength": 3,
  "Manufacturer": "Siemens",
  "ManufacturersModelName": "Prisma_fit",
  "MatrixCoilMode": "SENSE",
  "Modality": "MR",
  "MultibandAccelerationFactor": 4,
  "PartialFourier": 1,
  "PatientPosition": "HFS",
  "PercentPhaseFOV": 100,
  "PercentSampling": 100,
  "PhaseEncodingDirection": "j",
  "PhaseEncodingSteps": 104,
  "PhaseResolution": 1,
  "PixelBandwidth": 2290,
  "ProcedureStepDescription": "games^mario",
  "ProtocolName": "func_task-mario_run-01",
  "PulseSequenceDetails": "%CustomerSeq%\\cmrr_mbep2d_bold",
  "ReceiveCoilActiveElements": "HC1-7;NC1,2",
  "ReceiveCoilName": "HeadNeck_64",
  "ReconMatrixPE": 104,
  "RepetitionTime": 1.49,
  "SAR": 0.0386554,
  "ScanOptions": "FS",
  "ScanningSequence": "EP",
  "SequenceName": "epfid2d1_104",
  "SequenceVariant": "SK\\SS",
  "SeriesDescription": "func_task-mario_run-01",
  "SeriesNumber": 11,
  "ShimSetting": [650, -7210, -8822, 696, 50, -1, 55, 8],
  "SliceThickness": 2,
  "SliceTiming": [0, 0.785, 0.0975, 0.8825, 0.195, 0.98, 0.295, 1.0775, 0.3925, 1.175, 0.49, 1.275, 0.5875, 1.3725, 0.685, 0, 0.785, 0.0975, 0.8825, 0.195, 0.98, 0.295, 1.0775, 0.3925, 1.175, 0.49, 1.275, 0.5875, 1.3725, 0.685, 0, 0.785, 0.0975, 0.8825, 0.195, 0.98, 0.295, 1.0775, 0.3925, 1.175, 0.49, 1.275, 0.5875, 1.3725, 0.685, 0, 0.785, 0.0975, 0.8825, 0.195, 0.98, 0.295, 1.0775, 0.3925, 1.175, 0.49, 1.275, 0.5875, 1.3725, 0.685],
  "SoftwareVersions": "syngo MR E11",
  "SpacingBetweenSlices": 2,
  "StationName": "MRC35049",
  "TaskName": "mario",
  "TotalReadoutTime": 0.0576811,
  "TxRefAmp": 219.561,
  "WipMemBlock": "914e9741-8341-4157-807e-6ea1873a469a||Sequence: R016 ve11c/master r/e634e98; Dec 19 2017 11:00:25 by eja",
  "dcmmeta_affine": [
    [-1.997751235961914, 0.027895664796233177, 0.09062003344297409, 105.26321411132812],
    [0.005850307177752256, 1.9441065788269043, -0.4694843292236328, -75.77754211425781],
    [0.09463579207658768, 0.4686913788318634, 1.9420021772384644, -71.5615234375],
    [0.0, 0.0, 0.0, 1.0]
],
  "dcmmeta_reorient_transform": [
    [0.0, -1.0, 0.0, 103.0],
    [1.0, 0.0, 0.0, 0.0],
    [0.0, 0.0, 1.0, 0.0],
    [0.0, 0.0, 0.0, 1.0]
],
  "dcmmeta_shape": [104, 104, 60, 368],
  "dcmmeta_slice_dim": 2,
  "dcmmeta_version": 0.6,
  "global": {
    "const": {
      "AcquisitionMatrix": [104, 0, 0, 104],
      "AngioFlag": "N",
      "BitsAllocated": 16,
      "BitsStored": 16,
      "BodyPartExamined": "BRAIN",
      "Columns": 832,
      "EchoNumbers": 1,
      "EchoTime": 37.0,
      "EchoTrainLength": 104,
      "FlipAngle": 52.0,
      "HighBit": 15,
      "ImageOrientationPatient": [0.99887559798029, -0.002925153511, 0.04731789552019, 0.01394783251107, 0.97205326973895, -0.2343456821835],
      "ImagePositionPatient": [-845.47192248073, -829.99069820092, 112.86991299852],
      "ImageType": [
        "ORIGINAL",
        "PRIMARY",
        "P",
        "MB",
        "ND",
        "MOSAIC"
],
      "ImagedNucleus": "1H",
      "ImagingFrequency": 123.2589,
      "InPlanePhaseEncodingDirection": "COL",
      "LargestImagePixelValue": 4095,
      "MRAcquisitionType": "2D",
      "MagneticFieldStrength": 3.0,
      "Manufacturer": "SIEMENS",
      "ManufacturerModelName": "Prisma_fit",
      "Modality": "MR",
      "NumberOfAverages": 1.0,
      "NumberOfPhaseEncodingSteps": 104,
      "PercentPhaseFieldOfView": 100.0,
      "PercentSampling": 100.0,
      "PerformedProcedureStepStartTime": "122508.337000",
      "PhotometricInterpretation": "MONOCHROME2",
      "PixelBandwidth": 2290.0,
      "PixelRepresentation": 0,
      "PixelSpacing": [2.0, 2.0],
      "ProtocolName": "func_task-mario_run-01",
      "RepetitionTime": 1490.0,
      "RescaleIntercept": -4096.0,
      "RescaleSlope": 2.0,
      "RescaleType": "US",
      "Rows": 832,
      "SAR": 0.03865537773094,
      "SamplesPerPixel": 1,
      "ScanOptions": "FS",
      "ScanningSequence": "EP",
      "SequenceName": "epfid2d1_104",
      "SequenceVariant": [
        "SK",
        "SS"
],
      "SeriesDescription": "func_task-mario_run-01",
      "SeriesNumber": 11,
      "SeriesTime": "135351.377000",
      "SliceLocation": -46.928657230715,
      "SliceThickness": 2.0,
      "SmallestImagePixelValue": 0,
      "SoftwareVersions": "syngo MR E11",
      "SpacingBetweenSlices": 1.9999999367407,
      "SpecificCharacterSet": "ISO_IR 100",
      "StudyID": "1",
      "StudyTime": "122508.169000",
      "TransmitCoilName": "Body",
      "VariableFlipAngleFlag": "N",
      "WindowCenterWidthExplanation": "Algo1",
      "dBdt": 0.0},
    "slices": {}
  },
  "time": {
    "samples": {
      "AcquisitionNumber": [1, 2, 3, 4, 5, 6, 7, 8, 9, 10, 11, 12, 13, 14, 15, 16, 17, 18, 19, 20, 21, 22, 23, 24, 25, 26, 27, 28, 29, 30, 31, 32, 33, 34, 35, 36, 37, 38, 39, 40, 41, 42, 43, 44, 45, 46, 47, 48, 49, 50, 51, 52, 53, 54, 55, 56, 57, 58, 59, 60, 61, 62, 63, 64, 65, 66, 67, 68, 69, 70, 71, 72, 73, 74, 75, 76, 77, 78, 79, 80, 81, 82, 83, 84, 85, 86, 87, 88, 89, 90, 91, 92, 93, 94, 95, 96, 97, 98, 99, 100, 101, 102, 103, 104, 105, 106, 107, 108, 109, 110, 111, 112, 113, 114, 115, 116, 117, 118, 119, 120, 121, 122, 123, 124, 125, 126, 127, 128, 129, 130, 131, 132, 133, 134, 135, 136, 137, 138, 139, 140, 141, 142, 143, 144, 145, 146, 147, 148, 149, 150, 151, 152, 153, 154, 155, 156, 157, 158, 159, 160, 161, 162, 163, 164, 165, 166, 167, 168, 169, 170, 171, 172, 173, 174, 175, 176, 177, 178, 179, 180, 181, 182, 183, 184, 185, 186, 187, 188, 189, 190, 191, 192, 193, 194, 195, 196, 197, 198, 199, 200, 201, 202, 203, 204, 205, 206, 207, 208, 209, 210, 211, 212, 213, 214, 215, 216, 217, 218, 219, 220, 221, 222, 223, 224, 225, 226, 227, 228, 229, 230, 231, 232, 233, 234, 235, 236, 237, 238, 239, 240, 241, 242, 243, 244, 245, 246, 247, 248, 249, 250, 251, 252, 253, 254, 255, 256, 257, 258, 259, 260, 261, 262, 263, 264, 265, 266, 267, 268, 269, 270, 271, 272, 273, 274, 275, 276, 277, 278, 279, 280, 281, 282, 283, 284, 285, 286, 287, 288, 289, 290, 291, 292, 293, 294, 295, 296, 297, 298, 299, 300, 301, 302, 303, 304, 305, 306, 307, 308, 309, 310, 311, 312, 313, 314, 315, 316, 317, 318, 319, 320, 321, 322, 323, 324, 325, 326, 327, 328, 329, 330, 331, 332, 333, 334, 335, 336, 337, 338, 339, 340, 341, 342, 343, 344, 345, 346, 347, 348, 349, 350, 351, 352, 353, 354, 355, 356, 357, 358, 359, 360, 361, 362, 363, 364, 365, 366, 367, 368],
      "AcquisitionTime": ["135222.635000", "135224.125000", "135225.615000", "135227.105000", "135228.595000", "135230.085000", "135231.575000", "135233.065000", "135234.555000", "135236.045000", "135237.535000", "135239.025000", "135240.515000", "135242.005000", "135243.495000", "135244.985000", "135246.475000", "135247.965000", "135249.455000", "135250.945000", "135252.435000", "135253.925000", "135255.415000", "135256.905000", "135258.395000", "135259.885000", "135301.375000", "135302.865000", "135304.355000", "135305.845000", "135307.335000", "135308.825000", "135310.315000", "135311.805000", "135313.295000", "135314.785000", "135316.275000", "135317.765000", "135319.255000", "135320.745000", "135322.235000", "135323.725000", "135325.215000", "135326.705000", "135328.195000", "135329.685000", "135331.175000", "135332.665000", "135334.155000", "135335.645000", "135337.135000", "135338.625000", "135340.115000", "135341.605000", "135343.095000", "135344.585000", "135346.075000", "135347.565000", "135349.055000", "135350.545000", "135352.035000", "135353.525000", "135355.015000", "135356.505000", "135357.995000", "135359.485000", "135400.975000", "135402.465000", "135403.955000", "135405.445000", "135406.935000", "135408.425000", "135409.915000", "135411.405000", "135412.895000", "135414.385000", "135415.875000", "135417.365000", "135418.855000", "135420.345000", "135421.835000", "135423.325000", "135424.815000", "135426.305000", "135427.795000", "135429.285000", "135430.775000", "135432.265000", "135433.755000", "135435.245000", "135436.735000", "135438.225000", "135439.715000", "135441.205000", "135442.695000", "135444.185000", "135445.675000", "135447.165000", "135448.655000", "135450.145000", "135451.635000", "135453.125000", "135454.615000", "135456.105000", "135457.595000", "135459.085000", "135500.575000", "135502.065000", "135503.555000", "135505.045000", "135506.535000", "135508.025000", "135509.515000", "135511.005000", "135512.495000", "135513.985000", "135515.475000", "135516.965000", "135518.455000", "135519.945000", "135521.435000", "135522.925000", "135524.415000", "135525.905000", "135527.395000", "135528.885000", "135530.375000", "135531.865000", "135533.355000", "135534.845000", "135536.335000", "135537.825000", "135539.315000", "135540.805000", "135542.295000", "135543.785000", "135545.275000", "135546.765000", "135548.255000", "135549.745000", "135551.235000", "135552.725000", "135554.215000", "135555.705000", "135557.195000", "135558.685000", "135600.175000", "135601.665000", "135603.155000", "135604.645000", "135606.135000", "135607.625000", "135609.115000", "135610.605000", "135612.095000", "135613.585000", "135615.075000", "135616.565000", "135618.055000", "135619.545000", "135621.035000", "135622.525000", "135624.015000", "135625.505000", "135626.995000", "135628.485000", "135629.975000", "135631.465000", "135632.955000", "135634.445000", "135635.935000", "135637.425000", "135638.915000", "135640.405000", "135641.895000", "135643.385000", "135644.875000", "135646.365000", "135647.855000", "135649.345000", "135650.835000", "135652.325000", "135653.815000", "135655.305000", "135656.795000", "135658.285000", "135659.775000", "135701.265000", "135702.755000", "135704.245000", "135705.735000", "135707.225000", "135708.715000", "135710.205000", "135711.695000", "135713.185000", "135714.675000", "135716.165000", "135717.655000", "135719.145000", "135720.635000", "135722.125000", "135723.615000", "135725.105000", "135726.595000", "135728.085000", "135729.575000", "135731.065000", "135732.555000", "135734.045000", "135735.535000", "135737.025000", "135738.515000", "135740.005000", "135741.495000", "135742.985000", "135744.475000", "135745.965000", "135747.455000", "135748.945000", "135750.435000", "135751.925000", "135753.415000", "135754.905000", "135756.395000", "135757.885000", "135759.375000", "135800.865000", "135802.355000", "135803.845000", "135805.335000", "135806.825000", "135808.315000", "135809.805000", "135811.295000", "135812.785000", "135814.275000", "135815.765000", "135817.255000", "135818.745000", "135820.235000", "135821.725000", "135823.215000", "135824.705000", "135826.195000", "135827.685000", "135829.175000", "135830.665000", "135832.155000", "135833.645000", "135835.135000", "135836.625000", "135838.115000", "135839.605000", "135841.095000", "135842.585000", "135844.075000", "135845.565000", "135847.055000", "135848.545000", "135850.035000", "135851.525000", "135853.015000", "135854.505000", "135855.995000", "135857.485000", "135858.975000", "135900.465000", "135901.955000", "135903.445000", "135904.935000", "135906.425000", "135907.915000", "135909.405000", "135910.895000", "135912.385000", "135913.875000", "135915.365000", "135916.855000", "135918.345000", "135919.835000", "135921.325000", "135922.815000", "135924.305000", "135925.795000", "135927.285000", "135928.775000", "135930.265000", "135931.755000", "135933.245000", "135934.735000", "135936.225000", "135937.715000", "135939.205000", "135940.695000", "135942.185000", "135943.675000", "135945.165000", "135946.655000", "135948.145000", "135949.635000", "135951.125000", "135952.615000", "135954.105000", "135955.595000", "135957.085000", "135958.575000", "140000.065000", "140001.555000", "140003.045000", "140004.535000", "140006.025000", "140007.515000", "140009.005000", "140010.495000", "140011.985000", "140013.475000", "140014.965000", "140016.455000", "140017.945000", "140019.435000", "140020.925000", "140022.415000", "140023.905000", "140025.395000", "140026.885000", "140028.375000", "140029.865000", "140031.355000", "140032.845000", "140034.335000", "140035.825000", "140037.315000", "140038.805000", "140040.295000", "140041.785000", "140043.275000", "140044.765000", "140046.255000", "140047.745000", "140049.235000", "140050.725000", "140052.215000", "140053.705000", "140055.195000", "140056.685000", "140058.175000", "140059.665000", "140101.155000", "140102.645000", "140104.135000", "140105.625000", "140107.115000", "140108.605000", "140110.095000", "140111.585000", "140113.075000", "140114.565000", "140116.055000", "140117.545000", "140119.035000", "140120.525000", "140122.015000", "140123.505000", "140124.995000", "140126.485000", "140127.975000", "140129.465000"],
      "ContentTime": ["135351.379000", "135351.382000", "135351.384000", "135351.387000", "135351.389000", "135351.391000", "135351.394000", "135351.396000", "135351.399000", "135351.401000", "135351.404000", "135351.406000", "135351.409000", "135351.411000", "135351.414000", "135351.416000", "135351.421000", "135351.423000", "135351.426000", "135351.428000", "135351.431000", "135351.433000", "135351.436000", "135351.438000", "135351.441000", "135351.443000", "135351.446000", "135351.448000", "135351.450000", "135351.453000", "135351.455000", "135351.458000", "135351.460000", "135351.463000", "135411.256000", "135411.259000", "135411.261000", "135411.264000", "135411.266000", "135411.269000", "135411.271000", "135411.273000", "135411.280000", "135411.282000", "135411.285000", "135411.287000", "135411.290000", "135411.292000", "135411.295000", "135411.297000", "135411.300000", "135411.302000", "135411.305000", "135411.307000", "135411.310000", "135431.261000", "135431.264000", "135431.266000", "135431.269000", "135431.271000", "135431.273000", "135431.276000", "135431.278000", "135431.281000", "135431.283000", "135431.286000", "135431.288000", "135431.291000", "135431.293000", "135431.296000", "135431.298000", "135431.301000", "135431.303000", "135431.306000", "135431.308000", "135451.254000", "135451.257000", "135451.259000", "135451.262000", "135451.264000", "135451.267000", "135451.269000", "135451.272000", "135451.274000", "135451.277000", "135451.279000", "135451.282000", "135451.284000", "135451.287000", "135451.289000", "135451.292000", "135451.294000", "135451.296000", "135451.299000", "135451.301000", "135531.309000", "135531.312000", "135531.314000", "135531.317000", "135531.319000", "135531.322000", "135531.324000", "135531.327000", "135531.329000", "135531.332000", "135531.334000", "135531.336000", "135531.339000", "135531.341000", "135531.344000", "135531.346000", "135531.349000", "135531.351000", "135531.354000", "135531.356000", "135531.359000", "135531.361000", "135531.363000", "135531.366000", "135531.368000", "135531.371000", "135531.373000", "135531.376000", "135531.378000", "135531.381000", "135531.383000", "135611.288000", "135611.291000", "135611.293000", "135611.296000", "135611.298000", "135611.301000", "135611.303000", "135611.306000", "135611.308000", "135611.311000", "135611.313000", "135611.316000", "135611.318000", "135611.320000", "135611.323000", "135611.325000", "135611.328000", "135611.330000", "135611.336000", "135611.338000", "135611.341000", "135611.343000", "135611.346000", "135611.348000", "135611.351000", "135611.353000", "135611.356000", "135631.605000", "135631.608000", "135631.610000", "135631.613000", "135631.615000", "135631.618000", "135631.620000", "135631.623000", "135631.625000", "135631.628000", "135631.630000", "135631.633000", "135631.635000", "135711.282000", "135711.285000", "135711.288000", "135711.290000", "135711.293000", "135711.295000", "135711.298000", "135711.300000", "135711.302000", "135711.305000", "135711.307000", "135711.310000", "135711.312000", "135711.315000", "135711.317000", "135711.320000", "135711.322000", "135711.325000", "135711.327000", "135711.330000", "135711.332000", "135711.335000", "135711.337000", "135711.340000", "135711.342000", "135711.345000", "135711.347000", "135751.295000", "135751.298000", "135751.300000", "135751.303000", "135751.305000", "135751.308000", "135751.310000", "135751.313000", "135751.315000", "135751.318000", "135751.320000", "135751.323000", "135751.325000", "135751.328000", "135751.330000", "135751.333000", "135751.335000", "135751.338000", "135751.340000", "135751.343000", "135751.345000", "135751.348000", "135751.350000", "135751.353000", "135751.355000", "135751.358000", "135751.360000", "135831.297000", "135831.300000", "135831.302000", "135831.305000", "135831.307000", "135831.310000", "135831.313000", "135831.315000", "135831.317000", "135831.320000", "135831.322000", "135831.325000", "135831.327000", "135831.330000", "135831.332000", "135831.335000", "135831.337000", "135831.340000", "135831.342000", "135831.345000", "135831.347000", "135831.350000", "135831.352000", "135831.355000", "135831.357000", "135831.360000", "135831.362000", "135911.305000", "135911.308000", "135911.310000", "135911.313000", "135911.315000", "135911.318000", "135911.320000", "135911.323000", "135911.325000", "135911.328000", "135911.330000", "135911.333000", "135911.335000", "135911.338000", "135911.340000", "135911.343000", "135911.345000", "135911.348000", "135911.350000", "135911.352000", "135911.355000", "135911.357000", "135911.360000", "135911.362000", "135911.365000", "135911.367000", "135951.284000", "135951.287000", "135951.289000", "135951.292000", "135951.294000", "135951.297000", "135951.299000", "135951.302000", "135951.305000", "135951.308000", "135951.310000", "135951.313000", "135951.315000", "135951.318000", "135951.320000", "135951.323000", "135951.325000", "135951.328000", "135951.330000", "135951.332000", "135951.335000", "135951.337000", "135951.340000", "135951.342000", "135951.345000", "135951.347000", "135951.350000", "140031.305000", "140031.307000", "140031.310000", "140031.312000", "140031.315000", "140031.317000", "140031.320000", "140031.322000", "140031.325000", "140031.327000", "140031.330000", "140031.332000", "140031.335000", "140031.337000", "140031.340000", "140031.342000", "140031.345000", "140031.347000", "140031.350000", "140031.352000", "140031.355000", "140031.357000", "140031.359000", "140031.362000", "140031.364000", "140031.367000", "140031.369000", "140111.307000", "140111.310000", "140111.312000", "140111.315000", "140111.317000", "140111.320000", "140111.322000", "140111.324000", "140111.327000", "140111.330000", "140111.332000", "140111.335000", "140111.337000", "140111.340000", "140111.342000", "140111.345000", "140111.347000", "140111.350000", "140111.352000", "140111.355000", "140111.357000", "140111.360000", "140111.362000", "140111.365000", "140111.367000", "140111.370000", "140111.372000", "140132.173000", "140132.176000", "140132.178000", "140132.181000", "140132.183000", "140132.186000", "140132.188000", "140132.191000", "140132.193000", "140132.196000", "140132.198000", "140132.201000", "140132.203000", "140132.206000"],
      "InstanceCreationTime": ["135351.379000", "135351.382000", "135351.384000", "135351.387000", "135351.389000", "135351.391000", "135351.394000", "135351.396000", "135351.399000", "135351.401000", "135351.404000", "135351.406000", "135351.409000", "135351.411000", "135351.414000", "135351.416000", "135351.421000", "135351.423000", "135351.426000", "135351.428000", "135351.431000", "135351.433000", "135351.436000", "135351.438000", "135351.441000", "135351.443000", "135351.446000", "135351.448000", "135351.450000", "135351.453000", "135351.455000", "135351.458000", "135351.460000", "135351.463000", "135411.256000", "135411.259000", "135411.261000", "135411.264000", "135411.266000", "135411.269000", "135411.271000", "135411.273000", "135411.280000", "135411.282000", "135411.285000", "135411.287000", "135411.290000", "135411.292000", "135411.295000", "135411.297000", "135411.300000", "135411.302000", "135411.305000", "135411.307000", "135411.310000", "135431.261000", "135431.264000", "135431.266000", "135431.269000", "135431.271000", "135431.273000", "135431.276000", "135431.278000", "135431.281000", "135431.283000", "135431.286000", "135431.288000", "135431.291000", "135431.293000", "135431.296000", "135431.298000", "135431.301000", "135431.303000", "135431.306000", "135431.308000", "135451.254000", "135451.257000", "135451.259000", "135451.262000", "135451.264000", "135451.267000", "135451.269000", "135451.272000", "135451.274000", "135451.277000", "135451.279000", "135451.282000", "135451.284000", "135451.287000", "135451.289000", "135451.292000", "135451.294000", "135451.296000", "135451.299000", "135451.301000", "135531.309000", "135531.312000", "135531.314000", "135531.317000", "135531.319000", "135531.322000", "135531.324000", "135531.327000", "135531.329000", "135531.332000", "135531.334000", "135531.336000", "135531.339000", "135531.341000", "135531.344000", "135531.346000", "135531.349000", "135531.351000", "135531.354000", "135531.356000", "135531.359000", "135531.361000", "135531.363000", "135531.366000", "135531.368000", "135531.371000", "135531.373000", "135531.376000", "135531.378000", "135531.381000", "135531.383000", "135611.288000", "135611.291000", "135611.293000", "135611.296000", "135611.298000", "135611.301000", "135611.303000", "135611.306000", "135611.308000", "135611.311000", "135611.313000", "135611.316000", "135611.318000", "135611.320000", "135611.323000", "135611.325000", "135611.328000", "135611.330000", "135611.336000", "135611.338000", "135611.341000", "135611.343000", "135611.346000", "135611.348000", "135611.351000", "135611.353000", "135611.356000", "135631.605000", "135631.608000", "135631.610000", "135631.613000", "135631.615000", "135631.618000", "135631.620000", "135631.623000", "135631.625000", "135631.628000", "135631.630000", "135631.633000", "135631.635000", "135711.282000", "135711.285000", "135711.288000", "135711.290000", "135711.293000", "135711.295000", "135711.298000", "135711.300000", "135711.302000", "135711.305000", "135711.307000", "135711.310000", "135711.312000", "135711.315000", "135711.317000", "135711.320000", "135711.322000", "135711.325000", "135711.327000", "135711.330000", "135711.332000", "135711.335000", "135711.337000", "135711.340000", "135711.342000", "135711.345000", "135711.347000", "135751.295000", "135751.298000", "135751.300000", "135751.303000", "135751.305000", "135751.308000", "135751.310000", "135751.313000", "135751.315000", "135751.318000", "135751.320000", "135751.323000", "135751.325000", "135751.328000", "135751.330000", "135751.333000", "135751.335000", "135751.338000", "135751.340000", "135751.343000", "135751.345000", "135751.348000", "135751.350000", "135751.353000", "135751.355000", "135751.358000", "135751.360000", "135831.297000", "135831.300000", "135831.302000", "135831.305000", "135831.307000", "135831.310000", "135831.313000", "135831.315000", "135831.317000", "135831.320000", "135831.322000", "135831.325000", "135831.327000", "135831.330000", "135831.332000", "135831.335000", "135831.337000", "135831.340000", "135831.342000", "135831.345000", "135831.347000", "135831.350000", "135831.352000", "135831.355000", "135831.357000", "135831.360000", "135831.362000", "135911.305000", "135911.308000", "135911.310000", "135911.313000", "135911.315000", "135911.318000", "135911.320000", "135911.323000", "135911.325000", "135911.328000", "135911.330000", "135911.333000", "135911.335000", "135911.338000", "135911.340000", "135911.343000", "135911.345000", "135911.348000", "135911.350000", "135911.352000", "135911.355000", "135911.357000", "135911.360000", "135911.362000", "135911.365000", "135911.367000", "135951.284000", "135951.287000", "135951.289000", "135951.292000", "135951.294000", "135951.297000", "135951.299000", "135951.302000", "135951.305000", "135951.308000", "135951.310000", "135951.313000", "135951.315000", "135951.318000", "135951.320000", "135951.323000", "135951.325000", "135951.328000", "135951.330000", "135951.332000", "135951.335000", "135951.337000", "135951.340000", "135951.342000", "135951.345000", "135951.347000", "135951.350000", "140031.305000", "140031.307000", "140031.310000", "140031.312000", "140031.315000", "140031.317000", "140031.320000", "140031.322000", "140031.325000", "140031.327000", "140031.330000", "140031.332000", "140031.335000", "140031.337000", "140031.340000", "140031.342000", "140031.345000", "140031.347000", "140031.350000", "140031.352000", "140031.355000", "140031.357000", "140031.359000", "140031.362000", "140031.364000", "140031.367000", "140031.369000", "140111.307000", "140111.310000", "140111.312000", "140111.315000", "140111.317000", "140111.320000", "140111.322000", "140111.324000", "140111.327000", "140111.330000", "140111.332000", "140111.335000", "140111.337000", "140111.340000", "140111.342000", "140111.345000", "140111.347000", "140111.350000", "140111.352000", "140111.355000", "140111.357000", "140111.360000", "140111.362000", "140111.365000", "140111.367000", "140111.370000", "140111.372000", "140132.173000", "140132.176000", "140132.178000", "140132.181000", "140132.183000", "140132.186000", "140132.188000", "140132.191000", "140132.193000", "140132.196000", "140132.198000", "140132.201000", "140132.203000", "140132.206000"],
      "InstanceNumber": [1, 2, 3, 4, 5, 6, 7, 8, 9, 10, 11, 12, 13, 14, 15, 16, 17, 18, 19, 20, 21, 22, 23, 24, 25, 26, 27, 28, 29, 30, 31, 32, 33, 34, 35, 36, 37, 38, 39, 40, 41, 42, 43, 44, 45, 46, 47, 48, 49, 50, 51, 52, 53, 54, 55, 56, 57, 58, 59, 60, 61, 62, 63, 64, 65, 66, 67, 68, 69, 70, 71, 72, 73, 74, 75, 76, 77, 78, 79, 80, 81, 82, 83, 84, 85, 86, 87, 88, 89, 90, 91, 92, 93, 94, 95, 96, 97, 98, 99, 100, 101, 102, 103, 104, 105, 106, 107, 108, 109, 110, 111, 112, 113, 114, 115, 116, 117, 118, 119, 120, 121, 122, 123, 124, 125, 126, 127, 128, 129, 130, 131, 132, 133, 134, 135, 136, 137, 138, 139, 140, 141, 142, 143, 144, 145, 146, 147, 148, 149, 150, 151, 152, 153, 154, 155, 156, 157, 158, 159, 160, 161, 162, 163, 164, 165, 166, 167, 168, 169, 170, 171, 172, 173, 174, 175, 176, 177, 178, 179, 180, 181, 182, 183, 184, 185, 186, 187, 188, 189, 190, 191, 192, 193, 194, 195, 196, 197, 198, 199, 200, 201, 202, 203, 204, 205, 206, 207, 208, 209, 210, 211, 212, 213, 214, 215, 216, 217, 218, 219, 220, 221, 222, 223, 224, 225, 226, 227, 228, 229, 230, 231, 232, 233, 234, 235, 236, 237, 238, 239, 240, 241, 242, 243, 244, 245, 246, 247, 248, 249, 250, 251, 252, 253, 254, 255, 256, 257, 258, 259, 260, 261, 262, 263, 264, 265, 266, 267, 268, 269, 270, 271, 272, 273, 274, 275, 276, 277, 278, 279, 280, 281, 282, 283, 284, 285, 286, 287, 288, 289, 290, 291, 292, 293, 294, 295, 296, 297, 298, 299, 300, 301, 302, 303, 304, 305, 306, 307, 308, 309, 310, 311, 312, 313, 314, 315, 316, 317, 318, 319, 320, 321, 322, 323, 324, 325, 326, 327, 328, 329, 330, 331, 332, 333, 334, 335, 336, 337, 338, 339, 340, 341, 342, 343, 344, 345, 346, 347, 348, 349, 350, 351, 352, 353, 354, 355, 356, 357, 358, 359, 360, 361, 362, 363, 364, 365, 366, 367, 368],
