{
  "AcquisitionMatrixPE": 104,
  "AcquisitionNumber": 1,
  "AcquisitionTime": "16:55:40.620000",
  "BandwidthPerPixelPhaseEncode": 17.17,
  "BaseResolution": 104,
  "BodyPartExamined": "BRAIN",
  "CoilCombinationMethod": "Sum of Squares",
  "ConsistencyInfo": "N4_VE11C_LATEST_20160120",
  "ConversionSoftware": "dcm2niix",
  "ConversionSoftwareVersion": "v1.0.20211006",
  "DerivedVendorReportedEchoSpacing": 0.000560011,
  "DeviceSerialNumber": "167006",
  "DwellTime": 2.1e-06,
  "EchoTime": 0.037,
  "EchoTrainLength": 104,
  "EffectiveEchoSpacing": 0.000560011,
  "FlipAngle": 52,
  "HeudiconvVersion": "0.11.3.post9+gc939bf8",
  "ImageComments": "Unaliased MB4/PE3/LB",
  "ImageOrientationPatientDICOM": [0.999762, -0.0200951, 0.00850913, 0.0218149, 0.930518, -0.365596],
  "ImageOrientationText": "Tra>Cor(-21.5)>Sag(0.0)",
  "ImageType": [
    "ORIGINAL",
    "PRIMARY",
    "M",
    "MB",
    "ND",
    "MOSAIC"
],
  "ImagingFrequency": 123.259,
  "InPlanePhaseEncodingDirectionDICOM": "COL",
  "InstitutionAddress": "Chemin Queen-Mary 4565,Montreal,District,CA,H3W 1W5",
  "InstitutionName": "IUGM",
  "InstitutionalDepartmentName": "Department",
  "MRAcquisitionType": "2D",
  "MagneticFieldStrength": 3,
  "Manufacturer": "Siemens",
  "ManufacturersModelName": "Prisma_fit",
  "MatrixCoilMode": "SENSE",
  "Modality": "MR",
  "MultibandAccelerationFactor": 4,
  "PartialFourier": 1,
  "PatientPosition": "HFS",
  "PercentPhaseFOV": 100,
  "PercentSampling": 100,
  "PhaseEncodingDirection": "j",
  "PhaseEncodingSteps": 104,
  "PhaseResolution": 1,
  "PixelBandwidth": 2290,
  "ProcedureStepDescription": "games^mario",
  "ProtocolName": "func_task-mario_run-03",
  "PulseSequenceDetails": "%CustomerSeq%\\cmrr_mbep2d_bold",
  "ReceiveCoilActiveElements": "HC1-7;NC1,2",
  "ReceiveCoilName": "HeadNeck_64",
  "ReconMatrixPE": 104,
  "RepetitionTime": 1.49,
  "SAR": 0.106342,
  "ScanOptions": "FS",
  "ScanningSequence": "EP",
  "SequenceName": "epfid2d1_104",
  "SequenceVariant": "SK\\SS",
  "SeriesDescription": "func_task-mario_run-03",
  "SeriesNumber": 16,
  "ShimSetting": [614, -7249, -8831, 403, 26, -327, -2, 20],
  "SliceThickness": 2,
  "SliceTiming": [0, 0.7825, 0.0975, 0.88, 0.195, 0.98, 0.2925, 1.0775, 0.39, 1.175, 0.49, 1.2725, 0.5875, 1.37, 0.685, 0, 0.7825, 0.0975, 0.88, 0.195, 0.98, 0.2925, 1.0775, 0.39, 1.175, 0.49, 1.2725, 0.5875, 1.37, 0.685, 0, 0.7825, 0.0975, 0.88, 0.195, 0.98, 0.2925, 1.0775, 0.39, 1.175, 0.49, 1.2725, 0.5875, 1.37, 0.685, 0, 0.7825, 0.0975, 0.88, 0.195, 0.98, 0.2925, 1.0775, 0.39, 1.175, 0.49, 1.2725, 0.5875, 1.37, 0.685],
  "SoftwareVersions": "syngo MR E11",
  "SpacingBetweenSlices": 2,
  "StationName": "MRC35049",
  "TaskName": "mario",
  "TotalReadoutTime": 0.0576811,
  "TxRefAmp": 352.286,
  "WipMemBlock": "9eae952d-8567-400d-8299-d03e4fd893a9||Sequence: R017 ve11c/master r/75a17815+; Jun 28 2022 16:32:11 by eja",
  "dcmmeta_affine": [
    [-1.9995237588882446, 0.04362986981868744, 0.0011424352414906025, 101.07585906982422],
    [0.040190163999795914, 1.8610358238220215, -0.7313894033432007, -64.29084777832031],
    [0.017018267884850502, 0.7311922311782837, 1.8614693880081177, -66.45126342773438],
    [0.0, 0.0, 0.0, 1.0]
],
  "dcmmeta_reorient_transform": [
    [0.0, -1.0, 0.0, 103.0],
    [1.0, 0.0, 0.0, 0.0],
    [0.0, 0.0, 1.0, 0.0],
    [0.0, 0.0, 0.0, 1.0]
],
  "dcmmeta_shape": [104, 104, 60, 454],
  "dcmmeta_slice_dim": 2,
  "dcmmeta_version": 0.6,
  "global": {
    "const": {
      "AcquisitionMatrix": [104, 0, 0, 104],
      "AngioFlag": "N",
      "BitsAllocated": 16,
      "BitsStored": 16,
      "BodyPartExamined": "BRAIN",
      "Columns": 832,
      "EchoNumbers": 1,
      "EchoTime": 37.0,
      "EchoTrainLength": 104,
      "FlipAngle": 52.0,
      "HighBit": 15,
      "ImageOrientationPatient": [0.99976186281108, -0.0200950816238, 0.00850913409514, 0.02181493476817, 0.93051790929565, -0.3655961284001],
      "ImagePositionPatient": [-849.27764474479, -790.18365709441, 268.82087038109],
      "ImageType": [
        "ORIGINAL",
        "PRIMARY",
        "M",
        "MB",
        "ND",
        "MOSAIC"
],
      "ImagedNucleus": "1H",
      "ImagingFrequency": 123.258782,
      "InPlanePhaseEncodingDirection": "COL",
      "MRAcquisitionType": "2D",
      "MagneticFieldStrength": 3.0,
      "Manufacturer": "SIEMENS",
      "ManufacturerModelName": "Prisma_fit",
      "Modality": "MR",
      "NumberOfAverages": 1.0,
      "NumberOfPhaseEncodingSteps": 104,
      "PercentPhaseFieldOfView": 100.0,
      "PercentSampling": 100.0,
      "PerformedProcedureStepStartTime": "162137.533000",
      "PhotometricInterpretation": "MONOCHROME2",
      "PixelBandwidth": 2290.0,
      "PixelRepresentation": 0,
      "PixelSpacing": [2.0, 2.0],
      "ProtocolName": "func_task-mario_run-03",
      "RepetitionTime": 1490.0,
      "Rows": 832,
      "SAR": 0.10634212375873,
      "SamplesPerPixel": 1,
      "ScanOptions": "FS",
      "ScanningSequence": "EP",
      "SequenceName": "epfid2d1_104",
      "SequenceVariant": [
        "SK",
        "SS"
],
      "SeriesDescription": "func_task-mario_run-03",
      "SeriesNumber": 16,
      "SeriesTime": "165659.370000",
      "SliceLocation": -38.279937393808,
      "SliceThickness": 2.0,
      "SmallestImagePixelValue": 0,
      "SoftwareVersions": "syngo MR E11",
      "SpacingBetweenSlices": 2.0000000263278,
      "SpecificCharacterSet": "ISO_IR 100",
      "StudyID": "1",
      "StudyTime": "162137.389000",
      "TransmitCoilName": "Body",
      "VariableFlipAngleFlag": "N",
      "WindowCenterWidthExplanation": "Algo1",
      "dBdt": 0.0},
    "slices": {}
  },
  "time": {
    "samples": {
      "AcquisitionNumber": [1, 2, 3, 4, 5, 6, 7, 8, 9, 10, 11, 12, 13, 14, 15, 16, 17, 18, 19, 20, 21, 22, 23, 24, 25, 26, 27, 28, 29, 30, 31, 32, 33, 34, 35, 36, 37, 38, 39, 40, 41, 42, 43, 44, 45, 46, 47, 48, 49, 50, 51, 52, 53, 54, 55, 56, 57, 58, 59, 60, 61, 62, 63, 64, 65, 66, 67, 68, 69, 70, 71, 72, 73, 74, 75, 76, 77, 78, 79, 80, 81, 82, 83, 84, 85, 86, 87, 88, 89, 90, 91, 92, 93, 94, 95, 96, 97, 98, 99, 100, 101, 102, 103, 104, 105, 106, 107, 108, 109, 110, 111, 112, 113, 114, 115, 116, 117, 118, 119, 120, 121, 122, 123, 124, 125, 126, 127, 128, 129, 130, 131, 132, 133, 134, 135, 136, 137, 138, 139, 140, 141, 142, 143, 144, 145, 146, 147, 148, 149, 150, 151, 152, 153, 154, 155, 156, 157, 158, 159, 160, 161, 162, 163, 164, 165, 166, 167, 168, 169, 170, 171, 172, 173, 174, 175, 176, 177, 178, 179, 180, 181, 182, 183, 184, 185, 186, 187, 188, 189, 190, 191, 192, 193, 194, 195, 196, 197, 198, 199, 200, 201, 202, 203, 204, 205, 206, 207, 208, 209, 210, 211, 212, 213, 214, 215, 216, 217, 218, 219, 220, 221, 222, 223, 224, 225, 226, 227, 228, 229, 230, 231, 232, 233, 234, 235, 236, 237, 238, 239, 240, 241, 242, 243, 244, 245, 246, 247, 248, 249, 250, 251, 252, 253, 254, 255, 256, 257, 258, 259, 260, 261, 262, 263, 264, 265, 266, 267, 268, 269, 270, 271, 272, 273, 274, 275, 276, 277, 278, 279, 280, 281, 282, 283, 284, 285, 286, 287, 288, 289, 290, 291, 292, 293, 294, 295, 296, 297, 298, 299, 300, 301, 302, 303, 304, 305, 306, 307, 308, 309, 310, 311, 312, 313, 314, 315, 316, 317, 318, 319, 320, 321, 322, 323, 324, 325, 326, 327, 328, 329, 330, 331, 332, 333, 334, 335, 336, 337, 338, 339, 340, 341, 342, 343, 344, 345, 346, 347, 348, 349, 350, 351, 352, 353, 354, 355, 356, 357, 358, 359, 360, 361, 362, 363, 364, 365, 366, 367, 368, 369, 370, 371, 372, 373, 374, 375, 376, 377, 378, 379, 380, 381, 382, 383, 384, 385, 386, 387, 388, 389, 390, 391, 392, 393, 394, 395, 396, 397, 398, 399, 400, 401, 402, 403, 404, 405, 406, 407, 408, 409, 410, 411, 412, 413, 414, 415, 416, 417, 418, 419, 420, 421, 422, 423, 424, 425, 426, 427, 428, 429, 430, 431, 432, 433, 434, 435, 436, 437, 438, 439, 440, 441, 442, 443, 444, 445, 446, 447, 448, 449, 450, 451, 452, 453, 454],
      "AcquisitionTime": ["165540.620000", "165542.110000", "165543.600000", "165545.090000", "165546.580000", "165548.070000", "165549.560000", "165551.050000", "165552.540000", "165554.030000", "165555.520000", "165557.010000", "165558.500000", "165559.990000", "165601.480000", "165602.970000", "165604.460000", "165605.950000", "165607.440000", "165608.930000", "165610.420000", "165611.910000", "165613.400000", "165614.890000", "165616.380000", "165617.870000", "165619.360000", "165620.850000", "165622.340000", "165623.830000", "165625.320000", "165626.810000", "165628.300000", "165629.790000", "165631.280000", "165632.770000", "165634.260000", "165635.750000", "165637.240000", "165638.730000", "165640.220000", "165641.710000", "165643.200000", "165644.690000", "165646.180000", "165647.670000", "165649.160000", "165650.650000", "165652.140000", "165653.630000", "165655.120000", "165656.610000", "165658.100000", "165659.590000", "165701.080000", "165702.570000", "165704.060000", "165705.550000", "165707.040000", "165708.530000", "165710.020000", "165711.510000", "165713.000000", "165714.490000", "165715.980000", "165717.470000", "165718.960000", "165720.450000", "165721.940000", "165723.430000", "165724.920000", "165726.410000", "165727.900000", "165729.390000", "165730.880000", "165732.370000", "165733.860000", "165735.350000", "165736.840000", "165738.330000", "165739.820000", "165741.310000", "165742.800000", "165744.290000", "165745.780000", "165747.270000", "165748.760000", "165750.250000", "165751.740000", "165753.230000", "165754.720000", "165756.210000", "165757.700000", "165759.190000", "165800.680000", "165802.170000", "165803.660000", "165805.150000", "165806.640000", "165808.130000", "165809.620000", "165811.110000", "165812.600000", "165814.090000", "165815.580000", "165817.070000", "165818.560000", "165820.050000", "165821.540000", "165823.030000", "165824.520000", "165826.010000", "165827.500000", "165828.990000", "165830.480000", "165831.970000", "165833.460000", "165834.950000", "165836.440000", "165837.930000", "165839.420000", "165840.910000", "165842.400000", "165843.890000", "165845.380000", "165846.870000", "165848.360000", "165849.850000", "165851.340000", "165852.830000", "165854.320000", "165855.810000", "165857.300000", "165858.790000", "165900.280000", "165901.770000", "165903.260000", "165904.750000", "165906.240000", "165907.730000", "165909.220000", "165910.710000", "165912.200000", "165913.690000", "165915.180000", "165916.670000", "165918.160000", "165919.650000", "165921.140000", "165922.630000", "165924.120000", "165925.610000", "165927.100000", "165928.590000", "165930.080000", "165931.570000", "165933.060000", "165934.550000", "165936.040000", "165937.530000", "165939.020000", "165940.510000", "165942.000000", "165943.490000", "165944.980000", "165946.470000", "165947.960000", "165949.450000", "165950.940000", "165952.430000", "165953.920000", "165955.410000", "165956.900000", "165958.390000", "165959.880000", "170001.370000", "170002.860000", "170004.350000", "170005.840000", "170007.330000", "170008.820000", "170010.310000", "170011.800000", "170013.290000", "170014.780000", "170016.270000", "170017.760000", "170019.250000", "170020.740000", "170022.230000", "170023.720000", "170025.210000", "170026.700000", "170028.190000", "170029.680000", "170031.170000", "170032.660000", "170034.150000", "170035.640000", "170037.130000", "170038.620000", "170040.110000", "170041.600000", "170043.090000", "170044.580000", "170046.070000", "170047.560000", "170049.050000", "170050.540000", "170052.030000", "170053.520000", "170055.010000", "170056.500000", "170057.990000", "170059.480000", "170100.970000", "170102.460000", "170103.950000", "170105.440000", "170106.930000", "170108.420000", "170109.910000", "170111.400000", "170112.890000", "170114.380000", "170115.870000", "170117.360000", "170118.850000", "170120.340000", "170121.830000", "170123.320000", "170124.810000", "170126.300000", "170127.790000", "170129.280000", "170130.770000", "170132.260000", "170133.750000", "170135.240000", "170136.730000", "170138.220000", "170139.710000", "170141.200000", "170142.690000", "170144.180000", "170145.670000", "170147.160000", "170148.650000", "170150.140000", "170151.630000", "170153.120000", "170154.610000", "170156.100000", "170157.590000", "170159.080000", "170200.570000", "170202.060000", "170203.550000", "170205.040000", "170206.530000", "170208.020000", "170209.510000", "170211.000000", "170212.490000", "170213.980000", "170215.470000", "170216.960000", "170218.450000", "170219.940000", "170221.430000", "170222.920000", "170224.410000", "170225.900000", "170227.390000", "170228.880000", "170230.370000", "170231.860000", "170233.350000", "170234.840000", "170236.330000", "170237.820000", "170239.310000", "170240.800000", "170242.290000", "170243.780000", "170245.270000", "170246.760000", "170248.250000", "170249.740000", "170251.230000", "170252.720000", "170254.210000", "170255.700000", "170257.190000", "170258.680000", "170300.170000", "170301.660000", "170303.150000", "170304.640000", "170306.130000", "170307.620000", "170309.110000", "170310.600000", "170312.090000", "170313.580000", "170315.070000", "170316.560000", "170318.050000", "170319.540000", "170321.030000", "170322.520000", "170324.010000", "170325.500000", "170326.990000", "170328.480000", "170329.970000", "170331.460000", "170332.950000", "170334.440000", "170335.930000", "170337.420000", "170338.910000", "170340.400000", "170341.890000", "170343.380000", "170344.870000", "170346.360000", "170347.850000", "170349.340000", "170350.830000", "170352.320000", "170353.810000", "170355.300000", "170356.790000", "170358.280000", "170359.770000", "170401.260000", "170402.750000", "170404.240000", "170405.730000", "170407.220000", "170408.710000", "170410.200000", "170411.690000", "170413.180000", "170414.670000", "170416.160000", "170417.650000", "170419.140000", "170420.630000", "170422.120000", "170423.610000", "170425.100000", "170426.590000", "170428.080000", "170429.570000", "170431.060000", "170432.550000", "170434.040000", "170435.530000", "170437.020000", "170438.510000", "170440.000000", "170441.490000", "170442.980000", "170444.470000", "170445.960000", "170447.450000", "170448.940000", "170450.430000", "170451.920000", "170453.410000", "170454.900000", "170456.390000", "170457.880000", "170459.370000", "170500.860000", "170502.350000", "170503.840000", "170505.330000", "170506.820000", "170508.310000", "170509.800000", "170511.290000", "170512.780000", "170514.270000", "170515.760000", "170517.250000", "170518.740000", "170520.230000", "170521.720000", "170523.210000", "170524.700000", "170526.190000", "170527.680000", "170529.170000", "170530.660000", "170532.150000", "170533.640000", "170535.130000", "170536.620000", "170538.110000", "170539.600000", "170541.090000", "170542.580000", "170544.070000", "170545.560000", "170547.050000", "170548.540000", "170550.030000", "170551.520000", "170553.010000", "170554.500000", "170555.990000", "170557.480000", "170558.970000", "170600.460000", "170601.950000", "170603.440000", "170604.930000", "170606.420000", "170607.910000", "170609.400000", "170610.890000", "170612.380000", "170613.870000", "170615.360000", "170616.850000", "170618.340000", "170619.830000", "170621.320000", "170622.810000", "170624.300000", "170625.790000", "170627.280000", "170628.770000", "170630.260000", "170631.750000", "170633.240000", "170634.730000", "170636.220000", "170637.710000", "170639.200000", "170640.690000", "170642.180000", "170643.670000", "170645.160000", "170646.650000", "170648.140000", "170649.630000", "170651.120000", "170652.610000", "170654.100000", "170655.590000"],
      "ContentTime": ["165659.373000", "165659.377000", "165659.380000", "165659.383000", "165659.387000", "165659.395000", "165659.398000", "165659.401000", "165659.405000", "165659.408000", "165659.411000", "165659.414000", "165659.418000", "165659.421000", "165659.424000", "165659.428000", "165659.431000", "165659.434000", "165659.437000", "165659.441000", "165659.444000", "165659.448000", "165659.451000", "165659.454000", "165659.458000", "165659.461000", "165659.464000", "165659.468000", "165659.471000", "165659.474000", "165719.333000", "165719.337000", "165719.340000", "165719.343000", "165719.347000", "165719.350000", "165719.354000", "165719.357000", "165719.360000", "165719.364000", "165719.367000", "165719.371000", "165719.374000", "165719.377000", "165719.381000", "165719.384000", "165719.395000", "165719.398000", "165719.401000", "165719.405000", "165739.333000", "165739.337000", "165739.340000", "165739.344000", "165739.347000", "165739.350000", "165739.353000", "165739.357000", "165739.360000", "165739.363000", "165739.367000", "165739.370000", "165739.373000", "165739.385000", "165739.388000", "165739.391000", "165739.394000", "165739.398000", "165739.401000", "165739.405000", "165759.334000", "165759.338000", "165759.341000", "165759.344000", "165759.348000", "165759.351000", "165759.354000", "165759.358000", "165759.364000", "165759.368000", "165759.383000", "165759.386000", "165759.389000", "165759.393000", "165759.396000", "165759.399000", "165759.403000", "165759.406000", "165759.409000", "165759.413000", "165839.334000", "165839.338000", "165839.341000", "165839.345000", "165839.348000", "165839.351000", "165839.355000", "165839.358000", "165839.361000", "165839.364000", "165839.368000", "165839.371000", "165839.374000", "165839.378000", "165839.381000", "165839.384000", "165839.388000", "165839.391000", "165839.399000", "165839.402000", "165839.406000", "165839.409000", "165839.412000", "165839.416000", "165839.419000", "165839.422000", "165839.426000", "165839.429000", "165839.432000", "165859.334000", "165859.338000", "165859.341000", "165859.345000", "165859.348000", "165859.351000", "165859.354000", "165859.358000", "165859.361000", "165859.364000", "165859.368000", "165859.371000", "165859.374000", "165859.378000", "165939.333000", "165939.337000", "165939.340000", "165939.344000", "165939.347000", "165939.350000", "165939.354000", "165939.357000", "165939.360000", "165939.365000", "165939.368000", "165939.372000", "165939.375000", "165939.378000", "165939.382000", "165939.385000", "165939.388000", "165939.392000", "165939.395000", "165939.398000", "165939.402000", "165939.405000", "165939.408000", "165939.412000", "165939.415000", "165939.419000", "170019.334000", "170019.338000", "170019.341000", "170019.345000", "170019.348000", "170019.351000", "170019.355000", "170019.358000", "170019.361000", "170019.365000", "170019.368000", "170019.371000", "170019.375000", "170019.378000", "170019.381000", "170019.396000", "170019.400000", "170019.403000", "170019.407000", "170019.410000", "170019.413000", "170019.417000", "170019.420000", "170019.423000", "170019.427000", "170019.430000", "170019.433000", "170059.334000", "170059.338000", "170059.341000", "170059.345000", "170059.348000", "170059.351000", "170059.355000", "170059.358000", "170059.361000", "170059.365000", "170059.368000", "170059.371000", "170059.375000", "170059.378000", "170059.381000", "170059.391000", "170059.394000", "170059.398000", "170059.401000", "170059.404000", "170059.407000", "170059.411000", "170059.414000", "170059.417000", "170059.421000", "170059.424000", "170059.427000", "170139.333000", "170139.337000", "170139.340000", "170139.344000", "170139.347000", "170139.350000", "170139.354000", "170139.357000", "170139.360000", "170139.364000", "170139.367000", "170139.370000", "170139.374000", "170139.377000", "170139.380000", "170139.384000", "170139.387000", "170139.390000", "170139.394000", "170139.397000", "170139.400000", "170139.404000", "170139.407000", "170139.410000", "170139.414000", "170139.417000", "170139.420000", "170219.333000", "170219.337000", "170219.340000", "170219.344000", "170219.347000", "170219.350000", "170219.354000", "170219.357000", "170219.360000", "170219.364000", "170219.367000", "170219.370000", "170219.374000", "170219.377000", "170219.380000", "170219.384000", "170219.387000", "170219.390000", "170219.394000", "170219.397000", "170219.400000", "170219.405000", "170219.408000", "170219.411000", "170219.415000", "170219.418000", "170219.421000", "170259.334000", "170259.338000", "170259.341000", "170259.345000", "170259.348000", "170259.351000", "170259.371000", "170259.374000", "170259.377000", "170259.381000", "170259.384000", "170259.387000", "170259.391000", "170259.394000", "170259.397000", "170259.401000", "170259.404000", "170259.408000", "170259.411000", "170259.414000", "170259.417000", "170259.421000", "170259.424000", "170259.428000", "170259.431000", "170259.434000", "170259.437000", "170339.334000", "170339.338000", "170339.341000", "170339.345000", "170339.348000", "170339.351000", "170339.355000", "170339.358000", "170339.361000", "170339.365000", "170339.368000", "170339.372000", "170339.375000", "170339.379000", "170339.382000", "170339.385000", "170339.389000", "170339.392000", "170339.396000", "170339.399000", "170339.402000", "170339.406000", "170339.409000", "170339.413000", "170339.416000", "170339.419000", "170419.334000", "170419.337000", "170419.341000", "170419.344000", "170419.347000", "170419.351000", "170419.354000", "170419.357000", "170419.361000", "170419.364000", "170419.367000", "170419.371000", "170419.374000", "170419.377000", "170419.381000", "170419.384000", "170419.387000", "170419.391000", "170419.394000", "170419.397000", "170419.401000", "170419.404000", "170419.407000", "170419.411000", "170419.414000", "170419.417000", "170419.421000", "170459.334000", "170459.338000", "170459.341000", "170459.345000", "170459.348000", "170459.351000", "170459.355000", "170459.358000", "170459.361000", "170459.365000", "170459.368000", "170459.371000", "170459.375000", "170459.378000", "170459.382000", "170459.385000", "170459.388000", "170459.392000", "170459.395000", "170459.398000", "170459.401000", "170459.423000", "170459.427000", "170459.430000", "170459.433000", "170459.437000", "170459.440000", "170539.334000", "170539.338000", "170539.341000", "170539.351000", "170539.355000", "170539.358000", "170539.361000", "170539.365000", "170539.368000", "170539.371000", "170539.375000", "170539.378000", "170539.381000", "170539.385000", "170539.388000", "170539.391000", "170539.395000", "170539.398000", "170539.401000", "170539.405000", "170539.408000", "170539.411000", "170539.415000", "170539.418000", "170539.421000", "170539.425000", "170539.428000", "170619.333000", "170619.337000", "170619.340000", "170619.344000", "170619.347000", "170619.350000", "170619.354000", "170619.357000", "170619.360000", "170619.364000", "170619.367000", "170619.370000", "170619.374000", "170619.377000", "170619.380000", "170619.384000", "170619.387000", "170619.390000", "170619.394000", "170619.397000", "170619.400000", "170619.404000", "170619.407000", "170619.410000", "170619.414000", "170619.417000", "170619.420000", "170658.676000", "170658.680000", "170658.683000", "170658.687000", "170658.690000", "170658.693000", "170658.697000", "170658.700000", "170658.703000", "170658.707000", "170658.710000", "170658.713000", "170658.717000", "170658.720000", "170658.724000", "170658.727000", "170658.730000", "170658.734000", "170658.737000", "170658.740000", "170658.744000", "170658.747000", "170658.750000", "170658.753000", "170658.757000", "170658.760000"],
