{
  "AcquisitionMatrixPE": 104,
  "AcquisitionNumber": 1,
  "AcquisitionTime": "16:25:24.142500",
  "BandwidthPerPixelPhaseEncode": 17.17,
  "BaseResolution": 104,
  "BodyPartExamined": "BRAIN",
  "CoilCombinationMethod": "Sum of Squares",
  "ConsistencyInfo": "N4_VE11C_LATEST_20160120",
  "ConversionSoftware": "dcm2niix",
  "ConversionSoftwareVersion": "v1.0.20211006",
  "DerivedVendorReportedEchoSpacing": 0.000560011,
  "DeviceSerialNumber": "167006",
  "DwellTime": 2.1e-06,
  "EchoTime": 0.037,
  "EchoTime1": 0.037,
  "EchoTime2": 0.001,
  "EchoTrainLength": 104,
  "EffectiveEchoSpacing": 0.000560011,
  "FlipAngle": 52,
  "HeudiconvVersion": "0.11.3.post9+gc939bf8",
  "ImageComments": "Unaliased MB4/PE3/LB",
  "ImageOrientationPatientDICOM": [0.999762, -0.0200951, 0.00850913, 0.0218149, 0.930518, -0.365596],
  "ImageOrientationText": "Tra>Cor(-21.5)>Sag(0.0)",
  "ImageType": [
    "ORIGINAL",
    "PRIMARY",
    "P",
    "MB",
    "ND",
    "MOSAIC",
    "PHASE"
],
  "ImagingFrequency": 123.259,
  "InPlanePhaseEncodingDirectionDICOM": "COL",
  "InstitutionAddress": "Chemin Queen-Mary 4565,Montreal,District,CA,H3W 1W5",
  "InstitutionName": "IUGM",
  "InstitutionalDepartmentName": "Department",
  "MRAcquisitionType": "2D",
  "MagneticFieldStrength": 3,
  "Manufacturer": "Siemens",
  "ManufacturersModelName": "Prisma_fit",
  "MatrixCoilMode": "SENSE",
  "Modality": "MR",
  "MultibandAccelerationFactor": 4,
  "PartialFourier": 1,
  "PatientPosition": "HFS",
  "PercentPhaseFOV": 100,
  "PercentSampling": 100,
  "PhaseEncodingDirection": "j",
  "PhaseEncodingSteps": 104,
  "PhaseResolution": 1,
  "PixelBandwidth": 2290,
  "ProcedureStepDescription": "games^mario",
  "ProtocolName": "func_task-mario_run-01",
  "PulseSequenceDetails": "%CustomerSeq%\\cmrr_mbep2d_bold",
  "ReceiveCoilActiveElements": "HC1-7;NC1,2",
  "ReceiveCoilName": "HeadNeck_64",
  "ReconMatrixPE": 104,
  "RepetitionTime": 1.49,
  "SAR": 0.106342,
  "ScanOptions": "FS",
  "ScanningSequence": "EP",
  "SequenceName": "epfid2d1_104",
  "SequenceVariant": "SK\\SS",
  "SeriesDescription": "func_task-mario_run-01",
  "SeriesNumber": 11,
  "ShimSetting": [614, -7249, -8831, 403, 26, -327, -2, 20],
  "SliceThickness": 2,
  "SliceTiming": [0, 0.7825, 0.0975, 0.88, 0.195, 0.98, 0.2925, 1.0775, 0.39, 1.175, 0.49, 1.2725, 0.5875, 1.37, 0.685, 0, 0.7825, 0.0975, 0.88, 0.195, 0.98, 0.2925, 1.0775, 0.39, 1.175, 0.49, 1.2725, 0.5875, 1.37, 0.685, 0, 0.7825, 0.0975, 0.88, 0.195, 0.98, 0.2925, 1.0775, 0.39, 1.175, 0.49, 1.2725, 0.5875, 1.37, 0.685, 0, 0.7825, 0.0975, 0.88, 0.195, 0.98, 0.2925, 1.0775, 0.39, 1.175, 0.49, 1.2725, 0.5875, 1.37, 0.685],
  "SoftwareVersions": "syngo MR E11",
  "SpacingBetweenSlices": 2,
  "StationName": "MRC35049",
  "TaskName": "mario",
  "TotalReadoutTime": 0.0576811,
  "TxRefAmp": 352.286,
  "WipMemBlock": "3a982aae-0db7-43f6-bcfc-b94766753f0d||Sequence: R017 ve11c/master r/75a17815+; Jun 28 2022 16:32:11 by eja",
  "dcmmeta_affine": [
    [-1.9995237588882446, 0.04362986981868744, 0.0011424352414906025, 101.07585906982422],
    [0.040190163999795914, 1.8610358238220215, -0.7313894033432007, -64.29084777832031],
    [0.017018267884850502, 0.7311922311782837, 1.8614693880081177, -66.45126342773438],
    [0.0, 0.0, 0.0, 1.0]
],
  "dcmmeta_reorient_transform": [
    [0.0, -1.0, 0.0, 103.0],
    [1.0, 0.0, 0.0, 0.0],
    [0.0, 0.0, 1.0, 0.0],
    [0.0, 0.0, 0.0, 1.0]
],
  "dcmmeta_shape": [104, 104, 60, 506],
  "dcmmeta_slice_dim": 2,
  "dcmmeta_version": 0.6,
  "global": {
    "const": {
      "AcquisitionMatrix": [104, 0, 0, 104],
      "AngioFlag": "N",
      "BitsAllocated": 16,
      "BitsStored": 16,
      "BodyPartExamined": "BRAIN",
      "Columns": 832,
      "EchoNumbers": 1,
      "EchoTime": 37.0,
      "EchoTrainLength": 104,
      "FlipAngle": 52.0,
      "HighBit": 15,
      "ImageOrientationPatient": [0.99976186281108, -0.0200950816238, 0.00850913409514, 0.02181493476817, 0.93051790929565, -0.3655961284001],
      "ImagePositionPatient": [-849.27764474479, -790.18365709441, 268.82087038109],
      "ImageType": [
        "ORIGINAL",
        "PRIMARY",
        "P",
        "MB",
        "ND",
        "MOSAIC"
],
      "ImagedNucleus": "1H",
      "ImagingFrequency": 123.258766,
      "InPlanePhaseEncodingDirection": "COL",
      "LargestImagePixelValue": 4095,
      "MRAcquisitionType": "2D",
      "MagneticFieldStrength": 3.0,
      "Manufacturer": "SIEMENS",
      "ManufacturerModelName": "Prisma_fit",
      "Modality": "MR",
      "NumberOfAverages": 1.0,
      "NumberOfPhaseEncodingSteps": 104,
      "PercentPhaseFieldOfView": 100.0,
      "PercentSampling": 100.0,
      "PerformedProcedureStepStartTime": "162137.533000",
      "PhotometricInterpretation": "MONOCHROME2",
      "PixelBandwidth": 2290.0,
      "PixelRepresentation": 0,
      "PixelSpacing": [2.0, 2.0],
      "ProtocolName": "func_task-mario_run-01",
      "RepetitionTime": 1490.0,
      "RescaleIntercept": -4096.0,
      "RescaleSlope": 2.0,
      "RescaleType": "US",
      "Rows": 832,
      "SAR": 0.10634212375873,
      "SamplesPerPixel": 1,
      "ScanOptions": "FS",
      "ScanningSequence": "EP",
      "SequenceName": "epfid2d1_104",
      "SequenceVariant": [
        "SK",
        "SS"
],
      "SeriesDescription": "func_task-mario_run-01",
      "SeriesNumber": 11,
      "SeriesTime": "162636.155000",
      "SliceLocation": -38.279937393808,
      "SliceThickness": 2.0,
      "SmallestImagePixelValue": 0,
      "SoftwareVersions": "syngo MR E11",
      "SpacingBetweenSlices": 2.0000000263278,
      "SpecificCharacterSet": "ISO_IR 100",
      "StudyID": "1",
      "StudyTime": "162137.389000",
      "TransmitCoilName": "Body",
      "VariableFlipAngleFlag": "N",
      "WindowCenterWidthExplanation": "Algo1",
      "dBdt": 0.0},
    "slices": {}
  },
  "time": {
    "samples": {
      "AcquisitionNumber": [1, 2, 3, 4, 5, 6, 7, 8, 9, 10, 11, 12, 13, 14, 15, 16, 17, 18, 19, 20, 21, 22, 23, 24, 25, 26, 27, 28, 29, 30, 31, 32, 33, 34, 35, 36, 37, 38, 39, 40, 41, 42, 43, 44, 45, 46, 47, 48, 49, 50, 51, 52, 53, 54, 55, 56, 57, 58, 59, 60, 61, 62, 63, 64, 65, 66, 67, 68, 69, 70, 71, 72, 73, 74, 75, 76, 77, 78, 79, 80, 81, 82, 83, 84, 85, 86, 87, 88, 89, 90, 91, 92, 93, 94, 95, 96, 97, 98, 99, 100, 101, 102, 103, 104, 105, 106, 107, 108, 109, 110, 111, 112, 113, 114, 115, 116, 117, 118, 119, 120, 121, 122, 123, 124, 125, 126, 127, 128, 129, 130, 131, 132, 133, 134, 135, 136, 137, 138, 139, 140, 141, 142, 143, 144, 145, 146, 147, 148, 149, 150, 151, 152, 153, 154, 155, 156, 157, 158, 159, 160, 161, 162, 163, 164, 165, 166, 167, 168, 169, 170, 171, 172, 173, 174, 175, 176, 177, 178, 179, 180, 181, 182, 183, 184, 185, 186, 187, 188, 189, 190, 191, 192, 193, 194, 195, 196, 197, 198, 199, 200, 201, 202, 203, 204, 205, 206, 207, 208, 209, 210, 211, 212, 213, 214, 215, 216, 217, 218, 219, 220, 221, 222, 223, 224, 225, 226, 227, 228, 229, 230, 231, 232, 233, 234, 235, 236, 237, 238, 239, 240, 241, 242, 243, 244, 245, 246, 247, 248, 249, 250, 251, 252, 253, 254, 255, 256, 257, 258, 259, 260, 261, 262, 263, 264, 265, 266, 267, 268, 269, 270, 271, 272, 273, 274, 275, 276, 277, 278, 279, 280, 281, 282, 283, 284, 285, 286, 287, 288, 289, 290, 291, 292, 293, 294, 295, 296, 297, 298, 299, 300, 301, 302, 303, 304, 305, 306, 307, 308, 309, 310, 311, 312, 313, 314, 315, 316, 317, 318, 319, 320, 321, 322, 323, 324, 325, 326, 327, 328, 329, 330, 331, 332, 333, 334, 335, 336, 337, 338, 339, 340, 341, 342, 343, 344, 345, 346, 347, 348, 349, 350, 351, 352, 353, 354, 355, 356, 357, 358, 359, 360, 361, 362, 363, 364, 365, 366, 367, 368, 369, 370, 371, 372, 373, 374, 375, 376, 377, 378, 379, 380, 381, 382, 383, 384, 385, 386, 387, 388, 389, 390, 391, 392, 393, 394, 395, 396, 397, 398, 399, 400, 401, 402, 403, 404, 405, 406, 407, 408, 409, 410, 411, 412, 413, 414, 415, 416, 417, 418, 419, 420, 421, 422, 423, 424, 425, 426, 427, 428, 429, 430, 431, 432, 433, 434, 435, 436, 437, 438, 439, 440, 441, 442, 443, 444, 445, 446, 447, 448, 449, 450, 451, 452, 453, 454, 455, 456, 457, 458, 459, 460, 461, 462, 463, 464, 465, 466, 467, 468, 469, 470, 471, 472, 473, 474, 475, 476, 477, 478, 479, 480, 481, 482, 483, 484, 485, 486, 487, 488, 489, 490, 491, 492, 493, 494, 495, 496, 497, 498, 499, 500, 501, 502, 503, 504, 505, 506],
      "AcquisitionTime": ["162524.142500", "162525.632500", "162527.122500", "162528.612500", "162530.102500", "162531.592500", "162533.082500", "162534.572500", "162536.062500", "162537.552500", "162539.042500", "162540.532500", "162542.022500", "162543.512500", "162545.002500", "162546.492500", "162547.982500", "162549.472500", "162550.962500", "162552.452500", "162553.942500", "162555.432500", "162556.922500", "162558.412500", "162559.902500", "162601.392500", "162602.882500", "162604.372500", "162605.862500", "162607.352500", "162608.842500", "162610.332500", "162611.822500", "162613.312500", "162614.802500", "162616.292500", "162617.782500", "162619.272500", "162620.762500", "162622.252500", "162623.742500", "162625.232500", "162626.722500", "162628.212500", "162629.702500", "162631.192500", "162632.682500", "162634.172500", "162635.662500", "162637.152500", "162638.642500", "162640.132500", "162641.622500", "162643.112500", "162644.602500", "162646.092500", "162647.582500", "162649.072500", "162650.562500", "162652.052500", "162653.542500", "162655.032500", "162656.522500", "162658.012500", "162659.502500", "162700.992500", "162702.482500", "162703.972500", "162705.462500", "162706.952500", "162708.442500", "162709.932500", "162711.422500", "162712.912500", "162714.402500", "162715.892500", "162717.382500", "162718.872500", "162720.362500", "162721.852500", "162723.342500", "162724.832500", "162726.322500", "162727.812500", "162729.302500", "162730.792500", "162732.282500", "162733.772500", "162735.262500", "162736.752500", "162738.242500", "162739.732500", "162741.222500", "162742.712500", "162744.202500", "162745.692500", "162747.182500", "162748.672500", "162750.162500", "162751.652500", "162753.142500", "162754.632500", "162756.122500", "162757.612500", "162759.102500", "162800.592500", "162802.082500", "162803.572500", "162805.062500", "162806.552500", "162808.042500", "162809.532500", "162811.022500", "162812.512500", "162814.002500", "162815.492500", "162816.982500", "162818.472500", "162819.962500", "162821.452500", "162822.942500", "162824.432500", "162825.922500", "162827.412500", "162828.902500", "162830.392500", "162831.882500", "162833.372500", "162834.862500", "162836.352500", "162837.842500", "162839.332500", "162840.822500", "162842.312500", "162843.802500", "162845.292500", "162846.782500", "162848.272500", "162849.762500", "162851.252500", "162852.742500", "162854.232500", "162855.722500", "162857.212500", "162858.702500", "162900.192500", "162901.682500", "162903.172500", "162904.662500", "162906.152500", "162907.642500", "162909.132500", "162910.622500", "162912.112500", "162913.602500", "162915.092500", "162916.582500", "162918.072500", "162919.562500", "162921.052500", "162922.542500", "162924.032500", "162925.522500", "162927.012500", "162928.502500", "162929.992500", "162931.482500", "162932.972500", "162934.462500", "162935.952500", "162937.442500", "162938.932500", "162940.422500", "162941.912500", "162943.402500", "162944.892500", "162946.382500", "162947.872500", "162949.362500", "162950.852500", "162952.342500", "162953.832500", "162955.322500", "162956.812500", "162958.302500", "162959.792500", "163001.282500", "163002.772500", "163004.262500", "163005.752500", "163007.242500", "163008.732500", "163010.222500", "163011.712500", "163013.202500", "163014.692500", "163016.182500", "163017.672500", "163019.162500", "163020.652500", "163022.142500", "163023.632500", "163025.122500", "163026.612500", "163028.102500", "163029.592500", "163031.082500", "163032.572500", "163034.062500", "163035.552500", "163037.042500", "163038.532500", "163040.022500", "163041.512500", "163043.002500", "163044.492500", "163045.982500", "163047.472500", "163048.962500", "163050.452500", "163051.942500", "163053.432500", "163054.922500", "163056.412500", "163057.902500", "163059.392500", "163100.882500", "163102.372500", "163103.862500", "163105.352500", "163106.842500", "163108.332500", "163109.822500", "163111.312500", "163112.802500", "163114.292500", "163115.782500", "163117.272500", "163118.762500", "163120.252500", "163121.742500", "163123.232500", "163124.722500", "163126.212500", "163127.702500", "163129.192500", "163130.682500", "163132.172500", "163133.662500", "163135.152500", "163136.642500", "163138.132500", "163139.622500", "163141.112500", "163142.602500", "163144.092500", "163145.582500", "163147.072500", "163148.562500", "163150.052500", "163151.542500", "163153.032500", "163154.522500", "163156.012500", "163157.502500", "163158.992500", "163200.482500", "163201.972500", "163203.462500", "163204.952500", "163206.442500", "163207.932500", "163209.422500", "163210.912500", "163212.402500", "163213.892500", "163215.382500", "163216.872500", "163218.362500", "163219.852500", "163221.342500", "163222.832500", "163224.322500", "163225.812500", "163227.302500", "163228.792500", "163230.282500", "163231.772500", "163233.262500", "163234.752500", "163236.242500", "163237.732500", "163239.222500", "163240.712500", "163242.202500", "163243.692500", "163245.182500", "163246.672500", "163248.162500", "163249.652500", "163251.142500", "163252.632500", "163254.122500", "163255.612500", "163257.102500", "163258.592500", "163300.082500", "163301.572500", "163303.062500", "163304.552500", "163306.042500", "163307.532500", "163309.022500", "163310.512500", "163312.002500", "163313.492500", "163314.982500", "163316.472500", "163317.962500", "163319.452500", "163320.942500", "163322.432500", "163323.922500", "163325.412500", "163326.902500", "163328.392500", "163329.882500", "163331.372500", "163332.862500", "163334.352500", "163335.842500", "163337.332500", "163338.822500", "163340.312500", "163341.802500", "163343.292500", "163344.782500", "163346.272500", "163347.762500", "163349.252500", "163350.742500", "163352.232500", "163353.722500", "163355.212500", "163356.702500", "163358.192500", "163359.682500", "163401.172500", "163402.662500", "163404.152500", "163405.642500", "163407.132500", "163408.622500", "163410.112500", "163411.602500", "163413.092500", "163414.582500", "163416.072500", "163417.562500", "163419.052500", "163420.542500", "163422.032500", "163423.522500", "163425.012500", "163426.502500", "163427.992500", "163429.482500", "163430.972500", "163432.462500", "163433.952500", "163435.442500", "163436.932500", "163438.422500", "163439.912500", "163441.402500", "163442.892500", "163444.382500", "163445.872500", "163447.362500", "163448.852500", "163450.342500", "163451.832500", "163453.322500", "163454.812500", "163456.302500", "163457.792500", "163459.282500", "163500.772500", "163502.262500", "163503.752500", "163505.242500", "163506.732500", "163508.222500", "163509.712500", "163511.202500", "163512.692500", "163514.182500", "163515.672500", "163517.162500", "163518.652500", "163520.142500", "163521.632500", "163523.122500", "163524.612500", "163526.102500", "163527.592500", "163529.082500", "163530.572500", "163532.062500", "163533.552500", "163535.042500", "163536.532500", "163538.022500", "163539.512500", "163541.002500", "163542.492500", "163543.982500", "163545.472500", "163546.962500", "163548.452500", "163549.942500", "163551.432500", "163552.922500", "163554.412500", "163555.902500", "163557.392500", "163558.882500", "163600.372500", "163601.862500", "163603.352500", "163604.842500", "163606.332500", "163607.822500", "163609.312500", "163610.802500", "163612.292500", "163613.782500", "163615.272500", "163616.762500", "163618.252500", "163619.742500", "163621.232500", "163622.722500", "163624.212500", "163625.702500", "163627.192500", "163628.682500", "163630.172500", "163631.662500", "163633.152500", "163634.642500", "163636.132500", "163637.622500", "163639.112500", "163640.602500", "163642.092500", "163643.582500", "163645.072500", "163646.562500", "163648.052500", "163649.542500", "163651.032500", "163652.522500", "163654.012500", "163655.502500", "163656.992500", "163658.482500", "163659.972500", "163701.462500", "163702.952500", "163704.442500", "163705.932500", "163707.422500", "163708.912500", "163710.402500", "163711.892500", "163713.382500", "163714.872500", "163716.362500", "163717.852500", "163719.342500", "163720.832500", "163722.322500", "163723.812500", "163725.302500", "163726.792500", "163728.282500", "163729.772500", "163731.262500", "163732.752500", "163734.242500", "163735.732500", "163737.222500", "163738.712500", "163740.202500", "163741.692500", "163743.182500", "163744.672500", "163746.162500", "163747.652500", "163749.142500", "163750.632500", "163752.122500", "163753.612500", "163755.102500", "163756.592500"],
      "ContentTime": ["162636.157000", "162636.160000", "162636.162000", "162636.165000", "162636.167000", "162636.170000", "162636.173000", "162636.175000", "162636.177000", "162636.180000", "162636.182000", "162636.185000", "162636.188000", "162636.190000", "162636.193000", "162636.201000", "162636.203000", "162636.206000", "162636.208000", "162636.211000", "162636.213000", "162636.216000", "162636.218000", "162656.080000", "162656.083000", "162656.085000", "162656.088000", "162656.090000", "162656.093000", "162656.095000", "162656.098000", "162656.101000", "162656.103000", "162656.106000", "162656.108000", "162656.111000", "162656.113000", "162656.116000", "162656.119000", "162656.121000", "162656.124000", "162656.126000", "162656.129000", "162716.068000", "162716.071000", "162716.073000", "162716.076000", "162716.078000", "162716.081000", "162716.083000", "162716.086000", "162716.088000", "162716.091000", "162716.093000", "162716.096000", "162716.098000", "162716.101000", "162716.103000", "162716.106000", "162716.109000", "162716.111000", "162716.120000", "162716.123000", "162736.084000", "162736.086000", "162736.089000", "162736.092000", "162736.094000", "162736.097000", "162736.099000", "162736.109000", "162736.111000", "162736.114000", "162736.116000", "162736.119000", "162736.121000", "162736.124000", "162736.126000", "162736.129000", "162736.132000", "162736.134000", "162736.137000", "162736.139000", "162816.156000", "162816.159000", "162816.161000", "162816.164000", "162816.166000", "162816.169000", "162816.171000", "162816.174000", "162816.177000", "162816.179000", "162816.182000", "162816.184000", "162816.187000", "162816.189000", "162816.192000", "162816.195000", "162816.197000", "162816.200000", "162816.202000", "162816.205000", "162816.207000", "162816.210000", "162816.212000", "162816.215000", "162816.217000", "162816.226000", "162816.228000", "162816.231000", "162816.233000", "162816.236000", "162816.238000", "162816.241000", "162856.653000", "162856.656000", "162856.659000", "162856.661000", "162856.664000", "162856.666000", "162856.669000", "162856.671000", "162856.674000", "162856.677000", "162856.679000", "162856.682000", "162856.684000", "162856.687000", "162856.689000", "162856.692000", "162856.694000", "162856.697000", "162856.699000", "162856.702000", "162856.704000", "162856.707000", "162856.709000", "162856.712000", "162856.715000", "162856.717000", "162936.108000", "162936.111000", "162936.113000", "162936.119000", "162936.122000", "162936.125000", "162936.127000", "162936.130000", "162936.132000", "162936.135000", "162936.137000", "162936.140000", "162936.142000", "162936.145000", "162936.147000", "162936.150000", "162936.152000", "162936.155000", "162936.158000", "162936.160000", "162936.163000", "162936.165000", "162936.168000", "162936.170000", "162936.173000", "162936.176000", "162936.178000", "163016.121000", "163016.124000", "163016.127000", "163016.129000", "163016.132000", "163016.134000", "163016.137000", "163016.139000", "163016.142000", "163016.145000", "163016.147000", "163016.150000", "163016.152000", "163016.155000", "163016.157000", "163016.160000", "163016.163000", "163016.165000", "163016.168000", "163016.170000", "163016.173000", "163016.175000", "163016.178000", "163016.181000", "163016.183000", "163016.186000", "163016.188000", "163056.101000", "163056.104000", "163056.107000", "163056.109000", "163056.112000", "163056.114000", "163056.117000", "163056.119000", "163056.122000", "163056.124000", "163056.127000", "163056.129000", "163056.132000", "163056.134000", "163056.137000", "163056.140000", "163056.142000", "163056.145000", "163056.147000", "163056.150000", "163056.152000", "163056.155000", "163056.157000", "163056.160000", "163056.162000", "163056.165000", "163056.167000", "163136.125000", "163136.127000", "163136.130000", "163136.132000", "163136.135000", "163136.138000", "163136.140000", "163136.143000", "163136.145000", "163136.148000", "163136.158000", "163136.160000", "163136.163000", "163136.165000", "163136.168000", "163136.170000", "163136.173000", "163136.175000", "163136.178000", "163136.180000", "163136.183000", "163136.186000", "163136.188000", "163136.191000", "163136.193000", "163136.196000", "163136.198000", "163216.115000", "163216.118000", "163216.134000", "163216.137000", "163216.139000", "163216.142000", "163216.144000", "163216.147000", "163216.149000", "163216.152000", "163216.154000", "163216.157000", "163216.159000", "163216.162000", "163216.164000", "163216.167000", "163216.170000", "163216.172000", "163216.175000", "163216.177000", "163216.180000", "163216.182000", "163216.185000", "163216.188000", "163216.190000", "163216.193000", "163216.195000", "163256.113000", "163256.116000", "163256.118000", "163256.121000", "163256.123000", "163256.126000", "163256.129000", "163256.131000", "163256.134000", "163256.136000", "163256.139000", "163256.141000", "163256.144000", "163256.146000", "163256.149000", "163256.151000", "163256.154000", "163256.156000", "163256.159000", "163256.162000", "163256.164000", "163256.167000", "163256.169000", "163256.172000", "163256.174000", "163256.177000", "163256.179000", "163336.121000", "163336.124000", "163336.126000", "163336.129000", "163336.131000", "163336.134000", "163336.136000", "163336.139000", "163336.141000", "163336.144000", "163336.146000", "163336.149000", "163336.151000", "163336.154000", "163336.156000", "163336.159000", "163336.162000", "163336.164000", "163336.167000", "163336.169000", "163336.172000", "163336.174000", "163336.177000", "163336.179000", "163336.182000", "163336.184000", "163416.094000", "163416.097000", "163416.100000", "163416.102000", "163416.105000", "163416.107000", "163416.110000", "163416.112000", "163416.115000", "163416.117000", "163416.120000", "163416.122000", "163416.125000", "163416.127000", "163416.130000", "163416.133000", "163416.135000", "163416.138000", "163416.140000", "163416.143000", "163416.145000", "163416.148000", "163416.150000", "163416.153000", "163416.155000", "163416.158000", "163416.160000", "163456.109000", "163456.112000", "163456.115000", "163456.117000", "163456.120000", "163456.122000", "163456.125000", "163456.127000", "163456.130000", "163456.133000", "163456.135000", "163456.138000", "163456.140000", "163456.143000", "163456.145000", "163456.148000", "163456.152000", "163456.155000", "163456.157000", "163456.160000", "163456.162000", "163456.165000", "163456.168000", "163456.170000", "163456.173000", "163456.175000", "163456.178000", "163536.106000", "163536.109000", "163536.111000", "163536.114000", "163536.116000", "163536.119000", "163536.122000", "163536.124000", "163536.127000", "163536.129000", "163536.132000", "163536.134000", "163536.137000", "163536.139000", "163536.142000", "163536.144000", "163536.147000", "163536.149000", "163536.152000", "163536.155000", "163536.157000", "163536.160000", "163536.162000", "163536.165000", "163536.167000", "163536.170000", "163536.172000", "163616.103000", "163616.106000", "163616.108000", "163616.111000", "163616.113000", "163616.116000", "163616.119000", "163616.121000", "163616.124000", "163616.126000", "163616.129000", "163616.131000", "163616.134000", "163616.136000", "163616.139000", "163616.141000", "163616.144000", "163616.146000", "163616.149000", "163616.152000", "163616.154000", "163616.157000", "163616.159000", "163616.162000", "163616.164000", "163616.167000", "163616.169000", "163656.123000", "163656.126000", "163656.128000", "163656.131000", "163656.133000", "163656.136000", "163656.139000", "163656.141000", "163656.144000", "163656.146000", "163656.149000", "163656.151000", "163656.154000", "163656.156000", "163656.159000", "163656.161000", "163656.164000", "163656.166000", "163656.169000", "163656.172000", "163656.174000", "163656.177000", "163656.179000", "163656.182000", "163656.184000", "163656.187000", "163656.189000", "163736.126000", "163736.129000", "163736.132000", "163736.134000", "163736.137000", "163736.139000", "163736.142000", "163736.145000", "163736.147000", "163736.150000", "163736.158000", "163736.160000", "163736.163000", "163736.165000", "163736.168000", "163736.170000", "163736.173000", "163736.175000", "163736.178000", "163736.180000", "163736.183000", "163736.186000", "163736.188000", "163736.191000", "163736.193000", "163736.196000", "163758.487000", "163758.489000", "163758.492000", "163758.495000", "163758.497000", "163758.500000", "163758.502000", "163758.505000", "163758.508000", "163758.510000", "163758.513000", "163758.515000", "163758.518000", "163758.521000", "163758.523000", "163758.526000"],
