{
  "AcquisitionMatrixPE": 104,
  "AcquisitionNumber": 1,
  "AcquisitionTime": "17:38:17.072500",
  "BandwidthPerPixelPhaseEncode": 17.17,
  "BaseResolution": 104,
  "BodyPartExamined": "BRAIN",
  "CoilCombinationMethod": "Sum of Squares",
  "ConsistencyInfo": "N4_VE11C_LATEST_20160120",
  "ConversionSoftware": "dcm2niix",
  "ConversionSoftwareVersion": "v1.0.20211006",
  "DerivedVendorReportedEchoSpacing": 0.000560011,
  "DeviceSerialNumber": "167006",
  "DwellTime": 2.1e-06,
  "EchoTime": 0.037,
  "EchoTrainLength": 104,
  "EffectiveEchoSpacing": 0.000560011,
  "FlipAngle": 52,
  "HeudiconvVersion": "0.5.3.post569+g418601f",
  "ImageComments": "Unaliased MB4/PE3/LB",
  "ImageOrientationPatientDICOM": [0.999632, -0.0265679, 0.00548005, 0.0267, 0.927893, -0.37189],
  "ImageOrientationText": "Tra>Cor(-21.8)>Sag(-0.3)",
  "ImageType": [
    "ORIGINAL",
    "PRIMARY",
    "M",
    "MB",
    "ND",
    "MOSAIC"
],
  "ImagingFrequency": 123.259,
  "InPlanePhaseEncodingDirectionDICOM": "COL",
  "InstitutionAddress": "Chemin Queen-Mary 4565,Montreal,District,CA,H3W 1W5",
  "InstitutionName": "IUGM",
  "InstitutionalDepartmentName": "Department",
  "MRAcquisitionType": "2D",
  "MagneticFieldStrength": 3,
  "Manufacturer": "Siemens",
  "ManufacturersModelName": "Prisma_fit",
  "MatrixCoilMode": "SENSE",
  "Modality": "MR",
  "MultibandAccelerationFactor": 4,
  "PartialFourier": 1,
  "PatientPosition": "HFS",
  "PercentPhaseFOV": 100,
  "PercentSampling": 100,
  "PhaseEncodingDirection": "j",
  "PhaseEncodingSteps": 104,
  "PhaseResolution": 1,
  "PixelBandwidth": 2290,
  "ProcedureStepDescription": "games^mario",
  "ProtocolName": "func_task-mario_run-01",
  "PulseSequenceDetails": "%CustomerSeq%\\cmrr_mbep2d_bold",
  "ReceiveCoilActiveElements": "HC1-7;NC1,2",
  "ReceiveCoilName": "HeadNeck_64",
  "ReconMatrixPE": 104,
  "RepetitionTime": 1.49,
  "SAR": 0.0544257,
  "ScanOptions": "FS",
  "ScanningSequence": "EP",
  "SequenceName": "epfid2d1_104",
  "SequenceVariant": "SK\\SS",
  "SeriesDescription": "func_task-mario_run-01",
  "SeriesNumber": 10,
  "ShimSetting": [612, -7240, -8844, 391, 4, -337, 16, 39],
  "SliceThickness": 2,
  "SliceTiming": [0, 0.785, 0.0975, 0.8825, 0.195, 0.98, 0.295, 1.0775, 0.3925, 1.175, 0.49, 1.275, 0.5875, 1.3725, 0.685, 0, 0.785, 0.0975, 0.8825, 0.195, 0.98, 0.295, 1.0775, 0.3925, 1.175, 0.49, 1.275, 0.5875, 1.3725, 0.685, 0, 0.785, 0.0975, 0.8825, 0.195, 0.98, 0.295, 1.0775, 0.3925, 1.175, 0.49, 1.275, 0.5875, 1.3725, 0.685, 0, 0.785, 0.0975, 0.8825, 0.195, 0.98, 0.295, 1.0775, 0.3925, 1.175, 0.49, 1.275, 0.5875, 1.3725, 0.685],
  "SoftwareVersions": "syngo MR E11",
  "SpacingBetweenSlices": 2,
  "StationName": "MRC35049",
  "TaskName": "mario",
  "TotalReadoutTime": 0.0576811,
  "TxRefAmp": 268.687,
  "WipMemBlock": "0e7dbc88-416d-4874-843c-7dbf038c7695||Sequence: R016 ve11c/master r/e634e98; Dec 19 2017 11:00:25 by eja",
  "dcmmeta_affine": [
    [-1.9992640018463135, 0.05339999869465828, -0.009590914472937584, 101.89346313476562],
    [0.05313587933778763, 1.8557853698730469, -0.7437991499900818, -63.65454864501953],
    [0.010960099287331104, 0.743780255317688, 1.8565211296081543, -75.33134460449219],
    [0.0, 0.0, 0.0, 1.0]
],
  "dcmmeta_reorient_transform": [
    [0.0, -1.0, 0.0, 103.0],
    [1.0, 0.0, 0.0, 0.0],
    [0.0, 0.0, 1.0, 0.0],
    [0.0, 0.0, 0.0, 1.0]
],
  "dcmmeta_shape": [104, 104, 60, 558],
  "dcmmeta_slice_dim": 2,
  "dcmmeta_version": 0.6,
  "global": {
    "const": {
      "AcquisitionMatrix": [104, 0, 0, 104],
      "AngioFlag": "N",
      "BitsAllocated": 16,
      "BitsStored": 16,
      "BodyPartExamined": "BRAIN",
      "Columns": 832,
      "EchoNumbers": 1,
      "EchoTime": 37.0,
      "EchoTrainLength": 104,
      "FlipAngle": 52.0,
      "HighBit": 15,
      "ImageOrientationPatient": [0.99963198908897, -0.0265679402113, 0.00548004953995, 0.0266999996349, 0.92789268372435, -0.3718901417224],
      "ImagePositionPatient": [-854.56335066705, -783.65575715954, 268.02456815578],
      "ImageType": [
        "ORIGINAL",
        "PRIMARY",
        "M",
        "MB",
        "ND",
        "MOSAIC"
],
      "ImagedNucleus": "1H",
      "ImagingFrequency": 123.258811,
      "InPlanePhaseEncodingDirection": "COL",
      "MRAcquisitionType": "2D",
      "MagneticFieldStrength": 3.0,
      "Manufacturer": "SIEMENS",
      "ManufacturerModelName": "Prisma_fit",
      "Modality": "MR",
      "NumberOfAverages": 1.0,
      "NumberOfPhaseEncodingSteps": 104,
      "PercentPhaseFieldOfView": 100.0,
      "PercentSampling": 100.0,
      "PerformedProcedureStepStartTime": "170835.898000",
      "PhotometricInterpretation": "MONOCHROME2",
      "PixelBandwidth": 2290.0,
      "PixelRepresentation": 0,
      "PixelSpacing": [2.0, 2.0],
      "ProtocolName": "func_task-mario_run-01",
      "RepetitionTime": 1490.0,
      "Rows": 832,
      "SAR": 0.05442570673282,
      "SamplesPerPixel": 1,
      "ScanOptions": "FS",
      "ScanningSequence": "EP",
      "SequenceName": "epfid2d1_104",
      "SequenceVariant": [
        "SK",
        "SS"
],
      "SeriesDescription": "func_task-mario_run-01",
      "SeriesNumber": 10,
      "SeriesTime": "173918.129000",
      "SliceLocation": -46.742644880212,
      "SliceThickness": 2.0,
      "SmallestImagePixelValue": 0,
      "SoftwareVersions": "syngo MR E11",
      "SpacingBetweenSlices": 1.9999999453105,
      "SpecificCharacterSet": "ISO_IR 100",
      "StudyID": "1",
      "StudyTime": "170835.842000",
      "TransmitCoilName": "Body",
      "VariableFlipAngleFlag": "N",
      "WindowCenterWidthExplanation": "Algo1",
      "dBdt": 0.0},
    "slices": {}
  },
  "time": {
    "samples": {
      "AcquisitionNumber": [1, 2, 3, 4, 5, 6, 7, 8, 9, 10, 11, 12, 13, 14, 15, 16, 17, 18, 19, 20, 21, 22, 23, 24, 25, 26, 27, 28, 29, 30, 31, 32, 33, 34, 35, 36, 37, 38, 39, 40, 41, 42, 43, 44, 45, 46, 47, 48, 49, 50, 51, 52, 53, 54, 55, 56, 57, 58, 59, 60, 61, 62, 63, 64, 65, 66, 67, 68, 69, 70, 71, 72, 73, 74, 75, 76, 77, 78, 79, 80, 81, 82, 83, 84, 85, 86, 87, 88, 89, 90, 91, 92, 93, 94, 95, 96, 97, 98, 99, 100, 101, 102, 103, 104, 105, 106, 107, 108, 109, 110, 111, 112, 113, 114, 115, 116, 117, 118, 119, 120, 121, 122, 123, 124, 125, 126, 127, 128, 129, 130, 131, 132, 133, 134, 135, 136, 137, 138, 139, 140, 141, 142, 143, 144, 145, 146, 147, 148, 149, 150, 151, 152, 153, 154, 155, 156, 157, 158, 159, 160, 161, 162, 163, 164, 165, 166, 167, 168, 169, 170, 171, 172, 173, 174, 175, 176, 177, 178, 179, 180, 181, 182, 183, 184, 185, 186, 187, 188, 189, 190, 191, 192, 193, 194, 195, 196, 197, 198, 199, 200, 201, 202, 203, 204, 205, 206, 207, 208, 209, 210, 211, 212, 213, 214, 215, 216, 217, 218, 219, 220, 221, 222, 223, 224, 225, 226, 227, 228, 229, 230, 231, 232, 233, 234, 235, 236, 237, 238, 239, 240, 241, 242, 243, 244, 245, 246, 247, 248, 249, 250, 251, 252, 253, 254, 255, 256, 257, 258, 259, 260, 261, 262, 263, 264, 265, 266, 267, 268, 269, 270, 271, 272, 273, 274, 275, 276, 277, 278, 279, 280, 281, 282, 283, 284, 285, 286, 287, 288, 289, 290, 291, 292, 293, 294, 295, 296, 297, 298, 299, 300, 301, 302, 303, 304, 305, 306, 307, 308, 309, 310, 311, 312, 313, 314, 315, 316, 317, 318, 319, 320, 321, 322, 323, 324, 325, 326, 327, 328, 329, 330, 331, 332, 333, 334, 335, 336, 337, 338, 339, 340, 341, 342, 343, 344, 345, 346, 347, 348, 349, 350, 351, 352, 353, 354, 355, 356, 357, 358, 359, 360, 361, 362, 363, 364, 365, 366, 367, 368, 369, 370, 371, 372, 373, 374, 375, 376, 377, 378, 379, 380, 381, 382, 383, 384, 385, 386, 387, 388, 389, 390, 391, 392, 393, 394, 395, 396, 397, 398, 399, 400, 401, 402, 403, 404, 405, 406, 407, 408, 409, 410, 411, 412, 413, 414, 415, 416, 417, 418, 419, 420, 421, 422, 423, 424, 425, 426, 427, 428, 429, 430, 431, 432, 433, 434, 435, 436, 437, 438, 439, 440, 441, 442, 443, 444, 445, 446, 447, 448, 449, 450, 451, 452, 453, 454, 455, 456, 457, 458, 459, 460, 461, 462, 463, 464, 465, 466, 467, 468, 469, 470, 471, 472, 473, 474, 475, 476, 477, 478, 479, 480, 481, 482, 483, 484, 485, 486, 487, 488, 489, 490, 491, 492, 493, 494, 495, 496, 497, 498, 499, 500, 501, 502, 503, 504, 505, 506, 507, 508, 509, 510, 511, 512, 513, 514, 515, 516, 517, 518, 519, 520, 521, 522, 523, 524, 525, 526, 527, 528, 529, 530, 531, 532, 533, 534, 535, 536, 537, 538, 539, 540, 541, 542, 543, 544, 545, 546, 547, 548, 549, 550, 551, 552, 553, 554, 555, 556, 557, 558],
      "AcquisitionTime": ["173817.072500", "173818.562500", "173820.052500", "173821.542500", "173823.032500", "173824.522500", "173826.012500", "173827.502500", "173828.992500", "173830.482500", "173831.972500", "173833.462500", "173834.952500", "173836.442500", "173837.932500", "173839.422500", "173840.912500", "173842.402500", "173843.892500", "173845.382500", "173846.872500", "173848.362500", "173849.852500", "173851.342500", "173852.832500", "173854.322500", "173855.812500", "173857.302500", "173858.792500", "173900.282500", "173901.772500", "173903.262500", "173904.752500", "173906.242500", "173907.732500", "173909.222500", "173910.712500", "173912.202500", "173913.692500", "173915.182500", "173916.672500", "173918.162500", "173919.652500", "173921.142500", "173922.632500", "173924.122500", "173925.612500", "173927.102500", "173928.592500", "173930.082500", "173931.572500", "173933.062500", "173934.552500", "173936.042500", "173937.532500", "173939.022500", "173940.512500", "173942.002500", "173943.492500", "173944.982500", "173946.472500", "173947.962500", "173949.452500", "173950.942500", "173952.432500", "173953.922500", "173955.412500", "173956.902500", "173958.392500", "173959.882500", "174001.372500", "174002.862500", "174004.352500", "174005.842500", "174007.332500", "174008.822500", "174010.312500", "174011.802500", "174013.292500", "174014.782500", "174016.272500", "174017.762500", "174019.252500", "174020.742500", "174022.232500", "174023.722500", "174025.212500", "174026.702500", "174028.192500", "174029.682500", "174031.172500", "174032.662500", "174034.152500", "174035.642500", "174037.132500", "174038.622500", "174040.112500", "174041.602500", "174043.092500", "174044.582500", "174046.072500", "174047.562500", "174049.052500", "174050.542500", "174052.032500", "174053.522500", "174055.012500", "174056.502500", "174057.992500", "174059.482500", "174100.972500", "174102.462500", "174103.952500", "174105.442500", "174106.932500", "174108.422500", "174109.912500", "174111.402500", "174112.892500", "174114.382500", "174115.872500", "174117.362500", "174118.852500", "174120.342500", "174121.832500", "174123.322500", "174124.812500", "174126.302500", "174127.792500", "174129.282500", "174130.772500", "174132.262500", "174133.752500", "174135.242500", "174136.732500", "174138.222500", "174139.712500", "174141.202500", "174142.692500", "174144.182500", "174145.672500", "174147.162500", "174148.652500", "174150.142500", "174151.632500", "174153.122500", "174154.612500", "174156.102500", "174157.592500", "174159.082500", "174200.572500", "174202.062500", "174203.552500", "174205.042500", "174206.532500", "174208.022500", "174209.512500", "174211.002500", "174212.492500", "174213.982500", "174215.472500", "174216.962500", "174218.452500", "174219.942500", "174221.432500", "174222.922500", "174224.412500", "174225.902500", "174227.392500", "174228.882500", "174230.372500", "174231.862500", "174233.352500", "174234.842500", "174236.332500", "174237.822500", "174239.312500", "174240.802500", "174242.292500", "174243.782500", "174245.272500", "174246.762500", "174248.252500", "174249.742500", "174251.232500", "174252.722500", "174254.212500", "174255.702500", "174257.192500", "174258.682500", "174300.172500", "174301.662500", "174303.152500", "174304.642500", "174306.132500", "174307.622500", "174309.112500", "174310.602500", "174312.092500", "174313.582500", "174315.072500", "174316.562500", "174318.052500", "174319.542500", "174321.032500", "174322.522500", "174324.012500", "174325.502500", "174326.992500", "174328.482500", "174329.972500", "174331.462500", "174332.952500", "174334.442500", "174335.932500", "174337.422500", "174338.912500", "174340.402500", "174341.892500", "174343.382500", "174344.872500", "174346.362500", "174347.852500", "174349.342500", "174350.832500", "174352.322500", "174353.812500", "174355.302500", "174356.792500", "174358.282500", "174359.772500", "174401.262500", "174402.752500", "174404.242500", "174405.732500", "174407.222500", "174408.712500", "174410.202500", "174411.692500", "174413.182500", "174414.672500", "174416.162500", "174417.652500", "174419.142500", "174420.632500", "174422.122500", "174423.612500", "174425.102500", "174426.592500", "174428.082500", "174429.572500", "174431.062500", "174432.552500", "174434.042500", "174435.532500", "174437.022500", "174438.512500", "174440.002500", "174441.492500", "174442.982500", "174444.472500", "174445.962500", "174447.452500", "174448.942500", "174450.432500", "174451.922500", "174453.412500", "174454.902500", "174456.392500", "174457.882500", "174459.372500", "174500.862500", "174502.352500", "174503.842500", "174505.332500", "174506.822500", "174508.312500", "174509.802500", "174511.292500", "174512.782500", "174514.272500", "174515.762500", "174517.252500", "174518.742500", "174520.232500", "174521.722500", "174523.212500", "174524.702500", "174526.192500", "174527.682500", "174529.172500", "174530.662500", "174532.152500", "174533.642500", "174535.132500", "174536.622500", "174538.112500", "174539.602500", "174541.092500", "174542.582500", "174544.072500", "174545.562500", "174547.052500", "174548.542500", "174550.032500", "174551.522500", "174553.012500", "174554.502500", "174555.992500", "174557.482500", "174558.972500", "174600.462500", "174601.952500", "174603.442500", "174604.932500", "174606.422500", "174607.912500", "174609.402500", "174610.892500", "174612.382500", "174613.872500", "174615.362500", "174616.852500", "174618.342500", "174619.832500", "174621.322500", "174622.812500", "174624.302500", "174625.792500", "174627.282500", "174628.772500", "174630.262500", "174631.752500", "174633.242500", "174634.732500", "174636.222500", "174637.712500", "174639.202500", "174640.692500", "174642.182500", "174643.672500", "174645.162500", "174646.652500", "174648.142500", "174649.632500", "174651.122500", "174652.612500", "174654.102500", "174655.592500", "174657.082500", "174658.572500", "174700.062500", "174701.552500", "174703.042500", "174704.532500", "174706.022500", "174707.512500", "174709.002500", "174710.492500", "174711.982500", "174713.472500", "174714.962500", "174716.452500", "174717.942500", "174719.432500", "174720.922500", "174722.412500", "174723.902500", "174725.392500", "174726.882500", "174728.372500", "174729.862500", "174731.352500", "174732.842500", "174734.332500", "174735.822500", "174737.312500", "174738.802500", "174740.292500", "174741.782500", "174743.272500", "174744.762500", "174746.252500", "174747.742500", "174749.232500", "174750.722500", "174752.212500", "174753.702500", "174755.192500", "174756.682500", "174758.172500", "174759.662500", "174801.152500", "174802.642500", "174804.132500", "174805.622500", "174807.112500", "174808.602500", "174810.092500", "174811.582500", "174813.072500", "174814.562500", "174816.052500", "174817.542500", "174819.032500", "174820.522500", "174822.012500", "174823.502500", "174824.992500", "174826.482500", "174827.972500", "174829.462500", "174830.952500", "174832.442500", "174833.932500", "174835.422500", "174836.912500", "174838.402500", "174839.892500", "174841.382500", "174842.872500", "174844.362500", "174845.852500", "174847.342500", "174848.832500", "174850.322500", "174851.812500", "174853.302500", "174854.792500", "174856.282500", "174857.772500", "174859.262500", "174900.752500", "174902.242500", "174903.732500", "174905.222500", "174906.712500", "174908.202500", "174909.692500", "174911.182500", "174912.672500", "174914.162500", "174915.652500", "174917.142500", "174918.632500", "174920.122500", "174921.612500", "174923.102500", "174924.592500", "174926.082500", "174927.572500", "174929.062500", "174930.552500", "174932.042500", "174933.532500", "174935.022500", "174936.512500", "174938.002500", "174939.492500", "174940.982500", "174942.472500", "174943.962500", "174945.452500", "174946.942500", "174948.432500", "174949.922500", "174951.412500", "174952.902500", "174954.392500", "174955.882500", "174957.372500", "174958.862500", "175000.352500", "175001.842500", "175003.332500", "175004.822500", "175006.312500", "175007.802500", "175009.292500", "175010.782500", "175012.272500", "175013.762500", "175015.252500", "175016.742500", "175018.232500", "175019.722500", "175021.212500", "175022.702500", "175024.192500", "175025.682500", "175027.172500", "175028.662500", "175030.152500", "175031.642500", "175033.132500", "175034.622500", "175036.112500", "175037.602500", "175039.092500", "175040.582500", "175042.072500", "175043.562500", "175045.052500", "175046.542500", "175048.032500", "175049.522500", "175051.012500", "175052.502500", "175053.992500", "175055.482500", "175056.972500", "175058.462500", "175059.952500", "175101.442500", "175102.932500", "175104.422500", "175105.912500", "175107.402500", "175108.892500", "175110.382500", "175111.872500", "175113.362500", "175114.852500", "175116.342500", "175117.832500", "175119.322500", "175120.812500", "175122.302500", "175123.792500", "175125.282500", "175126.772500", "175128.262500", "175129.752500", "175131.242500", "175132.732500", "175134.222500", "175135.712500", "175137.202500", "175138.692500", "175140.182500", "175141.672500", "175143.162500", "175144.652500", "175146.142500", "175147.632500", "175149.122500", "175150.612500", "175152.102500", "175153.592500", "175155.082500", "175156.572500", "175158.062500", "175159.552500", "175201.042500", "175202.532500", "175204.022500", "175205.512500", "175207.002500"],
      "ContentTime": ["173918.132000", "173918.137000", "173918.140000", "173918.143000", "173918.147000", "173918.150000", "173938.090000", "173938.094000", "173938.097000", "173938.101000", "173938.104000", "173938.107000", "173938.111000", "173938.114000", "173938.117000", "173938.121000", "173938.124000", "173938.127000", "173938.131000", "173938.134000", "173938.137000", "173938.141000", "173938.144000", "173938.148000", "173938.157000", "173938.160000", "174018.091000", "174018.095000", "174018.098000", "174018.102000", "174018.105000", "174018.108000", "174018.112000", "174018.115000", "174018.118000", "174018.122000", "174018.130000", "174018.134000", "174018.137000", "174018.140000", "174018.144000", "174018.147000", "174018.157000", "174018.160000", "174018.163000", "174018.166000", "174018.171000", "174018.174000", "174018.178000", "174018.181000", "174018.185000", "174018.188000", "174018.191000", "174018.195000", "174018.198000", "174018.201000", "174018.205000", "174018.208000", "174018.211000", "174018.215000", "174018.218000", "174018.222000", "174018.225000", "174018.229000", "174018.232000", "174018.235000", "174038.091000", "174038.095000", "174038.098000", "174038.101000", "174038.105000", "174038.108000", "174038.112000", "174038.115000", "174038.118000", "174038.122000", "174038.125000", "174038.128000", "174038.132000", "174038.135000", "174038.138000", "174038.142000", "174038.145000", "174038.148000", "174038.152000", "174038.155000", "174058.091000", "174058.095000", "174058.098000", "174058.110000", "174058.114000", "174058.117000", "174058.120000", "174058.136000", "174058.140000", "174058.152000", "174058.156000", "174058.159000", "174058.162000", "174058.166000", "174058.169000", "174058.173000", "174058.176000", "174058.179000", "174058.183000", "174058.186000", "174058.189000", "174138.090000", "174138.094000", "174138.097000", "174138.101000", "174138.104000", "174138.107000", "174138.111000", "174138.114000", "174138.118000", "174138.121000", "174138.124000", "174138.128000", "174138.131000", "174138.134000", "174138.138000", "174138.141000", "174138.144000", "174138.148000", "174138.151000", "174138.155000", "174138.158000", "174138.161000", "174138.165000", "174138.168000", "174138.171000", "174138.175000", "174138.178000", "174218.090000", "174218.094000", "174218.097000", "174218.101000", "174218.104000", "174218.107000", "174218.111000", "174218.114000", "174218.124000", "174218.128000", "174218.131000", "174218.134000", "174218.138000", "174218.141000", "174218.145000", "174218.148000", "174218.151000", "174218.155000", "174218.158000", "174218.162000", "174218.165000", "174218.168000", "174218.172000", "174218.175000", "174218.178000", "174218.182000", "174218.185000", "174258.091000", "174258.095000", "174258.098000", "174258.102000", "174258.105000", "174258.108000", "174258.112000", "174258.115000", "174258.119000", "174258.122000", "174258.125000", "174258.129000", "174258.132000", "174258.135000", "174258.139000", "174258.142000", "174258.145000", "174258.149000", "174258.152000", "174258.155000", "174258.159000", "174258.162000", "174258.166000", "174258.169000", "174258.172000", "174258.176000", "174258.179000", "174338.090000", "174338.094000", "174338.097000", "174338.100000", "174338.104000", "174338.120000", "174338.124000", "174338.127000", "174338.135000", "174338.139000", "174338.142000", "174338.145000", "174338.149000", "174338.152000", "174338.155000", "174338.159000", "174338.162000", "174338.165000", "174338.169000", "174338.172000", "174338.175000", "174338.179000", "174338.182000", "174338.185000", "174338.189000", "174338.192000", "174338.196000", "174418.090000", "174418.094000", "174418.097000", "174418.101000", "174418.104000", "174418.108000", "174418.111000", "174418.114000", "174418.118000", "174418.121000", "174418.125000", "174418.128000", "174418.131000", "174418.135000", "174418.138000", "174418.142000", "174418.151000", "174418.155000", "174418.158000", "174418.161000", "174418.165000", "174418.168000", "174418.171000", "174418.176000", "174418.179000", "174418.182000", "174458.091000", "174458.095000", "174458.098000", "174458.102000", "174458.105000", "174458.108000", "174458.120000", "174458.124000", "174458.127000", "174458.130000", "174458.134000", "174458.137000", "174458.140000", "174458.144000", "174458.147000", "174458.151000", "174458.154000", "174458.157000", "174458.161000", "174458.164000", "174458.167000", "174458.171000", "174458.174000", "174458.177000", "174458.181000", "174458.184000", "174458.188000", "174538.091000", "174538.095000", "174538.098000", "174538.102000", "174538.105000", "174538.109000", "174538.112000", "174538.115000", "174538.119000", "174538.122000", "174538.125000", "174538.129000", "174538.132000", "174538.135000", "174538.139000", "174538.142000", "174538.146000", "174538.149000", "174538.152000", "174538.156000", "174538.159000", "174538.162000", "174538.166000", "174538.169000", "174538.172000", "174538.176000", "174538.179000", "174618.091000", "174618.094000", "174618.097000", "174618.105000", "174618.109000", "174618.112000", "174618.115000", "174618.119000", "174618.122000", "174618.125000", "174618.129000", "174618.132000", "174618.136000", "174618.139000", "174618.142000", "174618.146000", "174618.149000", "174618.153000", "174618.156000", "174618.159000", "174618.163000", "174618.166000", "174618.169000", "174618.173000", "174618.176000", "174618.179000", "174618.183000", "174658.090000", "174658.094000", "174658.102000", "174658.106000", "174658.109000", "174658.113000", "174658.116000", "174658.119000", "174658.123000", "174658.126000", "174658.129000", "174658.133000", "174658.136000", "174658.139000", "174658.143000", "174658.146000", "174658.150000", "174658.153000", "174658.156000", "174658.160000", "174658.163000", "174658.166000", "174658.170000", "174658.173000", "174658.177000", "174658.180000", "174658.183000", "174738.091000", "174738.095000", "174738.098000", "174738.102000", "174738.105000", "174738.108000", "174738.112000", "174738.115000", "174738.119000", "174738.122000", "174738.125000", "174738.129000", "174738.132000", "174738.135000", "174738.139000", "174738.142000", "174738.145000", "174738.149000", "174738.152000", "174738.156000", "174738.159000", "174738.170000", "174738.173000", "174738.176000", "174738.180000", "174738.183000", "174738.186000", "174818.090000", "174818.094000", "174818.098000", "174818.101000", "174818.119000", "174818.122000", "174818.125000", "174818.130000", "174818.134000", "174818.137000", "174818.147000", "174818.151000", "174818.154000", "174818.158000", "174818.161000", "174818.164000", "174818.168000", "174818.171000", "174818.174000", "174818.178000", "174818.190000", "174818.193000", "174818.197000", "174818.200000", "174818.203000", "174818.207000", "174818.210000", "174858.090000", "174858.094000", "174858.098000", "174858.101000", "174858.104000", "174858.108000", "174858.111000", "174858.114000", "174858.118000", "174858.121000", "174858.124000", "174858.135000", "174858.138000", "174858.142000", "174858.145000", "174858.149000", "174858.152000", "174858.155000", "174858.159000", "174858.162000", "174858.166000", "174858.170000", "174858.173000", "174858.177000", "174858.180000", "174858.183000", "174938.091000", "174938.095000", "174938.098000", "174938.102000", "174938.105000", "174938.109000", "174938.112000", "174938.115000", "174938.119000", "174938.132000", "174938.135000", "174938.143000", "174938.146000", "174938.150000", "174938.153000", "174938.156000", "174938.160000", "174938.163000", "174938.166000", "174938.170000", "174938.173000", "174938.181000", "174938.185000", "174938.188000", "174938.191000", "174938.195000", "174938.198000", "175018.091000", "175018.095000", "175018.098000", "175018.102000", "175018.105000", "175018.109000", "175018.112000", "175018.115000", "175018.119000", "175018.122000", "175018.125000", "175018.138000", "175018.141000", "175018.145000", "175018.148000", "175018.160000", "175018.163000", "175018.167000", "175018.170000", "175018.173000", "175018.177000", "175018.180000", "175018.184000", "175018.187000", "175018.190000", "175018.194000", "175018.198000", "175058.090000", "175058.094000", "175058.097000", "175058.101000", "175058.104000", "175058.108000", "175058.111000", "175058.114000", "175058.118000", "175058.121000", "175058.125000", "175058.136000", "175058.139000", "175058.143000", "175058.146000", "175058.150000", "175058.153000", "175058.156000", "175058.160000", "175058.163000", "175058.166000", "175058.170000", "175058.173000", "175058.176000", "175058.180000", "175058.183000", "175058.187000", "175138.090000", "175138.094000", "175138.099000", "175138.102000", "175138.105000", "175138.109000", "175138.112000", "175138.115000", "175138.119000", "175138.122000", "175138.125000", "175138.129000", "175138.132000", "175138.136000", "175138.139000", "175138.142000", "175138.146000", "175138.149000", "175138.152000", "175138.156000", "175138.159000", "175138.162000", "175138.166000", "175138.169000", "175138.173000", "175138.176000", "175138.179000", "175210.422000", "175210.426000", "175210.429000", "175210.438000", "175210.441000", "175210.444000", "175210.448000", "175210.451000", "175210.454000", "175210.458000", "175210.461000", "175210.464000", "175210.468000", "175210.471000", "175210.474000", "175210.478000", "175210.481000", "175210.485000", "175210.499000", "175210.502000", "175210.506000"],
