{
  "AcquisitionMatrixPE": 104,
  "AcquisitionNumber": 1,
  "AcquisitionTime": "18:31:23.527500",
  "BandwidthPerPixelPhaseEncode": 17.17,
  "BaseResolution": 104,
  "BodyPartExamined": "BRAIN",
  "CoilCombinationMethod": "Sum of Squares",
  "ConsistencyInfo": "N4_VE11C_LATEST_20160120",
  "ConversionSoftware": "dcm2niix",
  "ConversionSoftwareVersion": "v1.0.20211006",
  "DerivedVendorReportedEchoSpacing": 0.000560011,
  "DeviceSerialNumber": "167006",
  "DwellTime": 2.1e-06,
  "EchoTime": 0.037,
  "EchoTrainLength": 104,
  "EffectiveEchoSpacing": 0.000560011,
  "FlipAngle": 52,
  "HeudiconvVersion": "0.5.3.post569+g418601f",
  "ImageComments": "Unaliased MB4/PE3/LB",
  "ImageOrientationPatientDICOM": [0.999632, -0.0265679, 0.00548005, 0.0267, 0.927893, -0.37189],
  "ImageOrientationText": "Tra>Cor(-21.8)>Sag(-0.3)",
  "ImageType": [
    "ORIGINAL",
    "PRIMARY",
    "M",
    "MB",
    "ND",
    "MOSAIC"
],
  "ImagingFrequency": 123.259,
  "InPlanePhaseEncodingDirectionDICOM": "COL",
  "InstitutionAddress": "Chemin Queen-Mary 4565,Montreal,District,CA,H3W 1W5",
  "InstitutionName": "IUGM",
  "InstitutionalDepartmentName": "Department",
  "MRAcquisitionType": "2D",
  "MagneticFieldStrength": 3,
  "Manufacturer": "Siemens",
  "ManufacturersModelName": "Prisma_fit",
  "MatrixCoilMode": "SENSE",
  "Modality": "MR",
  "MultibandAccelerationFactor": 4,
  "PartialFourier": 1,
  "PatientPosition": "HFS",
  "PercentPhaseFOV": 100,
  "PercentSampling": 100,
  "PhaseEncodingDirection": "j",
  "PhaseEncodingSteps": 104,
  "PhaseResolution": 1,
  "PixelBandwidth": 2290,
  "ProcedureStepDescription": "games^mario",
  "ProtocolName": "func_task-mario_run-04",
  "PulseSequenceDetails": "%CustomerSeq%\\cmrr_mbep2d_bold",
  "ReceiveCoilActiveElements": "HC1-7;NC1,2",
  "ReceiveCoilName": "HeadNeck_64",
  "ReconMatrixPE": 104,
  "RepetitionTime": 1.49,
  "SAR": 0.0544257,
  "ScanOptions": "FS",
  "ScanningSequence": "EP",
  "SequenceName": "epfid2d1_104",
  "SequenceVariant": "SK\\SS",
  "SeriesDescription": "func_task-mario_run-04",
  "SeriesNumber": 19,
  "ShimSetting": [612, -7240, -8844, 391, 4, -337, 16, 39],
  "SliceThickness": 2,
  "SliceTiming": [0, 0.7825, 0.0975, 0.88, 0.195, 0.98, 0.2925, 1.0775, 0.3925, 1.175, 0.49, 1.2725, 0.5875, 1.37, 0.685, 0, 0.7825, 0.0975, 0.88, 0.195, 0.98, 0.2925, 1.0775, 0.3925, 1.175, 0.49, 1.2725, 0.5875, 1.37, 0.685, 0, 0.7825, 0.0975, 0.88, 0.195, 0.98, 0.2925, 1.0775, 0.3925, 1.175, 0.49, 1.2725, 0.5875, 1.37, 0.685, 0, 0.7825, 0.0975, 0.88, 0.195, 0.98, 0.2925, 1.0775, 0.3925, 1.175, 0.49, 1.2725, 0.5875, 1.37, 0.685],
  "SoftwareVersions": "syngo MR E11",
  "SpacingBetweenSlices": 2,
  "StationName": "MRC35049",
  "TaskName": "mario",
  "TotalReadoutTime": 0.0576811,
  "TxRefAmp": 268.687,
  "WipMemBlock": "143ced52-c290-4a96-9131-b4ab6617c142||Sequence: R016 ve11c/master r/e634e98; Dec 19 2017 11:00:25 by eja",
  "dcmmeta_affine": [
    [-1.9992640018463135, 0.05339999869465828, -0.009590914472937584, 101.89346313476562],
    [0.05313587933778763, 1.8557853698730469, -0.7437991499900818, -63.65454864501953],
    [0.010960099287331104, 0.743780255317688, 1.8565211296081543, -75.33134460449219],
    [0.0, 0.0, 0.0, 1.0]
],
  "dcmmeta_reorient_transform": [
    [0.0, -1.0, 0.0, 103.0],
    [1.0, 0.0, 0.0, 0.0],
    [0.0, 0.0, 1.0, 0.0],
    [0.0, 0.0, 0.0, 1.0]
],
  "dcmmeta_shape": [104, 104, 60, 464],
  "dcmmeta_slice_dim": 2,
  "dcmmeta_version": 0.6,
  "global": {
    "const": {
      "AcquisitionMatrix": [104, 0, 0, 104],
      "AngioFlag": "N",
      "BitsAllocated": 16,
      "BitsStored": 16,
      "BodyPartExamined": "BRAIN",
      "Columns": 832,
      "EchoNumbers": 1,
      "EchoTime": 37.0,
      "EchoTrainLength": 104,
      "FlipAngle": 52.0,
      "HighBit": 15,
      "ImageOrientationPatient": [0.99963198908897, -0.0265679402113, 0.00548004953995, 0.0266999996349, 0.92789268372435, -0.3718901417224],
      "ImagePositionPatient": [-854.56335066705, -783.65575715954, 268.02456815578],
      "ImageType": [
        "ORIGINAL",
        "PRIMARY",
        "M",
        "MB",
        "ND",
        "MOSAIC"
],
      "ImagedNucleus": "1H",
      "ImagingFrequency": 123.258835,
      "InPlanePhaseEncodingDirection": "COL",
      "MRAcquisitionType": "2D",
      "MagneticFieldStrength": 3.0,
      "Manufacturer": "SIEMENS",
      "ManufacturerModelName": "Prisma_fit",
      "Modality": "MR",
      "NumberOfAverages": 1.0,
      "NumberOfPhaseEncodingSteps": 104,
      "PercentPhaseFieldOfView": 100.0,
      "PercentSampling": 100.0,
      "PerformedProcedureStepStartTime": "170835.898000",
      "PhotometricInterpretation": "MONOCHROME2",
      "PixelBandwidth": 2290.0,
      "PixelRepresentation": 0,
      "PixelSpacing": [2.0, 2.0],
      "ProtocolName": "func_task-mario_run-04",
      "RepetitionTime": 1490.0,
      "Rows": 832,
      "SAR": 0.05442570673282,
      "SamplesPerPixel": 1,
      "ScanOptions": "FS",
      "ScanningSequence": "EP",
      "SequenceName": "epfid2d1_104",
      "SequenceVariant": [
        "SK",
        "SS"
],
      "SeriesDescription": "func_task-mario_run-04",
      "SeriesNumber": 19,
      "SeriesTime": "183238.089000",
      "SliceLocation": -46.742644880212,
      "SliceThickness": 2.0,
      "SmallestImagePixelValue": 0,
      "SoftwareVersions": "syngo MR E11",
      "SpacingBetweenSlices": 1.9999999453105,
      "SpecificCharacterSet": "ISO_IR 100",
      "StudyID": "1",
      "StudyTime": "170835.842000",
      "TransmitCoilName": "Body",
      "VariableFlipAngleFlag": "N",
      "WindowCenterWidthExplanation": "Algo1",
      "dBdt": 0.0},
    "slices": {}
  },
  "time": {
    "samples": {
      "AcquisitionNumber": [1, 2, 3, 4, 5, 6, 7, 8, 9, 10, 11, 12, 13, 14, 15, 16, 17, 18, 19, 20, 21, 22, 23, 24, 25, 26, 27, 28, 29, 30, 31, 32, 33, 34, 35, 36, 37, 38, 39, 40, 41, 42, 43, 44, 45, 46, 47, 48, 49, 50, 51, 52, 53, 54, 55, 56, 57, 58, 59, 60, 61, 62, 63, 64, 65, 66, 67, 68, 69, 70, 71, 72, 73, 74, 75, 76, 77, 78, 79, 80, 81, 82, 83, 84, 85, 86, 87, 88, 89, 90, 91, 92, 93, 94, 95, 96, 97, 98, 99, 100, 101, 102, 103, 104, 105, 106, 107, 108, 109, 110, 111, 112, 113, 114, 115, 116, 117, 118, 119, 120, 121, 122, 123, 124, 125, 126, 127, 128, 129, 130, 131, 132, 133, 134, 135, 136, 137, 138, 139, 140, 141, 142, 143, 144, 145, 146, 147, 148, 149, 150, 151, 152, 153, 154, 155, 156, 157, 158, 159, 160, 161, 162, 163, 164, 165, 166, 167, 168, 169, 170, 171, 172, 173, 174, 175, 176, 177, 178, 179, 180, 181, 182, 183, 184, 185, 186, 187, 188, 189, 190, 191, 192, 193, 194, 195, 196, 197, 198, 199, 200, 201, 202, 203, 204, 205, 206, 207, 208, 209, 210, 211, 212, 213, 214, 215, 216, 217, 218, 219, 220, 221, 222, 223, 224, 225, 226, 227, 228, 229, 230, 231, 232, 233, 234, 235, 236, 237, 238, 239, 240, 241, 242, 243, 244, 245, 246, 247, 248, 249, 250, 251, 252, 253, 254, 255, 256, 257, 258, 259, 260, 261, 262, 263, 264, 265, 266, 267, 268, 269, 270, 271, 272, 273, 274, 275, 276, 277, 278, 279, 280, 281, 282, 283, 284, 285, 286, 287, 288, 289, 290, 291, 292, 293, 294, 295, 296, 297, 298, 299, 300, 301, 302, 303, 304, 305, 306, 307, 308, 309, 310, 311, 312, 313, 314, 315, 316, 317, 318, 319, 320, 321, 322, 323, 324, 325, 326, 327, 328, 329, 330, 331, 332, 333, 334, 335, 336, 337, 338, 339, 340, 341, 342, 343, 344, 345, 346, 347, 348, 349, 350, 351, 352, 353, 354, 355, 356, 357, 358, 359, 360, 361, 362, 363, 364, 365, 366, 367, 368, 369, 370, 371, 372, 373, 374, 375, 376, 377, 378, 379, 380, 381, 382, 383, 384, 385, 386, 387, 388, 389, 390, 391, 392, 393, 394, 395, 396, 397, 398, 399, 400, 401, 402, 403, 404, 405, 406, 407, 408, 409, 410, 411, 412, 413, 414, 415, 416, 417, 418, 419, 420, 421, 422, 423, 424, 425, 426, 427, 428, 429, 430, 431, 432, 433, 434, 435, 436, 437, 438, 439, 440, 441, 442, 443, 444, 445, 446, 447, 448, 449, 450, 451, 452, 453, 454, 455, 456, 457, 458, 459, 460, 461, 462, 463, 464],
      "AcquisitionTime": ["183123.527500", "183125.017500", "183126.507500", "183127.997500", "183129.487500", "183130.977500", "183132.467500", "183133.957500", "183135.447500", "183136.937500", "183138.427500", "183139.917500", "183141.407500", "183142.897500", "183144.387500", "183145.877500", "183147.367500", "183148.857500", "183150.347500", "183151.837500", "183153.327500", "183154.817500", "183156.307500", "183157.797500", "183159.287500", "183200.777500", "183202.267500", "183203.757500", "183205.247500", "183206.737500", "183208.227500", "183209.717500", "183211.207500", "183212.697500", "183214.187500", "183215.677500", "183217.167500", "183218.657500", "183220.147500", "183221.637500", "183223.127500", "183224.617500", "183226.107500", "183227.597500", "183229.087500", "183230.577500", "183232.067500", "183233.557500", "183235.047500", "183236.537500", "183238.027500", "183239.517500", "183241.007500", "183242.497500", "183243.987500", "183245.477500", "183246.967500", "183248.457500", "183249.947500", "183251.437500", "183252.927500", "183254.417500", "183255.907500", "183257.397500", "183258.887500", "183300.377500", "183301.867500", "183303.357500", "183304.847500", "183306.337500", "183307.827500", "183309.317500", "183310.807500", "183312.297500", "183313.787500", "183315.277500", "183316.767500", "183318.257500", "183319.747500", "183321.237500", "183322.727500", "183324.217500", "183325.707500", "183327.197500", "183328.687500", "183330.177500", "183331.667500", "183333.157500", "183334.647500", "183336.137500", "183337.627500", "183339.117500", "183340.607500", "183342.097500", "183343.587500", "183345.077500", "183346.567500", "183348.057500", "183349.547500", "183351.037500", "183352.527500", "183354.017500", "183355.507500", "183356.997500", "183358.487500", "183359.977500", "183401.467500", "183402.957500", "183404.447500", "183405.937500", "183407.427500", "183408.917500", "183410.407500", "183411.897500", "183413.387500", "183414.877500", "183416.367500", "183417.857500", "183419.347500", "183420.837500", "183422.327500", "183423.817500", "183425.307500", "183426.797500", "183428.287500", "183429.777500", "183431.267500", "183432.757500", "183434.247500", "183435.737500", "183437.227500", "183438.717500", "183440.207500", "183441.697500", "183443.187500", "183444.677500", "183446.167500", "183447.657500", "183449.147500", "183450.637500", "183452.127500", "183453.617500", "183455.107500", "183456.597500", "183458.087500", "183459.577500", "183501.067500", "183502.557500", "183504.047500", "183505.537500", "183507.027500", "183508.517500", "183510.007500", "183511.497500", "183512.987500", "183514.477500", "183515.967500", "183517.457500", "183518.947500", "183520.437500", "183521.927500", "183523.417500", "183524.907500", "183526.397500", "183527.887500", "183529.377500", "183530.867500", "183532.357500", "183533.847500", "183535.337500", "183536.827500", "183538.317500", "183539.807500", "183541.297500", "183542.787500", "183544.277500", "183545.767500", "183547.257500", "183548.747500", "183550.237500", "183551.727500", "183553.217500", "183554.707500", "183556.197500", "183557.687500", "183559.177500", "183600.667500", "183602.157500", "183603.647500", "183605.137500", "183606.627500", "183608.117500", "183609.607500", "183611.097500", "183612.587500", "183614.077500", "183615.567500", "183617.057500", "183618.547500", "183620.037500", "183621.527500", "183623.017500", "183624.507500", "183625.997500", "183627.487500", "183628.977500", "183630.467500", "183631.957500", "183633.447500", "183634.937500", "183636.427500", "183637.917500", "183639.407500", "183640.897500", "183642.387500", "183643.877500", "183645.367500", "183646.857500", "183648.347500", "183649.837500", "183651.327500", "183652.817500", "183654.307500", "183655.797500", "183657.287500", "183658.777500", "183700.267500", "183701.757500", "183703.247500", "183704.737500", "183706.227500", "183707.717500", "183709.207500", "183710.697500", "183712.187500", "183713.677500", "183715.167500", "183716.657500", "183718.147500", "183719.637500", "183721.127500", "183722.617500", "183724.107500", "183725.597500", "183727.087500", "183728.577500", "183730.067500", "183731.557500", "183733.047500", "183734.537500", "183736.027500", "183737.517500", "183739.007500", "183740.497500", "183741.987500", "183743.477500", "183744.967500", "183746.457500", "183747.947500", "183749.437500", "183750.927500", "183752.417500", "183753.907500", "183755.397500", "183756.887500", "183758.377500", "183759.867500", "183801.357500", "183802.847500", "183804.337500", "183805.827500", "183807.317500", "183808.807500", "183810.297500", "183811.787500", "183813.277500", "183814.767500", "183816.257500", "183817.747500", "183819.237500", "183820.727500", "183822.217500", "183823.707500", "183825.197500", "183826.687500", "183828.177500", "183829.667500", "183831.157500", "183832.647500", "183834.137500", "183835.627500", "183837.117500", "183838.607500", "183840.097500", "183841.587500", "183843.077500", "183844.567500", "183846.057500", "183847.547500", "183849.037500", "183850.527500", "183852.017500", "183853.507500", "183854.997500", "183856.487500", "183857.977500", "183859.467500", "183900.957500", "183902.447500", "183903.937500", "183905.427500", "183906.917500", "183908.407500", "183909.897500", "183911.387500", "183912.877500", "183914.367500", "183915.857500", "183917.347500", "183918.837500", "183920.327500", "183921.817500", "183923.307500", "183924.797500", "183926.287500", "183927.777500", "183929.267500", "183930.757500", "183932.247500", "183933.737500", "183935.227500", "183936.717500", "183938.207500", "183939.697500", "183941.187500", "183942.677500", "183944.167500", "183945.657500", "183947.147500", "183948.637500", "183950.127500", "183951.617500", "183953.107500", "183954.597500", "183956.087500", "183957.577500", "183959.067500", "184000.557500", "184002.047500", "184003.537500", "184005.027500", "184006.517500", "184008.007500", "184009.497500", "184010.987500", "184012.477500", "184013.967500", "184015.457500", "184016.947500", "184018.437500", "184019.927500", "184021.417500", "184022.907500", "184024.397500", "184025.887500", "184027.377500", "184028.867500", "184030.357500", "184031.847500", "184033.337500", "184034.827500", "184036.317500", "184037.807500", "184039.297500", "184040.787500", "184042.277500", "184043.767500", "184045.257500", "184046.747500", "184048.237500", "184049.727500", "184051.217500", "184052.707500", "184054.197500", "184055.687500", "184057.177500", "184058.667500", "184100.157500", "184101.647500", "184103.137500", "184104.627500", "184106.117500", "184107.607500", "184109.097500", "184110.587500", "184112.077500", "184113.567500", "184115.057500", "184116.547500", "184118.037500", "184119.527500", "184121.017500", "184122.507500", "184123.997500", "184125.487500", "184126.977500", "184128.467500", "184129.957500", "184131.447500", "184132.937500", "184134.427500", "184135.917500", "184137.407500", "184138.897500", "184140.387500", "184141.877500", "184143.367500", "184144.857500", "184146.347500", "184147.837500", "184149.327500", "184150.817500", "184152.307500", "184153.797500", "184155.287500", "184156.777500", "184158.267500", "184159.757500", "184201.247500", "184202.737500", "184204.227500", "184205.717500", "184207.207500", "184208.697500", "184210.187500", "184211.677500", "184213.167500", "184214.657500", "184216.147500", "184217.637500", "184219.127500", "184220.617500", "184222.107500", "184223.597500", "184225.087500", "184226.577500", "184228.067500", "184229.557500", "184231.047500", "184232.537500", "184234.027500", "184235.517500", "184237.007500", "184238.497500", "184239.987500", "184241.477500", "184242.967500", "184244.457500", "184245.947500", "184247.437500", "184248.927500", "184250.417500", "184251.907500", "184253.397500"],
      "ContentTime": ["183238.092000", "183238.098000", "183238.102000", "183238.105000", "183238.108000", "183238.116000", "183238.119000", "183238.123000", "183238.126000", "183238.129000", "183238.133000", "183238.136000", "183238.140000", "183238.143000", "183238.146000", "183238.150000", "183238.153000", "183238.156000", "183238.160000", "183238.163000", "183258.090000", "183258.094000", "183258.097000", "183258.101000", "183258.104000", "183258.108000", "183258.111000", "183258.114000", "183258.118000", "183258.121000", "183258.141000", "183258.144000", "183258.148000", "183258.151000", "183258.154000", "183258.158000", "183258.161000", "183258.164000", "183258.168000", "183258.171000", "183318.090000", "183318.094000", "183318.097000", "183318.101000", "183318.104000", "183318.107000", "183318.111000", "183318.114000", "183318.118000", "183318.121000", "183318.124000", "183318.128000", "183318.131000", "183318.134000", "183318.138000", "183318.141000", "183318.145000", "183318.148000", "183318.151000", "183318.155000", "183338.091000", "183338.095000", "183338.098000", "183338.102000", "183338.105000", "183338.108000", "183338.112000", "183338.115000", "183338.119000", "183338.122000", "183338.125000", "183338.129000", "183338.132000", "183338.136000", "183338.139000", "183338.142000", "183338.146000", "183338.149000", "183338.152000", "183338.156000", "183338.159000", "183358.091000", "183358.095000", "183358.098000", "183358.102000", "183358.105000", "183358.108000", "183358.112000", "183358.115000", "183358.119000", "183358.123000", "183358.126000", "183358.130000", "183358.133000", "183358.136000", "183358.140000", "183358.143000", "183358.146000", "183358.150000", "183358.153000", "183358.157000", "183438.090000", "183438.094000", "183438.097000", "183438.101000", "183438.104000", "183438.108000", "183438.111000", "183438.114000", "183438.118000", "183438.121000", "183438.125000", "183438.128000", "183438.131000", "183438.135000", "183438.138000", "183438.141000", "183438.145000", "183438.148000", "183438.152000", "183438.155000", "183438.158000", "183438.162000", "183438.165000", "183438.169000", "183438.172000", "183438.175000", "183438.179000", "183438.182000", "183438.186000", "183518.090000", "183518.094000", "183518.098000", "183518.101000", "183518.105000", "183518.108000", "183518.111000", "183518.115000", "183518.118000", "183518.122000", "183518.125000", "183518.135000", "183518.138000", "183518.141000", "183518.145000", "183518.148000", "183518.152000", "183518.155000", "183518.158000", "183518.162000", "183518.165000", "183518.169000", "183518.172000", "183518.175000", "183518.179000", "183518.182000", "183518.185000", "183558.091000", "183558.095000", "183558.098000", "183558.102000", "183558.105000", "183558.109000", "183558.112000", "183558.115000", "183558.119000", "183558.122000", "183558.142000", "183558.146000", "183558.149000", "183558.152000", "183558.156000", "183558.159000", "183558.162000", "183558.166000", "183558.169000", "183558.173000", "183558.176000", "183558.180000", "183558.184000", "183558.187000", "183558.190000", "183558.194000", "183558.197000", "183618.091000", "183618.095000", "183618.099000", "183618.102000", "183618.105000", "183618.109000", "183618.112000", "183618.116000", "183618.119000", "183618.122000", "183618.126000", "183618.129000", "183618.133000", "183658.090000", "183658.094000", "183658.098000", "183658.101000", "183658.104000", "183658.108000", "183658.111000", "183658.115000", "183658.118000", "183658.122000", "183658.125000", "183658.129000", "183658.132000", "183658.136000", "183658.139000", "183658.142000", "183658.146000", "183658.149000", "183658.153000", "183658.156000", "183658.160000", "183658.163000", "183658.167000", "183658.170000", "183658.173000", "183658.177000", "183658.180000", "183738.090000", "183738.094000", "183738.098000", "183738.101000", "183738.104000", "183738.108000", "183738.111000", "183738.115000", "183738.118000", "183738.121000", "183738.125000", "183738.128000", "183738.132000", "183738.135000", "183738.138000", "183738.142000", "183738.145000", "183738.148000", "183738.152000", "183738.155000", "183738.158000", "183738.162000", "183738.165000", "183738.169000", "183738.172000", "183738.175000", "183738.179000", "183818.091000", "183818.095000", "183818.099000", "183818.102000", "183818.105000", "183818.109000", "183818.112000", "183818.116000", "183818.119000", "183818.133000", "183818.137000", "183818.140000", "183818.143000", "183818.147000", "183818.150000", "183818.154000", "183818.157000", "183818.160000", "183818.164000", "183818.167000", "183818.171000", "183818.174000", "183818.177000", "183818.181000", "183818.184000", "183818.192000", "183818.195000", "183858.091000", "183858.095000", "183858.099000", "183858.102000", "183858.105000", "183858.109000", "183858.112000", "183858.116000", "183858.119000", "183858.122000", "183858.127000", "183858.130000", "183858.134000", "183858.137000", "183858.141000", "183858.144000", "183858.148000", "183858.151000", "183858.154000", "183858.158000", "183858.161000", "183858.165000", "183858.168000", "183858.171000", "183858.175000", "183858.178000", "183938.090000", "183938.094000", "183938.098000", "183938.101000", "183938.104000", "183938.108000", "183938.111000", "183938.115000", "183938.118000", "183938.122000", "183938.125000", "183938.128000", "183938.132000", "183938.135000", "183938.139000", "183938.142000", "183938.145000", "183938.149000", "183938.152000", "183938.156000", "183938.159000", "183938.163000", "183938.166000", "183938.169000", "183938.173000", "183938.176000", "183938.180000", "184018.091000", "184018.095000", "184018.099000", "184018.102000", "184018.106000", "184018.109000", "184018.112000", "184018.116000", "184018.119000", "184018.123000", "184018.126000", "184018.130000", "184018.133000", "184018.136000", "184018.140000", "184018.143000", "184018.147000", "184018.150000", "184018.154000", "184018.157000", "184018.161000", "184018.164000", "184018.167000", "184018.171000", "184018.186000", "184018.189000", "184018.193000", "184058.091000", "184058.095000", "184058.099000", "184058.102000", "184058.107000", "184058.110000", "184058.114000", "184058.117000", "184058.121000", "184058.124000", "184058.128000", "184058.131000", "184058.135000", "184058.138000", "184058.141000", "184058.145000", "184058.148000", "184058.152000", "184058.155000", "184058.158000", "184058.162000", "184058.165000", "184058.169000", "184058.172000", "184058.175000", "184058.179000", "184058.182000", "184138.091000", "184138.094000", "184138.098000", "184138.101000", "184138.105000", "184138.108000", "184138.111000", "184138.115000", "184138.118000", "184138.122000", "184138.125000", "184138.129000", "184138.132000", "184138.135000", "184138.139000", "184138.142000", "184138.146000", "184138.149000", "184138.152000", "184138.156000", "184138.159000", "184138.163000", "184138.166000", "184138.169000", "184138.173000", "184138.176000", "184138.180000", "184218.090000", "184218.094000", "184218.098000", "184218.101000", "184218.104000", "184218.108000", "184218.111000", "184218.115000", "184218.118000", "184218.122000", "184218.125000", "184218.129000", "184218.132000", "184218.136000", "184218.139000", "184218.143000", "184218.146000", "184218.150000", "184218.153000", "184218.156000", "184218.160000", "184218.163000", "184218.167000", "184218.170000", "184218.174000", "184218.177000", "184218.192000", "184255.482000", "184255.486000", "184255.489000", "184255.493000", "184255.496000", "184255.499000", "184255.503000", "184255.506000", "184255.509000", "184255.513000", "184255.516000", "184255.520000", "184255.523000", "184255.526000", "184255.530000", "184255.533000", "184255.537000", "184255.540000", "184255.543000", "184255.547000", "184255.550000", "184255.553000", "184255.557000", "184255.560000", "184255.564000"],
