{
  "AcquisitionMatrixPE": 104,
  "AcquisitionNumber": 1,
  "AcquisitionTime": "18:31:23.527500",
  "BandwidthPerPixelPhaseEncode": 17.17,
  "BaseResolution": 104,
  "BodyPartExamined": "BRAIN",
  "CoilCombinationMethod": "Sum of Squares",
  "ConsistencyInfo": "N4_VE11C_LATEST_20160120",
  "ConversionSoftware": "dcm2niix",
  "ConversionSoftwareVersion": "v1.0.20211006",
  "DerivedVendorReportedEchoSpacing": 0.000560011,
  "DeviceSerialNumber": "167006",
  "DwellTime": 2.1e-06,
  "EchoTime": 0.037,
  "EchoTime1": 0.037,
  "EchoTime2": 0.001,
  "EchoTrainLength": 104,
  "EffectiveEchoSpacing": 0.000560011,
  "FlipAngle": 52,
  "HeudiconvVersion": "0.5.3.post569+g418601f",
  "ImageComments": "Unaliased MB4/PE3/LB",
  "ImageOrientationPatientDICOM": [0.999632, -0.0265679, 0.00548005, 0.0267, 0.927893, -0.37189],
  "ImageOrientationText": "Tra>Cor(-21.8)>Sag(-0.3)",
  "ImageType": [
    "ORIGINAL",
    "PRIMARY",
    "P",
    "MB",
    "ND",
    "MOSAIC",
    "PHASE"
],
  "ImagingFrequency": 123.259,
  "InPlanePhaseEncodingDirectionDICOM": "COL",
  "InstitutionAddress": "Chemin Queen-Mary 4565,Montreal,District,CA,H3W 1W5",
  "InstitutionName": "IUGM",
  "InstitutionalDepartmentName": "Department",
  "MRAcquisitionType": "2D",
  "MagneticFieldStrength": 3,
  "Manufacturer": "Siemens",
  "ManufacturersModelName": "Prisma_fit",
  "MatrixCoilMode": "SENSE",
  "Modality": "MR",
  "MultibandAccelerationFactor": 4,
  "PartialFourier": 1,
  "PatientPosition": "HFS",
  "PercentPhaseFOV": 100,
  "PercentSampling": 100,
  "PhaseEncodingDirection": "j",
  "PhaseEncodingSteps": 104,
  "PhaseResolution": 1,
  "PixelBandwidth": 2290,
  "ProcedureStepDescription": "games^mario",
  "ProtocolName": "func_task-mario_run-04",
  "PulseSequenceDetails": "%CustomerSeq%\\cmrr_mbep2d_bold",
  "ReceiveCoilActiveElements": "HC1-7;NC1,2",
  "ReceiveCoilName": "HeadNeck_64",
  "ReconMatrixPE": 104,
  "RepetitionTime": 1.49,
  "SAR": 0.0544257,
  "ScanOptions": "FS",
  "ScanningSequence": "EP",
  "SequenceName": "epfid2d1_104",
  "SequenceVariant": "SK\\SS",
  "SeriesDescription": "func_task-mario_run-04",
  "SeriesNumber": 20,
  "ShimSetting": [612, -7240, -8844, 391, 4, -337, 16, 39],
  "SliceThickness": 2,
  "SliceTiming": [0, 0.7825, 0.0975, 0.88, 0.195, 0.98, 0.2925, 1.0775, 0.3925, 1.175, 0.49, 1.2725, 0.5875, 1.37, 0.685, 0, 0.7825, 0.0975, 0.88, 0.195, 0.98, 0.2925, 1.0775, 0.3925, 1.175, 0.49, 1.2725, 0.5875, 1.37, 0.685, 0, 0.7825, 0.0975, 0.88, 0.195, 0.98, 0.2925, 1.0775, 0.3925, 1.175, 0.49, 1.2725, 0.5875, 1.37, 0.685, 0, 0.7825, 0.0975, 0.88, 0.195, 0.98, 0.2925, 1.0775, 0.3925, 1.175, 0.49, 1.2725, 0.5875, 1.37, 0.685],
  "SoftwareVersions": "syngo MR E11",
  "SpacingBetweenSlices": 2,
  "StationName": "MRC35049",
  "TaskName": "mario",
  "TotalReadoutTime": 0.0576811,
  "TxRefAmp": 268.687,
  "WipMemBlock": "143ced52-c290-4a96-9131-b4ab6617c142||Sequence: R016 ve11c/master r/e634e98; Dec 19 2017 11:00:25 by eja",
  "dcmmeta_affine": [
    [-1.9992640018463135, 0.05339999869465828, -0.009590914472937584, 101.89346313476562],
    [0.05313587933778763, 1.8557853698730469, -0.7437991499900818, -63.65454864501953],
    [0.010960099287331104, 0.743780255317688, 1.8565211296081543, -75.33134460449219],
    [0.0, 0.0, 0.0, 1.0]
],
  "dcmmeta_reorient_transform": [
    [0.0, -1.0, 0.0, 103.0],
    [1.0, 0.0, 0.0, 0.0],
    [0.0, 0.0, 1.0, 0.0],
    [0.0, 0.0, 0.0, 1.0]
],
  "dcmmeta_shape": [104, 104, 60, 464],
  "dcmmeta_slice_dim": 2,
  "dcmmeta_version": 0.6,
  "global": {
    "const": {
      "AcquisitionMatrix": [104, 0, 0, 104],
      "AngioFlag": "N",
      "BitsAllocated": 16,
      "BitsStored": 16,
      "BodyPartExamined": "BRAIN",
      "Columns": 832,
      "EchoNumbers": 1,
      "EchoTime": 37.0,
      "EchoTrainLength": 104,
      "FlipAngle": 52.0,
      "HighBit": 15,
      "ImageOrientationPatient": [0.99963198908897, -0.0265679402113, 0.00548004953995, 0.0266999996349, 0.92789268372435, -0.3718901417224],
      "ImagePositionPatient": [-854.56335066705, -783.65575715954, 268.02456815578],
      "ImageType": [
        "ORIGINAL",
        "PRIMARY",
        "P",
        "MB",
        "ND",
        "MOSAIC"
],
      "ImagedNucleus": "1H",
      "ImagingFrequency": 123.258835,
      "InPlanePhaseEncodingDirection": "COL",
      "LargestImagePixelValue": 4095,
      "MRAcquisitionType": "2D",
      "MagneticFieldStrength": 3.0,
      "Manufacturer": "SIEMENS",
      "ManufacturerModelName": "Prisma_fit",
      "Modality": "MR",
      "NumberOfAverages": 1.0,
      "NumberOfPhaseEncodingSteps": 104,
      "PercentPhaseFieldOfView": 100.0,
      "PercentSampling": 100.0,
      "PerformedProcedureStepStartTime": "170835.898000",
      "PhotometricInterpretation": "MONOCHROME2",
      "PixelBandwidth": 2290.0,
      "PixelRepresentation": 0,
      "PixelSpacing": [2.0, 2.0],
      "ProtocolName": "func_task-mario_run-04",
      "RepetitionTime": 1490.0,
      "RescaleIntercept": -4096.0,
      "RescaleSlope": 2.0,
      "RescaleType": "US",
      "Rows": 832,
      "SAR": 0.05442570673282,
      "SamplesPerPixel": 1,
      "ScanOptions": "FS",
      "ScanningSequence": "EP",
      "SequenceName": "epfid2d1_104",
      "SequenceVariant": [
        "SK",
        "SS"
],
      "SeriesDescription": "func_task-mario_run-04",
      "SeriesNumber": 20,
      "SeriesTime": "183238.196000",
      "SliceLocation": -46.742644880212,
      "SliceThickness": 2.0,
      "SmallestImagePixelValue": 0,
      "SoftwareVersions": "syngo MR E11",
      "SpacingBetweenSlices": 1.9999999453105,
      "SpecificCharacterSet": "ISO_IR 100",
      "StudyID": "1",
      "StudyTime": "170835.842000",
      "TransmitCoilName": "Body",
      "VariableFlipAngleFlag": "N",
      "WindowCenterWidthExplanation": "Algo1",
      "dBdt": 0.0},
    "slices": {}
  },
  "time": {
    "samples": {
      "AcquisitionNumber": [1, 2, 3, 4, 5, 6, 7, 8, 9, 10, 11, 12, 13, 14, 15, 16, 17, 18, 19, 20, 21, 22, 23, 24, 25, 26, 27, 28, 29, 30, 31, 32, 33, 34, 35, 36, 37, 38, 39, 40, 41, 42, 43, 44, 45, 46, 47, 48, 49, 50, 51, 52, 53, 54, 55, 56, 57, 58, 59, 60, 61, 62, 63, 64, 65, 66, 67, 68, 69, 70, 71, 72, 73, 74, 75, 76, 77, 78, 79, 80, 81, 82, 83, 84, 85, 86, 87, 88, 89, 90, 91, 92, 93, 94, 95, 96, 97, 98, 99, 100, 101, 102, 103, 104, 105, 106, 107, 108, 109, 110, 111, 112, 113, 114, 115, 116, 117, 118, 119, 120, 121, 122, 123, 124, 125, 126, 127, 128, 129, 130, 131, 132, 133, 134, 135, 136, 137, 138, 139, 140, 141, 142, 143, 144, 145, 146, 147, 148, 149, 150, 151, 152, 153, 154, 155, 156, 157, 158, 159, 160, 161, 162, 163, 164, 165, 166, 167, 168, 169, 170, 171, 172, 173, 174, 175, 176, 177, 178, 179, 180, 181, 182, 183, 184, 185, 186, 187, 188, 189, 190, 191, 192, 193, 194, 195, 196, 197, 198, 199, 200, 201, 202, 203, 204, 205, 206, 207, 208, 209, 210, 211, 212, 213, 214, 215, 216, 217, 218, 219, 220, 221, 222, 223, 224, 225, 226, 227, 228, 229, 230, 231, 232, 233, 234, 235, 236, 237, 238, 239, 240, 241, 242, 243, 244, 245, 246, 247, 248, 249, 250, 251, 252, 253, 254, 255, 256, 257, 258, 259, 260, 261, 262, 263, 264, 265, 266, 267, 268, 269, 270, 271, 272, 273, 274, 275, 276, 277, 278, 279, 280, 281, 282, 283, 284, 285, 286, 287, 288, 289, 290, 291, 292, 293, 294, 295, 296, 297, 298, 299, 300, 301, 302, 303, 304, 305, 306, 307, 308, 309, 310, 311, 312, 313, 314, 315, 316, 317, 318, 319, 320, 321, 322, 323, 324, 325, 326, 327, 328, 329, 330, 331, 332, 333, 334, 335, 336, 337, 338, 339, 340, 341, 342, 343, 344, 345, 346, 347, 348, 349, 350, 351, 352, 353, 354, 355, 356, 357, 358, 359, 360, 361, 362, 363, 364, 365, 366, 367, 368, 369, 370, 371, 372, 373, 374, 375, 376, 377, 378, 379, 380, 381, 382, 383, 384, 385, 386, 387, 388, 389, 390, 391, 392, 393, 394, 395, 396, 397, 398, 399, 400, 401, 402, 403, 404, 405, 406, 407, 408, 409, 410, 411, 412, 413, 414, 415, 416, 417, 418, 419, 420, 421, 422, 423, 424, 425, 426, 427, 428, 429, 430, 431, 432, 433, 434, 435, 436, 437, 438, 439, 440, 441, 442, 443, 444, 445, 446, 447, 448, 449, 450, 451, 452, 453, 454, 455, 456, 457, 458, 459, 460, 461, 462, 463, 464],
      "AcquisitionTime": ["183123.527500", "183125.017500", "183126.507500", "183127.997500", "183129.487500", "183130.977500", "183132.467500", "183133.957500", "183135.447500", "183136.937500", "183138.427500", "183139.917500", "183141.407500", "183142.897500", "183144.387500", "183145.877500", "183147.367500", "183148.857500", "183150.347500", "183151.837500", "183153.327500", "183154.817500", "183156.307500", "183157.797500", "183159.287500", "183200.777500", "183202.267500", "183203.757500", "183205.247500", "183206.737500", "183208.227500", "183209.717500", "183211.207500", "183212.697500", "183214.187500", "183215.677500", "183217.167500", "183218.657500", "183220.147500", "183221.637500", "183223.127500", "183224.617500", "183226.107500", "183227.597500", "183229.087500", "183230.577500", "183232.067500", "183233.557500", "183235.047500", "183236.537500", "183238.027500", "183239.517500", "183241.007500", "183242.497500", "183243.987500", "183245.477500", "183246.967500", "183248.457500", "183249.947500", "183251.437500", "183252.927500", "183254.417500", "183255.907500", "183257.397500", "183258.887500", "183300.377500", "183301.867500", "183303.357500", "183304.847500", "183306.337500", "183307.827500", "183309.317500", "183310.807500", "183312.297500", "183313.787500", "183315.277500", "183316.767500", "183318.257500", "183319.747500", "183321.237500", "183322.727500", "183324.217500", "183325.707500", "183327.197500", "183328.687500", "183330.177500", "183331.667500", "183333.157500", "183334.647500", "183336.137500", "183337.627500", "183339.117500", "183340.607500", "183342.097500", "183343.587500", "183345.077500", "183346.567500", "183348.057500", "183349.547500", "183351.037500", "183352.527500", "183354.017500", "183355.507500", "183356.997500", "183358.487500", "183359.977500", "183401.467500", "183402.957500", "183404.447500", "183405.937500", "183407.427500", "183408.917500", "183410.407500", "183411.897500", "183413.387500", "183414.877500", "183416.367500", "183417.857500", "183419.347500", "183420.837500", "183422.327500", "183423.817500", "183425.307500", "183426.797500", "183428.287500", "183429.777500", "183431.267500", "183432.757500", "183434.247500", "183435.737500", "183437.227500", "183438.717500", "183440.207500", "183441.697500", "183443.187500", "183444.677500", "183446.167500", "183447.657500", "183449.147500", "183450.637500", "183452.127500", "183453.617500", "183455.107500", "183456.597500", "183458.087500", "183459.577500", "183501.067500", "183502.557500", "183504.047500", "183505.537500", "183507.027500", "183508.517500", "183510.007500", "183511.497500", "183512.987500", "183514.477500", "183515.967500", "183517.457500", "183518.947500", "183520.437500", "183521.927500", "183523.417500", "183524.907500", "183526.397500", "183527.887500", "183529.377500", "183530.867500", "183532.357500", "183533.847500", "183535.337500", "183536.827500", "183538.317500", "183539.807500", "183541.297500", "183542.787500", "183544.277500", "183545.767500", "183547.257500", "183548.747500", "183550.237500", "183551.727500", "183553.217500", "183554.707500", "183556.197500", "183557.687500", "183559.177500", "183600.667500", "183602.157500", "183603.647500", "183605.137500", "183606.627500", "183608.117500", "183609.607500", "183611.097500", "183612.587500", "183614.077500", "183615.567500", "183617.057500", "183618.547500", "183620.037500", "183621.527500", "183623.017500", "183624.507500", "183625.997500", "183627.487500", "183628.977500", "183630.467500", "183631.957500", "183633.447500", "183634.937500", "183636.427500", "183637.917500", "183639.407500", "183640.897500", "183642.387500", "183643.877500", "183645.367500", "183646.857500", "183648.347500", "183649.837500", "183651.327500", "183652.817500", "183654.307500", "183655.797500", "183657.287500", "183658.777500", "183700.267500", "183701.757500", "183703.247500", "183704.737500", "183706.227500", "183707.717500", "183709.207500", "183710.697500", "183712.187500", "183713.677500", "183715.167500", "183716.657500", "183718.147500", "183719.637500", "183721.127500", "183722.617500", "183724.107500", "183725.597500", "183727.087500", "183728.577500", "183730.067500", "183731.557500", "183733.047500", "183734.537500", "183736.027500", "183737.517500", "183739.007500", "183740.497500", "183741.987500", "183743.477500", "183744.967500", "183746.457500", "183747.947500", "183749.437500", "183750.927500", "183752.417500", "183753.907500", "183755.397500", "183756.887500", "183758.377500", "183759.867500", "183801.357500", "183802.847500", "183804.337500", "183805.827500", "183807.317500", "183808.807500", "183810.297500", "183811.787500", "183813.277500", "183814.767500", "183816.257500", "183817.747500", "183819.237500", "183820.727500", "183822.217500", "183823.707500", "183825.197500", "183826.687500", "183828.177500", "183829.667500", "183831.157500", "183832.647500", "183834.137500", "183835.627500", "183837.117500", "183838.607500", "183840.097500", "183841.587500", "183843.077500", "183844.567500", "183846.057500", "183847.547500", "183849.037500", "183850.527500", "183852.017500", "183853.507500", "183854.997500", "183856.487500", "183857.977500", "183859.467500", "183900.957500", "183902.447500", "183903.937500", "183905.427500", "183906.917500", "183908.407500", "183909.897500", "183911.387500", "183912.877500", "183914.367500", "183915.857500", "183917.347500", "183918.837500", "183920.327500", "183921.817500", "183923.307500", "183924.797500", "183926.287500", "183927.777500", "183929.267500", "183930.757500", "183932.247500", "183933.737500", "183935.227500", "183936.717500", "183938.207500", "183939.697500", "183941.187500", "183942.677500", "183944.167500", "183945.657500", "183947.147500", "183948.637500", "183950.127500", "183951.617500", "183953.107500", "183954.597500", "183956.087500", "183957.577500", "183959.067500", "184000.557500", "184002.047500", "184003.537500", "184005.027500", "184006.517500", "184008.007500", "184009.497500", "184010.987500", "184012.477500", "184013.967500", "184015.457500", "184016.947500", "184018.437500", "184019.927500", "184021.417500", "184022.907500", "184024.397500", "184025.887500", "184027.377500", "184028.867500", "184030.357500", "184031.847500", "184033.337500", "184034.827500", "184036.317500", "184037.807500", "184039.297500", "184040.787500", "184042.277500", "184043.767500", "184045.257500", "184046.747500", "184048.237500", "184049.727500", "184051.217500", "184052.707500", "184054.197500", "184055.687500", "184057.177500", "184058.667500", "184100.157500", "184101.647500", "184103.137500", "184104.627500", "184106.117500", "184107.607500", "184109.097500", "184110.587500", "184112.077500", "184113.567500", "184115.057500", "184116.547500", "184118.037500", "184119.527500", "184121.017500", "184122.507500", "184123.997500", "184125.487500", "184126.977500", "184128.467500", "184129.957500", "184131.447500", "184132.937500", "184134.427500", "184135.917500", "184137.407500", "184138.897500", "184140.387500", "184141.877500", "184143.367500", "184144.857500", "184146.347500", "184147.837500", "184149.327500", "184150.817500", "184152.307500", "184153.797500", "184155.287500", "184156.777500", "184158.267500", "184159.757500", "184201.247500", "184202.737500", "184204.227500", "184205.717500", "184207.207500", "184208.697500", "184210.187500", "184211.677500", "184213.167500", "184214.657500", "184216.147500", "184217.637500", "184219.127500", "184220.617500", "184222.107500", "184223.597500", "184225.087500", "184226.577500", "184228.067500", "184229.557500", "184231.047500", "184232.537500", "184234.027500", "184235.517500", "184237.007500", "184238.497500", "184239.987500", "184241.477500", "184242.967500", "184244.457500", "184245.947500", "184247.437500", "184248.927500", "184250.417500", "184251.907500", "184253.397500"],
      "ContentTime": ["183238.198000", "183238.201000", "183238.203000", "183238.206000", "183238.208000", "183238.211000", "183238.213000", "183238.216000", "183238.218000", "183238.221000", "183238.223000", "183238.226000", "183238.228000", "183238.231000", "183238.234000", "183238.237000", "183238.239000", "183238.242000", "183238.244000", "183238.247000", "183258.217000", "183258.219000", "183258.222000", "183258.224000", "183258.227000", "183258.229000", "183258.232000", "183258.234000", "183258.237000", "183258.239000", "183258.242000", "183258.244000", "183258.247000", "183258.249000", "183258.252000", "183258.255000", "183258.257000", "183258.260000", "183258.262000", "183258.265000", "183318.210000", "183318.213000", "183318.215000", "183318.218000", "183318.220000", "183318.223000", "183318.225000", "183318.228000", "183318.230000", "183318.233000", "183318.236000", "183318.238000", "183318.242000", "183318.244000", "183318.247000", "183318.249000", "183318.252000", "183318.254000", "183318.257000", "183318.259000", "183338.210000", "183338.212000", "183338.215000", "183338.218000", "183338.220000", "183338.223000", "183338.225000", "183338.228000", "183338.230000", "183338.233000", "183338.235000", "183338.238000", "183338.240000", "183338.243000", "183338.245000", "183338.248000", "183338.251000", "183338.253000", "183338.256000", "183338.258000", "183338.261000", "183358.209000", "183358.212000", "183358.215000", "183358.217000", "183358.220000", "183358.222000", "183358.225000", "183358.227000", "183358.230000", "183358.232000", "183358.235000", "183358.237000", "183358.240000", "183358.242000", "183358.245000", "183358.247000", "183358.250000", "183358.253000", "183358.255000", "183358.258000", "183438.246000", "183438.248000", "183438.251000", "183438.254000", "183438.266000", "183438.268000", "183438.271000", "183438.274000", "183438.276000", "183438.279000", "183438.281000", "183438.284000", "183438.286000", "183438.289000", "183438.291000", "183438.294000", "183438.296000", "183438.299000", "183438.301000", "183438.304000", "183438.306000", "183438.316000", "183438.319000", "183438.321000", "183438.324000", "183438.326000", "183438.329000", "183438.332000", "183438.334000", "183518.235000", "183518.238000", "183518.241000", "183518.243000", "183518.246000", "183518.248000", "183518.251000", "183518.253000", "183518.256000", "183518.258000", "183518.261000", "183518.263000", "183518.267000", "183518.270000", "183518.272000", "183518.275000", "183518.278000", "183518.280000", "183518.283000", "183518.285000", "183518.288000", "183518.290000", "183518.293000", "183518.295000", "183518.298000", "183518.300000", "183518.303000", "183558.250000", "183558.252000", "183558.255000", "183558.258000", "183558.260000", "183558.263000", "183558.265000", "183558.268000", "183558.270000", "183558.273000", "183558.275000", "183558.278000", "183558.280000", "183558.283000", "183558.285000", "183558.288000", "183558.290000", "183558.293000", "183558.295000", "183558.305000", "183558.308000", "183558.310000", "183558.313000", "183558.315000", "183558.318000", "183558.320000", "183558.323000", "183618.173000", "183618.176000", "183618.178000", "183618.181000", "183618.183000", "183618.186000", "183618.188000", "183618.191000", "183618.193000", "183618.196000", "183618.199000", "183618.201000", "183618.204000", "183658.239000", "183658.241000", "183658.244000", "183658.246000", "183658.249000", "183658.252000", "183658.254000", "183658.257000", "183658.259000", "183658.262000", "183658.264000", "183658.267000", "183658.269000", "183658.272000", "183658.274000", "183658.277000", "183658.280000", "183658.282000", "183658.285000", "183658.287000", "183658.290000", "183658.292000", "183658.295000", "183658.297000", "183658.300000", "183658.302000", "183658.305000", "183738.235000", "183738.237000", "183738.240000", "183738.242000", "183738.245000", "183738.248000", "183738.250000", "183738.253000", "183738.255000", "183738.258000", "183738.260000", "183738.263000", "183738.265000", "183738.268000", "183738.277000", "183738.279000", "183738.282000", "183738.285000", "183738.287000", "183738.290000", "183738.292000", "183738.295000", "183738.297000", "183738.300000", "183738.302000", "183738.305000", "183738.307000", "183818.243000", "183818.246000", "183818.248000", "183818.251000", "183818.258000", "183818.260000", "183818.263000", "183818.265000", "183818.268000", "183818.271000", "183818.273000", "183818.276000", "183818.278000", "183818.281000", "183818.283000", "183818.286000", "183818.288000", "183818.291000", "183818.293000", "183818.296000", "183818.298000", "183818.301000", "183818.303000", "183818.306000", "183818.308000", "183818.311000", "183818.314000", "183858.251000", "183858.254000", "183858.256000", "183858.259000", "183858.262000", "183858.265000", "183858.268000", "183858.270000", "183858.273000", "183858.276000", "183858.278000", "183858.281000", "183858.283000", "183858.286000", "183858.289000", "183858.291000", "183858.294000", "183858.296000", "183858.299000", "183858.301000", "183858.304000", "183858.306000", "183858.309000", "183858.311000", "183858.314000", "183858.316000", "183938.230000", "183938.233000", "183938.235000", "183938.238000", "183938.241000", "183938.243000", "183938.246000", "183938.248000", "183938.260000", "183938.262000", "183938.265000", "183938.267000", "183938.270000", "183938.272000", "183938.275000", "183938.278000", "183938.280000", "183938.283000", "183938.285000", "183938.288000", "183938.290000", "183938.293000", "183938.295000", "183938.298000", "183938.300000", "183938.303000", "183938.306000", "184018.239000", "184018.242000", "184018.244000", "184018.247000", "184018.249000", "184018.252000", "184018.255000", "184018.257000", "184018.260000", "184018.262000", "184018.265000", "184018.267000", "184018.270000", "184018.272000", "184018.275000", "184018.278000", "184018.280000", "184018.283000", "184018.291000", "184018.294000", "184018.296000", "184018.299000", "184018.301000", "184018.304000", "184018.306000", "184018.309000", "184018.311000", "184058.224000", "184058.227000", "184058.230000", "184058.232000", "184058.235000", "184058.237000", "184058.240000", "184058.242000", "184058.245000", "184058.248000", "184058.250000", "184058.253000", "184058.255000", "184058.258000", "184058.260000", "184058.263000", "184058.266000", "184058.268000", "184058.271000", "184058.273000", "184058.276000", "184058.278000", "184058.281000", "184058.283000", "184058.286000", "184058.289000", "184058.291000", "184138.267000", "184138.270000", "184138.272000", "184138.275000", "184138.277000", "184138.280000", "184138.282000", "184138.285000", "184138.287000", "184138.290000", "184138.292000", "184138.295000", "184138.298000", "184138.300000", "184138.303000", "184138.305000", "184138.308000", "184138.310000", "184138.313000", "184138.316000", "184138.318000", "184138.321000", "184138.323000", "184138.326000", "184138.328000", "184138.331000", "184138.333000", "184218.246000", "184218.249000", "184218.252000", "184218.254000", "184218.257000", "184218.260000", "184218.262000", "184218.265000", "184218.267000", "184218.270000", "184218.272000", "184218.275000", "184218.277000", "184218.280000", "184218.282000", "184218.285000", "184218.287000", "184218.290000", "184218.293000", "184218.295000", "184218.298000", "184218.300000", "184218.303000", "184218.305000", "184218.308000", "184218.310000", "184218.313000", "184255.637000", "184255.640000", "184255.643000", "184255.645000", "184255.648000", "184255.650000", "184255.653000", "184255.655000", "184255.658000", "184255.661000", "184255.663000", "184255.666000", "184255.668000", "184255.671000", "184255.673000", "184255.676000", "184255.678000", "184255.681000", "184255.683000", "184255.686000", "184255.688000", "184255.691000", "184255.694000", "184255.696000", "184255.699000"],
