{
  "AcquisitionMatrixPE": 104,
  "AcquisitionNumber": 1,
  "AcquisitionTime": "18:45:10.765000",
  "BandwidthPerPixelPhaseEncode": 17.17,
  "BaseResolution": 104,
  "BodyPartExamined": "BRAIN",
  "CoilCombinationMethod": "Sum of Squares",
  "ConsistencyInfo": "N4_VE11C_LATEST_20160120",
  "ConversionSoftware": "dcm2niix",
  "ConversionSoftwareVersion": "v1.0.20211006",
  "DerivedVendorReportedEchoSpacing": 0.000560011,
  "DeviceSerialNumber": "167006",
  "DwellTime": 2.1e-06,
  "EchoTime": 0.037,
  "EchoTrainLength": 104,
  "EffectiveEchoSpacing": 0.000560011,
  "FlipAngle": 52,
  "HeudiconvVersion": "0.5.3.post569+g418601f",
  "ImageComments": "Unaliased MB4/PE3/LB",
  "ImageOrientationPatientDICOM": [0.999632, -0.0265679, 0.00548005, 0.0267, 0.927893, -0.37189],
  "ImageOrientationText": "Tra>Cor(-21.8)>Sag(-0.3)",
  "ImageType": [
    "ORIGINAL",
    "PRIMARY",
    "M",
    "MB",
    "ND",
    "MOSAIC"
],
  "ImagingFrequency": 123.259,
  "InPlanePhaseEncodingDirectionDICOM": "COL",
  "InstitutionAddress": "Chemin Queen-Mary 4565,Montreal,District,CA,H3W 1W5",
  "InstitutionName": "IUGM",
  "InstitutionalDepartmentName": "Department",
  "MRAcquisitionType": "2D",
  "MagneticFieldStrength": 3,
  "Manufacturer": "Siemens",
  "ManufacturersModelName": "Prisma_fit",
  "MatrixCoilMode": "SENSE",
  "Modality": "MR",
  "MultibandAccelerationFactor": 4,
  "PartialFourier": 1,
  "PatientPosition": "HFS",
  "PercentPhaseFOV": 100,
  "PercentSampling": 100,
  "PhaseEncodingDirection": "j",
  "PhaseEncodingSteps": 104,
  "PhaseResolution": 1,
  "PixelBandwidth": 2290,
  "ProcedureStepDescription": "games^mario",
  "ProtocolName": "func_task-mario_run-05",
  "PulseSequenceDetails": "%CustomerSeq%\\cmrr_mbep2d_bold",
  "ReceiveCoilActiveElements": "HC1-7;NC1,2",
  "ReceiveCoilName": "HeadNeck_64",
  "ReconMatrixPE": 104,
  "RepetitionTime": 1.49,
  "SAR": 0.0544257,
  "ScanOptions": "FS",
  "ScanningSequence": "EP",
  "SequenceName": "epfid2d1_104",
  "SequenceVariant": "SK\\SS",
  "SeriesDescription": "func_task-mario_run-05",
  "SeriesNumber": 22,
  "ShimSetting": [612, -7240, -8844, 391, 4, -337, 16, 39],
  "SliceThickness": 2,
  "SliceTiming": [0, 0.785, 0.0975, 0.8825, 0.1975, 0.98, 0.295, 1.0775, 0.3925, 1.1775, 0.49, 1.275, 0.5875, 1.3725, 0.6875, 0, 0.785, 0.0975, 0.8825, 0.1975, 0.98, 0.295, 1.0775, 0.3925, 1.1775, 0.49, 1.275, 0.5875, 1.3725, 0.6875, 0, 0.785, 0.0975, 0.8825, 0.1975, 0.98, 0.295, 1.0775, 0.3925, 1.1775, 0.49, 1.275, 0.5875, 1.3725, 0.6875, 0, 0.785, 0.0975, 0.8825, 0.1975, 0.98, 0.295, 1.0775, 0.3925, 1.1775, 0.49, 1.275, 0.5875, 1.3725, 0.6875],
  "SoftwareVersions": "syngo MR E11",
  "SpacingBetweenSlices": 2,
  "StationName": "MRC35049",
  "TaskName": "mario",
  "TotalReadoutTime": 0.0576811,
  "TxRefAmp": 268.687,
  "WipMemBlock": "07cb4348-434a-4d5e-812e-793be2e675f8||Sequence: R016 ve11c/master r/e634e98; Dec 19 2017 11:00:25 by eja",
  "dcmmeta_affine": [
    [-1.9992640018463135, 0.05339999869465828, -0.009590914472937584, 101.89346313476562],
    [0.05313587933778763, 1.8557853698730469, -0.7437991499900818, -63.65454864501953],
    [0.010960099287331104, 0.743780255317688, 1.8565211296081543, -75.33134460449219],
    [0.0, 0.0, 0.0, 1.0]
],
  "dcmmeta_reorient_transform": [
    [0.0, -1.0, 0.0, 103.0],
    [1.0, 0.0, 0.0, 0.0],
    [0.0, 0.0, 1.0, 0.0],
    [0.0, 0.0, 0.0, 1.0]
],
  "dcmmeta_shape": [104, 104, 60, 440],
  "dcmmeta_slice_dim": 2,
  "dcmmeta_version": 0.6,
  "global": {
    "const": {
      "AcquisitionMatrix": [104, 0, 0, 104],
      "AngioFlag": "N",
      "BitsAllocated": 16,
      "BitsStored": 16,
      "BodyPartExamined": "BRAIN",
      "Columns": 832,
      "EchoNumbers": 1,
      "EchoTime": 37.0,
      "EchoTrainLength": 104,
      "FlipAngle": 52.0,
      "HighBit": 15,
      "ImageOrientationPatient": [0.99963198908897, -0.0265679402113, 0.00548004953995, 0.0266999996349, 0.92789268372435, -0.3718901417224],
      "ImagePositionPatient": [-854.56335066705, -783.65575715954, 268.02456815578],
      "ImageType": [
        "ORIGINAL",
        "PRIMARY",
        "M",
        "MB",
        "ND",
        "MOSAIC"
],
      "ImagedNucleus": "1H",
      "ImagingFrequency": 123.258829,
      "InPlanePhaseEncodingDirection": "COL",
      "MRAcquisitionType": "2D",
      "MagneticFieldStrength": 3.0,
      "Manufacturer": "SIEMENS",
      "ManufacturerModelName": "Prisma_fit",
      "Modality": "MR",
      "NumberOfAverages": 1.0,
      "NumberOfPhaseEncodingSteps": 104,
      "PercentPhaseFieldOfView": 100.0,
      "PercentSampling": 100.0,
      "PerformedProcedureStepStartTime": "170835.898000",
      "PhotometricInterpretation": "MONOCHROME2",
      "PixelBandwidth": 2290.0,
      "PixelRepresentation": 0,
      "PixelSpacing": [2.0, 2.0],
      "ProtocolName": "func_task-mario_run-05",
      "RepetitionTime": 1490.0,
      "Rows": 832,
      "SAR": 0.05442570673282,
      "SamplesPerPixel": 1,
      "ScanOptions": "FS",
      "ScanningSequence": "EP",
      "SequenceName": "epfid2d1_104",
      "SequenceVariant": [
        "SK",
        "SS"
],
      "SeriesDescription": "func_task-mario_run-05",
      "SeriesNumber": 22,
      "SeriesTime": "184610.915000",
      "SliceLocation": -46.742644880212,
      "SliceThickness": 2.0,
      "SmallestImagePixelValue": 0,
      "SoftwareVersions": "syngo MR E11",
      "SpacingBetweenSlices": 1.9999999453105,
      "SpecificCharacterSet": "ISO_IR 100",
      "StudyID": "1",
      "StudyTime": "170835.842000",
      "TransmitCoilName": "Body",
      "VariableFlipAngleFlag": "N",
      "WindowCenterWidthExplanation": "Algo1",
      "dBdt": 0.0},
    "slices": {}
  },
  "time": {
    "samples": {
      "AcquisitionNumber": [1, 2, 3, 4, 5, 6, 7, 8, 9, 10, 11, 12, 13, 14, 15, 16, 17, 18, 19, 20, 21, 22, 23, 24, 25, 26, 27, 28, 29, 30, 31, 32, 33, 34, 35, 36, 37, 38, 39, 40, 41, 42, 43, 44, 45, 46, 47, 48, 49, 50, 51, 52, 53, 54, 55, 56, 57, 58, 59, 60, 61, 62, 63, 64, 65, 66, 67, 68, 69, 70, 71, 72, 73, 74, 75, 76, 77, 78, 79, 80, 81, 82, 83, 84, 85, 86, 87, 88, 89, 90, 91, 92, 93, 94, 95, 96, 97, 98, 99, 100, 101, 102, 103, 104, 105, 106, 107, 108, 109, 110, 111, 112, 113, 114, 115, 116, 117, 118, 119, 120, 121, 122, 123, 124, 125, 126, 127, 128, 129, 130, 131, 132, 133, 134, 135, 136, 137, 138, 139, 140, 141, 142, 143, 144, 145, 146, 147, 148, 149, 150, 151, 152, 153, 154, 155, 156, 157, 158, 159, 160, 161, 162, 163, 164, 165, 166, 167, 168, 169, 170, 171, 172, 173, 174, 175, 176, 177, 178, 179, 180, 181, 182, 183, 184, 185, 186, 187, 188, 189, 190, 191, 192, 193, 194, 195, 196, 197, 198, 199, 200, 201, 202, 203, 204, 205, 206, 207, 208, 209, 210, 211, 212, 213, 214, 215, 216, 217, 218, 219, 220, 221, 222, 223, 224, 225, 226, 227, 228, 229, 230, 231, 232, 233, 234, 235, 236, 237, 238, 239, 240, 241, 242, 243, 244, 245, 246, 247, 248, 249, 250, 251, 252, 253, 254, 255, 256, 257, 258, 259, 260, 261, 262, 263, 264, 265, 266, 267, 268, 269, 270, 271, 272, 273, 274, 275, 276, 277, 278, 279, 280, 281, 282, 283, 284, 285, 286, 287, 288, 289, 290, 291, 292, 293, 294, 295, 296, 297, 298, 299, 300, 301, 302, 303, 304, 305, 306, 307, 308, 309, 310, 311, 312, 313, 314, 315, 316, 317, 318, 319, 320, 321, 322, 323, 324, 325, 326, 327, 328, 329, 330, 331, 332, 333, 334, 335, 336, 337, 338, 339, 340, 341, 342, 343, 344, 345, 346, 347, 348, 349, 350, 351, 352, 353, 354, 355, 356, 357, 358, 359, 360, 361, 362, 363, 364, 365, 366, 367, 368, 369, 370, 371, 372, 373, 374, 375, 376, 377, 378, 379, 380, 381, 382, 383, 384, 385, 386, 387, 388, 389, 390, 391, 392, 393, 394, 395, 396, 397, 398, 399, 400, 401, 402, 403, 404, 405, 406, 407, 408, 409, 410, 411, 412, 413, 414, 415, 416, 417, 418, 419, 420, 421, 422, 423, 424, 425, 426, 427, 428, 429, 430, 431, 432, 433, 434, 435, 436, 437, 438, 439, 440],
      "AcquisitionTime": ["184510.765000", "184512.255000", "184513.745000", "184515.235000", "184516.725000", "184518.215000", "184519.705000", "184521.195000", "184522.685000", "184524.175000", "184525.665000", "184527.155000", "184528.645000", "184530.135000", "184531.625000", "184533.115000", "184534.605000", "184536.095000", "184537.585000", "184539.075000", "184540.565000", "184542.055000", "184543.545000", "184545.035000", "184546.525000", "184548.015000", "184549.505000", "184550.995000", "184552.485000", "184553.975000", "184555.465000", "184556.955000", "184558.445000", "184559.935000", "184601.425000", "184602.915000", "184604.405000", "184605.895000", "184607.385000", "184608.875000", "184610.365000", "184611.855000", "184613.345000", "184614.835000", "184616.325000", "184617.815000", "184619.305000", "184620.795000", "184622.285000", "184623.775000", "184625.265000", "184626.755000", "184628.245000", "184629.735000", "184631.225000", "184632.715000", "184634.205000", "184635.695000", "184637.185000", "184638.675000", "184640.165000", "184641.655000", "184643.145000", "184644.635000", "184646.125000", "184647.615000", "184649.105000", "184650.595000", "184652.085000", "184653.575000", "184655.065000", "184656.555000", "184658.045000", "184659.535000", "184701.025000", "184702.515000", "184704.005000", "184705.495000", "184706.985000", "184708.475000", "184709.965000", "184711.455000", "184712.945000", "184714.435000", "184715.925000", "184717.415000", "184718.905000", "184720.395000", "184721.885000", "184723.375000", "184724.865000", "184726.355000", "184727.845000", "184729.335000", "184730.825000", "184732.315000", "184733.805000", "184735.295000", "184736.785000", "184738.275000", "184739.765000", "184741.255000", "184742.745000", "184744.235000", "184745.725000", "184747.215000", "184748.705000", "184750.195000", "184751.685000", "184753.175000", "184754.665000", "184756.155000", "184757.645000", "184759.135000", "184800.625000", "184802.115000", "184803.605000", "184805.095000", "184806.585000", "184808.075000", "184809.565000", "184811.055000", "184812.545000", "184814.035000", "184815.525000", "184817.015000", "184818.505000", "184819.995000", "184821.485000", "184822.975000", "184824.465000", "184825.955000", "184827.445000", "184828.935000", "184830.425000", "184831.915000", "184833.405000", "184834.895000", "184836.385000", "184837.875000", "184839.365000", "184840.855000", "184842.345000", "184843.835000", "184845.325000", "184846.815000", "184848.305000", "184849.795000", "184851.285000", "184852.775000", "184854.265000", "184855.755000", "184857.245000", "184858.735000", "184900.225000", "184901.715000", "184903.205000", "184904.695000", "184906.185000", "184907.675000", "184909.165000", "184910.655000", "184912.145000", "184913.635000", "184915.125000", "184916.615000", "184918.105000", "184919.595000", "184921.085000", "184922.575000", "184924.065000", "184925.555000", "184927.045000", "184928.535000", "184930.025000", "184931.515000", "184933.005000", "184934.495000", "184935.985000", "184937.475000", "184938.965000", "184940.455000", "184941.945000", "184943.435000", "184944.925000", "184946.415000", "184947.905000", "184949.395000", "184950.885000", "184952.375000", "184953.865000", "184955.355000", "184956.845000", "184958.335000", "184959.825000", "185001.315000", "185002.805000", "185004.295000", "185005.785000", "185007.275000", "185008.765000", "185010.255000", "185011.745000", "185013.235000", "185014.725000", "185016.215000", "185017.705000", "185019.195000", "185020.685000", "185022.175000", "185023.665000", "185025.155000", "185026.645000", "185028.135000", "185029.625000", "185031.115000", "185032.605000", "185034.095000", "185035.585000", "185037.075000", "185038.565000", "185040.055000", "185041.545000", "185043.035000", "185044.525000", "185046.015000", "185047.505000", "185048.995000", "185050.485000", "185051.975000", "185053.465000", "185054.955000", "185056.445000", "185057.935000", "185059.425000", "185100.915000", "185102.405000", "185103.895000", "185105.385000", "185106.875000", "185108.365000", "185109.855000", "185111.345000", "185112.835000", "185114.325000", "185115.815000", "185117.305000", "185118.795000", "185120.285000", "185121.775000", "185123.265000", "185124.755000", "185126.245000", "185127.735000", "185129.225000", "185130.715000", "185132.205000", "185133.695000", "185135.185000", "185136.675000", "185138.165000", "185139.655000", "185141.145000", "185142.635000", "185144.125000", "185145.615000", "185147.105000", "185148.595000", "185150.085000", "185151.575000", "185153.065000", "185154.555000", "185156.045000", "185157.535000", "185159.025000", "185200.515000", "185202.005000", "185203.495000", "185204.985000", "185206.475000", "185207.965000", "185209.455000", "185210.945000", "185212.435000", "185213.925000", "185215.415000", "185216.905000", "185218.395000", "185219.885000", "185221.375000", "185222.865000", "185224.355000", "185225.845000", "185227.335000", "185228.825000", "185230.315000", "185231.805000", "185233.295000", "185234.785000", "185236.275000", "185237.765000", "185239.255000", "185240.745000", "185242.235000", "185243.725000", "185245.215000", "185246.705000", "185248.195000", "185249.685000", "185251.175000", "185252.665000", "185254.155000", "185255.645000", "185257.135000", "185258.625000", "185300.115000", "185301.605000", "185303.095000", "185304.585000", "185306.075000", "185307.565000", "185309.055000", "185310.545000", "185312.035000", "185313.525000", "185315.015000", "185316.505000", "185317.995000", "185319.485000", "185320.975000", "185322.465000", "185323.955000", "185325.445000", "185326.935000", "185328.425000", "185329.915000", "185331.405000", "185332.895000", "185334.385000", "185335.875000", "185337.365000", "185338.855000", "185340.345000", "185341.835000", "185343.325000", "185344.815000", "185346.305000", "185347.795000", "185349.285000", "185350.775000", "185352.265000", "185353.755000", "185355.245000", "185356.735000", "185358.225000", "185359.715000", "185401.205000", "185402.695000", "185404.185000", "185405.675000", "185407.165000", "185408.655000", "185410.145000", "185411.635000", "185413.125000", "185414.615000", "185416.105000", "185417.595000", "185419.085000", "185420.575000", "185422.065000", "185423.555000", "185425.045000", "185426.535000", "185428.025000", "185429.515000", "185431.005000", "185432.495000", "185433.985000", "185435.475000", "185436.965000", "185438.455000", "185439.945000", "185441.435000", "185442.925000", "185444.415000", "185445.905000", "185447.395000", "185448.885000", "185450.375000", "185451.865000", "185453.355000", "185454.845000", "185456.335000", "185457.825000", "185459.315000", "185500.805000", "185502.295000", "185503.785000", "185505.275000", "185506.765000", "185508.255000", "185509.745000", "185511.235000", "185512.725000", "185514.215000", "185515.705000", "185517.195000", "185518.685000", "185520.175000", "185521.665000", "185523.155000", "185524.645000", "185526.135000", "185527.625000", "185529.115000", "185530.605000", "185532.095000", "185533.585000", "185535.075000", "185536.565000", "185538.055000", "185539.545000", "185541.035000", "185542.525000", "185544.015000", "185545.505000", "185546.995000", "185548.485000", "185549.975000", "185551.465000", "185552.955000", "185554.445000", "185555.935000", "185557.425000", "185558.915000", "185600.405000", "185601.895000", "185603.385000", "185604.875000"],
      "ContentTime": ["184610.918000", "184610.922000", "184610.925000", "184610.928000", "184610.932000", "184610.942000", "184630.877000", "184630.881000", "184630.884000", "184630.887000", "184630.891000", "184630.894000", "184630.898000", "184630.901000", "184630.904000", "184630.907000", "184630.911000", "184630.914000", "184630.917000", "184630.921000", "184630.924000", "184630.927000", "184630.931000", "184630.934000", "184630.937000", "184630.941000", "184650.877000", "184650.881000", "184650.884000", "184650.888000", "184650.891000", "184650.894000", "184650.898000", "184650.901000", "184650.904000", "184650.908000", "184650.911000", "184650.915000", "184650.918000", "184650.921000", "184650.925000", "184650.928000", "184650.931000", "184650.935000", "184650.938000", "184650.942000", "184710.877000", "184710.881000", "184710.884000", "184710.887000", "184710.891000", "184710.894000", "184710.898000", "184710.901000", "184710.904000", "184710.908000", "184710.911000", "184710.914000", "184710.918000", "184710.921000", "184710.925000", "184710.928000", "184710.931000", "184710.935000", "184710.938000", "184710.949000", "184710.952000", "184730.877000", "184730.881000", "184730.884000", "184730.888000", "184730.891000", "184730.894000", "184730.898000", "184730.901000", "184730.905000", "184730.908000", "184730.911000", "184730.915000", "184730.918000", "184730.931000", "184730.935000", "184730.938000", "184730.941000", "184730.945000", "184730.948000", "184730.951000", "184810.877000", "184810.881000", "184810.884000", "184810.888000", "184810.891000", "184810.895000", "184810.898000", "184810.901000", "184810.905000", "184810.908000", "184810.911000", "184810.915000", "184810.918000", "184810.921000", "184810.925000", "184810.928000", "184810.932000", "184810.935000", "184810.938000", "184810.942000", "184810.945000", "184810.948000", "184810.952000", "184810.955000", "184810.959000", "184810.962000", "184810.965000", "184810.969000", "184810.972000", "184810.975000", "184810.979000", "184810.982000", "184810.985000", "184850.877000", "184850.881000", "184850.885000", "184850.888000", "184850.891000", "184850.895000", "184850.898000", "184850.901000", "184850.905000", "184850.908000", "184850.911000", "184850.915000", "184850.926000", "184850.929000", "184850.933000", "184850.936000", "184850.939000", "184850.943000", "184850.946000", "184850.949000", "184850.953000", "184850.956000", "184850.960000", "184850.963000", "184850.966000", "184850.970000", "184850.973000", "184930.877000", "184930.881000", "184930.884000", "184930.888000", "184930.891000", "184930.894000", "184930.898000", "184930.901000", "184930.905000", "184930.908000", "184930.911000", "184930.915000", "184930.918000", "184930.922000", "184930.925000", "184930.928000", "184930.932000", "184930.935000", "184930.938000", "184930.942000", "184930.945000", "184930.962000", "184930.966000", "184930.969000", "184930.973000", "184930.976000", "184930.979000", "185010.878000", "185010.882000", "185010.885000", "185010.889000", "185010.892000", "185010.896000", "185010.899000", "185010.902000", "185010.906000", "185010.909000", "185010.920000", "185010.923000", "185010.926000", "185010.930000", "185010.933000", "185010.937000", "185010.940000", "185010.944000", "185010.947000", "185010.950000", "185010.954000", "185010.957000", "185010.961000", "185010.964000", "185010.967000", "185010.971000", "185050.877000", "185050.881000", "185050.884000", "185050.888000", "185050.891000", "185050.895000", "185050.898000", "185050.909000", "185050.912000", "185050.916000", "185050.919000", "185050.923000", "185050.926000", "185050.929000", "185050.933000", "185050.936000", "185050.940000", "185050.943000", "185050.946000", "185050.950000", "185050.953000", "185050.957000", "185050.960000", "185050.963000", "185050.967000", "185050.970000", "185050.973000", "185130.877000", "185130.881000", "185130.884000", "185130.888000", "185130.891000", "185130.895000", "185130.898000", "185130.902000", "185130.905000", "185130.909000", "185130.912000", "185130.916000", "185130.919000", "185130.922000", "185130.926000", "185130.929000", "185130.933000", "185130.936000", "185130.939000", "185130.943000", "185130.946000", "185130.949000", "185130.953000", "185130.956000", "185130.960000", "185130.963000", "185130.966000", "185210.877000", "185210.881000", "185210.885000", "185210.888000", "185210.891000", "185210.895000", "185210.915000", "185210.919000", "185210.922000", "185210.925000", "185210.929000", "185210.932000", "185210.935000", "185210.947000", "185210.950000", "185210.954000", "185210.957000", "185210.960000", "185210.964000", "185210.967000", "185210.971000", "185210.974000", "185210.977000", "185210.981000", "185210.984000", "185210.988000", "185210.991000", "185250.877000", "185250.881000", "185250.884000", "185250.888000", "185250.891000", "185250.895000", "185250.898000", "185250.902000", "185250.905000", "185250.908000", "185250.912000", "185250.915000", "185250.919000", "185250.922000", "185250.925000", "185250.929000", "185250.932000", "185250.936000", "185250.939000", "185250.942000", "185250.946000", "185250.949000", "185250.952000", "185250.956000", "185250.959000", "185250.962000", "185250.966000", "185330.877000", "185330.881000", "185330.884000", "185330.888000", "185330.891000", "185330.895000", "185330.898000", "185330.901000", "185330.905000", "185330.908000", "185330.911000", "185330.915000", "185330.918000", "185330.922000", "185330.925000", "185330.928000", "185330.932000", "185330.935000", "185330.967000", "185330.970000", "185330.973000", "185330.977000", "185330.980000", "185330.984000", "185330.987000", "185330.990000", "185330.994000", "185410.877000", "185410.881000", "185410.885000", "185410.888000", "185410.892000", "185410.895000", "185410.899000", "185410.902000", "185410.906000", "185410.909000", "185410.912000", "185410.916000", "185410.919000", "185410.923000", "185410.926000", "185410.929000", "185410.933000", "185410.936000", "185410.940000", "185410.943000", "185410.955000", "185410.959000", "185410.962000", "185410.965000", "185410.969000", "185410.972000", "185450.877000", "185450.881000", "185450.884000", "185450.888000", "185450.891000", "185450.895000", "185450.898000", "185450.901000", "185450.905000", "185450.908000", "185450.911000", "185450.915000", "185450.918000", "185450.922000", "185450.925000", "185450.928000", "185450.932000", "185450.935000", "185450.938000", "185450.942000", "185450.945000", "185450.948000", "185450.952000", "185450.955000", "185450.959000", "185450.962000", "185450.965000", "185530.877000", "185530.881000", "185530.885000", "185530.888000", "185530.891000", "185530.895000", "185530.898000", "185530.902000", "185530.905000", "185530.908000", "185530.912000", "185530.915000", "185530.918000", "185530.922000", "185530.925000", "185530.929000", "185530.932000", "185530.935000", "185530.939000", "185530.942000", "185530.946000", "185530.949000", "185530.952000", "185530.956000", "185530.959000", "185530.962000", "185530.966000", "185607.440000", "185607.444000", "185607.447000", "185607.451000", "185607.454000", "185607.458000", "185607.461000", "185607.464000", "185607.468000", "185607.471000", "185607.475000", "185607.478000", "185607.481000", "185607.485000", "185607.488000", "185607.491000", "185607.495000", "185607.498000", "185607.501000", "185607.505000", "185607.508000", "185607.512000", "185607.515000", "185607.518000", "185607.522000"],
