{
  "AcquisitionMatrixPE": 104,
  "AcquisitionNumber": 1,
  "AcquisitionTime": "17:55:36.562500",
  "BandwidthPerPixelPhaseEncode": 17.17,
  "BaseResolution": 104,
  "BodyPartExamined": "BRAIN",
  "CoilCombinationMethod": "Sum of Squares",
  "ConsistencyInfo": "N4_VE11C_LATEST_20160120",
  "ConversionSoftware": "dcm2niix",
  "ConversionSoftwareVersion": "v1.0.20211006",
  "DerivedVendorReportedEchoSpacing": 0.000560011,
  "DeviceSerialNumber": "167006",
  "DwellTime": 2.1e-06,
  "EchoTime": 0.037,
  "EchoTime1": 0.037,
  "EchoTime2": 0.001,
  "EchoTrainLength": 104,
  "EffectiveEchoSpacing": 0.000560011,
  "FlipAngle": 52,
  "HeudiconvVersion": "0.5.3.post569+g418601f",
  "ImageComments": "Unaliased MB4/PE3/LB",
  "ImageOrientationPatientDICOM": [0.999632, -0.0265679, 0.00548005, 0.0267, 0.927893, -0.37189],
  "ImageOrientationText": "Tra>Cor(-21.8)>Sag(-0.3)",
  "ImageType": [
    "ORIGINAL",
    "PRIMARY",
    "P",
    "MB",
    "ND",
    "MOSAIC",
    "PHASE"
],
  "ImagingFrequency": 123.259,
  "InPlanePhaseEncodingDirectionDICOM": "COL",
  "InstitutionAddress": "Chemin Queen-Mary 4565,Montreal,District,CA,H3W 1W5",
  "InstitutionName": "IUGM",
  "InstitutionalDepartmentName": "Department",
  "MRAcquisitionType": "2D",
  "MagneticFieldStrength": 3,
  "Manufacturer": "Siemens",
  "ManufacturersModelName": "Prisma_fit",
  "MatrixCoilMode": "SENSE",
  "Modality": "MR",
  "MultibandAccelerationFactor": 4,
  "PartialFourier": 1,
  "PatientPosition": "HFS",
  "PercentPhaseFOV": 100,
  "PercentSampling": 100,
  "PhaseEncodingDirection": "j",
  "PhaseEncodingSteps": 104,
  "PhaseResolution": 1,
  "PixelBandwidth": 2290,
  "ProcedureStepDescription": "games^mario",
  "ProtocolName": "func_task-mario_run-02",
  "PulseSequenceDetails": "%CustomerSeq%\\cmrr_mbep2d_bold",
  "ReceiveCoilActiveElements": "HC1-7;NC1,2",
  "ReceiveCoilName": "HeadNeck_64",
  "ReconMatrixPE": 104,
  "RepetitionTime": 1.49,
  "SAR": 0.0544257,
  "ScanOptions": "FS",
  "ScanningSequence": "EP",
  "SequenceName": "epfid2d1_104",
  "SequenceVariant": "SK\\SS",
  "SeriesDescription": "func_task-mario_run-02",
  "SeriesNumber": 14,
  "ShimSetting": [612, -7240, -8844, 391, 4, -337, 16, 39],
  "SliceThickness": 2,
  "SliceTiming": [0, 0.785, 0.1, 0.8825, 0.1975, 0.98, 0.295, 1.08, 0.3925, 1.1775, 0.49, 1.275, 0.59, 1.3725, 0.6875, 0, 0.785, 0.1, 0.8825, 0.1975, 0.98, 0.295, 1.08, 0.3925, 1.1775, 0.49, 1.275, 0.59, 1.3725, 0.6875, 0, 0.785, 0.1, 0.8825, 0.1975, 0.98, 0.295, 1.08, 0.3925, 1.1775, 0.49, 1.275, 0.59, 1.3725, 0.6875, 0, 0.785, 0.1, 0.8825, 0.1975, 0.98, 0.295, 1.08, 0.3925, 1.1775, 0.49, 1.275, 0.59, 1.3725, 0.6875],
  "SoftwareVersions": "syngo MR E11",
  "SpacingBetweenSlices": 2,
  "StationName": "MRC35049",
  "TaskName": "mario",
  "TotalReadoutTime": 0.0576811,
  "TxRefAmp": 268.687,
  "WipMemBlock": "2e7e3659-0c2d-4057-b8c4-5d7cc54dcc45||Sequence: R016 ve11c/master r/e634e98; Dec 19 2017 11:00:25 by eja",
  "dcmmeta_affine": [
    [-1.9992640018463135, 0.05339999869465828, -0.009590914472937584, 101.89346313476562],
    [0.05313587933778763, 1.8557853698730469, -0.7437991499900818, -63.65454864501953],
    [0.010960099287331104, 0.743780255317688, 1.8565211296081543, -75.33134460449219],
    [0.0, 0.0, 0.0, 1.0]
],
  "dcmmeta_reorient_transform": [
    [0.0, -1.0, 0.0, 103.0],
    [1.0, 0.0, 0.0, 0.0],
    [0.0, 0.0, 1.0, 0.0],
    [0.0, 0.0, 0.0, 1.0]
],
  "dcmmeta_shape": [104, 104, 60, 471],
  "dcmmeta_slice_dim": 2,
  "dcmmeta_version": 0.6,
  "global": {
    "const": {
      "AcquisitionMatrix": [104, 0, 0, 104],
      "AngioFlag": "N",
      "BitsAllocated": 16,
      "BitsStored": 16,
      "BodyPartExamined": "BRAIN",
      "Columns": 832,
      "EchoNumbers": 1,
      "EchoTime": 37.0,
      "EchoTrainLength": 104,
      "FlipAngle": 52.0,
      "HighBit": 15,
      "ImageOrientationPatient": [0.99963198908897, -0.0265679402113, 0.00548004953995, 0.0266999996349, 0.92789268372435, -0.3718901417224],
      "ImagePositionPatient": [-854.56335066705, -783.65575715954, 268.02456815578],
      "ImageType": [
        "ORIGINAL",
        "PRIMARY",
        "P",
        "MB",
        "ND",
        "MOSAIC"
],
      "ImagedNucleus": "1H",
      "ImagingFrequency": 123.25882,
      "InPlanePhaseEncodingDirection": "COL",
      "LargestImagePixelValue": 4095,
      "MRAcquisitionType": "2D",
      "MagneticFieldStrength": 3.0,
      "Manufacturer": "SIEMENS",
      "ManufacturerModelName": "Prisma_fit",
      "Modality": "MR",
      "NumberOfAverages": 1.0,
      "NumberOfPhaseEncodingSteps": 104,
      "PercentPhaseFieldOfView": 100.0,
      "PercentSampling": 100.0,
      "PerformedProcedureStepStartTime": "170835.898000",
      "PhotometricInterpretation": "MONOCHROME2",
      "PixelBandwidth": 2290.0,
      "PixelRepresentation": 0,
      "PixelSpacing": [2.0, 2.0],
      "ProtocolName": "func_task-mario_run-02",
      "RepetitionTime": 1490.0,
      "RescaleIntercept": -4096.0,
      "RescaleSlope": 2.0,
      "RescaleType": "US",
      "Rows": 832,
      "SAR": 0.05442570673282,
      "SamplesPerPixel": 1,
      "ScanOptions": "FS",
      "ScanningSequence": "EP",
      "SequenceName": "epfid2d1_104",
      "SequenceVariant": [
        "SK",
        "SS"
],
      "SeriesDescription": "func_task-mario_run-02",
      "SeriesNumber": 14,
      "SeriesTime": "175630.950000",
      "SliceLocation": -46.742644880212,
      "SliceThickness": 2.0,
      "SmallestImagePixelValue": 0,
      "SoftwareVersions": "syngo MR E11",
      "SpacingBetweenSlices": 1.9999999453105,
      "SpecificCharacterSet": "ISO_IR 100",
      "StudyID": "1",
      "StudyTime": "170835.842000",
      "TransmitCoilName": "Body",
      "VariableFlipAngleFlag": "N",
      "WindowCenterWidthExplanation": "Algo1",
      "dBdt": 0.0},
    "slices": {}
  },
  "time": {
    "samples": {
      "AcquisitionNumber": [1, 2, 3, 4, 5, 6, 7, 8, 9, 10, 11, 12, 13, 14, 15, 16, 17, 18, 19, 20, 21, 22, 23, 24, 25, 26, 27, 28, 29, 30, 31, 32, 33, 34, 35, 36, 37, 38, 39, 40, 41, 42, 43, 44, 45, 46, 47, 48, 49, 50, 51, 52, 53, 54, 55, 56, 57, 58, 59, 60, 61, 62, 63, 64, 65, 66, 67, 68, 69, 70, 71, 72, 73, 74, 75, 76, 77, 78, 79, 80, 81, 82, 83, 84, 85, 86, 87, 88, 89, 90, 91, 92, 93, 94, 95, 96, 97, 98, 99, 100, 101, 102, 103, 104, 105, 106, 107, 108, 109, 110, 111, 112, 113, 114, 115, 116, 117, 118, 119, 120, 121, 122, 123, 124, 125, 126, 127, 128, 129, 130, 131, 132, 133, 134, 135, 136, 137, 138, 139, 140, 141, 142, 143, 144, 145, 146, 147, 148, 149, 150, 151, 152, 153, 154, 155, 156, 157, 158, 159, 160, 161, 162, 163, 164, 165, 166, 167, 168, 169, 170, 171, 172, 173, 174, 175, 176, 177, 178, 179, 180, 181, 182, 183, 184, 185, 186, 187, 188, 189, 190, 191, 192, 193, 194, 195, 196, 197, 198, 199, 200, 201, 202, 203, 204, 205, 206, 207, 208, 209, 210, 211, 212, 213, 214, 215, 216, 217, 218, 219, 220, 221, 222, 223, 224, 225, 226, 227, 228, 229, 230, 231, 232, 233, 234, 235, 236, 237, 238, 239, 240, 241, 242, 243, 244, 245, 246, 247, 248, 249, 250, 251, 252, 253, 254, 255, 256, 257, 258, 259, 260, 261, 262, 263, 264, 265, 266, 267, 268, 269, 270, 271, 272, 273, 274, 275, 276, 277, 278, 279, 280, 281, 282, 283, 284, 285, 286, 287, 288, 289, 290, 291, 292, 293, 294, 295, 296, 297, 298, 299, 300, 301, 302, 303, 304, 305, 306, 307, 308, 309, 310, 311, 312, 313, 314, 315, 316, 317, 318, 319, 320, 321, 322, 323, 324, 325, 326, 327, 328, 329, 330, 331, 332, 333, 334, 335, 336, 337, 338, 339, 340, 341, 342, 343, 344, 345, 346, 347, 348, 349, 350, 351, 352, 353, 354, 355, 356, 357, 358, 359, 360, 361, 362, 363, 364, 365, 366, 367, 368, 369, 370, 371, 372, 373, 374, 375, 376, 377, 378, 379, 380, 381, 382, 383, 384, 385, 386, 387, 388, 389, 390, 391, 392, 393, 394, 395, 396, 397, 398, 399, 400, 401, 402, 403, 404, 405, 406, 407, 408, 409, 410, 411, 412, 413, 414, 415, 416, 417, 418, 419, 420, 421, 422, 423, 424, 425, 426, 427, 428, 429, 430, 431, 432, 433, 434, 435, 436, 437, 438, 439, 440, 441, 442, 443, 444, 445, 446, 447, 448, 449, 450, 451, 452, 453, 454, 455, 456, 457, 458, 459, 460, 461, 462, 463, 464, 465, 466, 467, 468, 469, 470, 471],
      "AcquisitionTime": ["175536.562500", "175538.052500", "175539.542500", "175541.032500", "175542.522500", "175544.012500", "175545.502500", "175546.992500", "175548.482500", "175549.972500", "175551.462500", "175552.952500", "175554.442500", "175555.932500", "175557.422500", "175558.912500", "175600.402500", "175601.892500", "175603.382500", "175604.872500", "175606.362500", "175607.852500", "175609.342500", "175610.832500", "175612.322500", "175613.812500", "175615.302500", "175616.792500", "175618.282500", "175619.772500", "175621.262500", "175622.752500", "175624.242500", "175625.732500", "175627.222500", "175628.712500", "175630.202500", "175631.692500", "175633.182500", "175634.672500", "175636.162500", "175637.652500", "175639.142500", "175640.632500", "175642.122500", "175643.612500", "175645.102500", "175646.592500", "175648.082500", "175649.572500", "175651.062500", "175652.552500", "175654.042500", "175655.532500", "175657.022500", "175658.512500", "175700.002500", "175701.492500", "175702.982500", "175704.472500", "175705.962500", "175707.452500", "175708.942500", "175710.432500", "175711.922500", "175713.412500", "175714.902500", "175716.392500", "175717.882500", "175719.372500", "175720.862500", "175722.352500", "175723.842500", "175725.332500", "175726.822500", "175728.312500", "175729.802500", "175731.292500", "175732.782500", "175734.272500", "175735.762500", "175737.252500", "175738.742500", "175740.232500", "175741.722500", "175743.212500", "175744.702500", "175746.192500", "175747.682500", "175749.172500", "175750.662500", "175752.152500", "175753.642500", "175755.132500", "175756.622500", "175758.112500", "175759.602500", "175801.092500", "175802.582500", "175804.072500", "175805.562500", "175807.052500", "175808.542500", "175810.032500", "175811.522500", "175813.012500", "175814.502500", "175815.992500", "175817.482500", "175818.972500", "175820.462500", "175821.952500", "175823.442500", "175824.932500", "175826.422500", "175827.912500", "175829.402500", "175830.892500", "175832.382500", "175833.872500", "175835.362500", "175836.852500", "175838.342500", "175839.832500", "175841.322500", "175842.812500", "175844.302500", "175845.792500", "175847.282500", "175848.772500", "175850.262500", "175851.752500", "175853.242500", "175854.732500", "175856.222500", "175857.712500", "175859.202500", "175900.692500", "175902.182500", "175903.672500", "175905.162500", "175906.652500", "175908.142500", "175909.632500", "175911.122500", "175912.612500", "175914.102500", "175915.592500", "175917.082500", "175918.572500", "175920.062500", "175921.552500", "175923.042500", "175924.532500", "175926.022500", "175927.512500", "175929.002500", "175930.492500", "175931.982500", "175933.472500", "175934.962500", "175936.452500", "175937.942500", "175939.432500", "175940.922500", "175942.412500", "175943.902500", "175945.392500", "175946.882500", "175948.372500", "175949.862500", "175951.352500", "175952.842500", "175954.332500", "175955.822500", "175957.312500", "175958.802500", "180000.292500", "180001.782500", "180003.272500", "180004.762500", "180006.252500", "180007.742500", "180009.232500", "180010.722500", "180012.212500", "180013.702500", "180015.192500", "180016.682500", "180018.172500", "180019.662500", "180021.152500", "180022.642500", "180024.132500", "180025.622500", "180027.112500", "180028.602500", "180030.092500", "180031.582500", "180033.072500", "180034.562500", "180036.052500", "180037.542500", "180039.032500", "180040.522500", "180042.012500", "180043.502500", "180044.992500", "180046.482500", "180047.972500", "180049.462500", "180050.952500", "180052.442500", "180053.932500", "180055.422500", "180056.912500", "180058.402500", "180059.892500", "180101.382500", "180102.872500", "180104.362500", "180105.852500", "180107.342500", "180108.832500", "180110.322500", "180111.812500", "180113.302500", "180114.792500", "180116.282500", "180117.772500", "180119.262500", "180120.752500", "180122.242500", "180123.732500", "180125.222500", "180126.712500", "180128.202500", "180129.692500", "180131.182500", "180132.672500", "180134.162500", "180135.652500", "180137.142500", "180138.632500", "180140.122500", "180141.612500", "180143.102500", "180144.592500", "180146.082500", "180147.572500", "180149.062500", "180150.552500", "180152.042500", "180153.532500", "180155.022500", "180156.512500", "180158.002500", "180159.492500", "180200.982500", "180202.472500", "180203.962500", "180205.452500", "180206.942500", "180208.432500", "180209.922500", "180211.412500", "180212.902500", "180214.392500", "180215.882500", "180217.372500", "180218.862500", "180220.352500", "180221.842500", "180223.332500", "180224.822500", "180226.312500", "180227.802500", "180229.292500", "180230.782500", "180232.272500", "180233.762500", "180235.252500", "180236.742500", "180238.232500", "180239.722500", "180241.212500", "180242.702500", "180244.192500", "180245.682500", "180247.172500", "180248.662500", "180250.152500", "180251.642500", "180253.132500", "180254.622500", "180256.112500", "180257.602500", "180259.092500", "180300.582500", "180302.072500", "180303.562500", "180305.052500", "180306.542500", "180308.032500", "180309.522500", "180311.012500", "180312.502500", "180313.992500", "180315.482500", "180316.972500", "180318.462500", "180319.952500", "180321.442500", "180322.932500", "180324.422500", "180325.912500", "180327.402500", "180328.892500", "180330.382500", "180331.872500", "180333.362500", "180334.852500", "180336.342500", "180337.832500", "180339.322500", "180340.812500", "180342.302500", "180343.792500", "180345.282500", "180346.772500", "180348.262500", "180349.752500", "180351.242500", "180352.732500", "180354.222500", "180355.712500", "180357.202500", "180358.692500", "180400.182500", "180401.672500", "180403.162500", "180404.652500", "180406.142500", "180407.632500", "180409.122500", "180410.612500", "180412.102500", "180413.592500", "180415.082500", "180416.572500", "180418.062500", "180419.552500", "180421.042500", "180422.532500", "180424.022500", "180425.512500", "180427.002500", "180428.492500", "180429.982500", "180431.472500", "180432.962500", "180434.452500", "180435.942500", "180437.432500", "180438.922500", "180440.412500", "180441.902500", "180443.392500", "180444.882500", "180446.372500", "180447.862500", "180449.352500", "180450.842500", "180452.332500", "180453.822500", "180455.312500", "180456.802500", "180458.292500", "180459.782500", "180501.272500", "180502.762500", "180504.252500", "180505.742500", "180507.232500", "180508.722500", "180510.212500", "180511.702500", "180513.192500", "180514.682500", "180516.172500", "180517.662500", "180519.152500", "180520.642500", "180522.132500", "180523.622500", "180525.112500", "180526.602500", "180528.092500", "180529.582500", "180531.072500", "180532.562500", "180534.052500", "180535.542500", "180537.032500", "180538.522500", "180540.012500", "180541.502500", "180542.992500", "180544.482500", "180545.972500", "180547.462500", "180548.952500", "180550.442500", "180551.932500", "180553.422500", "180554.912500", "180556.402500", "180557.892500", "180559.382500", "180600.872500", "180602.362500", "180603.852500", "180605.342500", "180606.832500", "180608.322500", "180609.812500", "180611.302500", "180612.792500", "180614.282500", "180615.772500", "180617.262500", "180618.752500", "180620.242500", "180621.732500", "180623.222500", "180624.712500", "180626.202500", "180627.692500", "180629.182500", "180630.672500", "180632.162500", "180633.652500", "180635.142500", "180636.632500", "180638.122500", "180639.612500", "180641.102500", "180642.592500", "180644.082500", "180645.572500", "180647.062500", "180648.552500", "180650.042500", "180651.532500", "180653.022500", "180654.512500", "180656.002500", "180657.492500", "180658.982500", "180700.472500", "180701.962500", "180703.452500", "180704.942500", "180706.432500", "180707.922500", "180709.412500", "180710.902500", "180712.392500", "180713.882500", "180715.372500", "180716.862500"],
      "ContentTime": ["175630.953000", "175651.412000", "175651.415000", "175651.417000", "175651.420000", "175651.422000", "175651.425000", "175651.427000", "175651.430000", "175651.432000", "175651.435000", "175651.437000", "175651.440000", "175651.442000", "175651.445000", "175651.447000", "175651.450000", "175651.452000", "175651.455000", "175651.457000", "175651.460000", "175711.001000", "175711.004000", "175711.006000", "175711.009000", "175711.011000", "175711.014000", "175711.016000", "175711.019000", "175711.021000", "175711.024000", "175711.026000", "175711.029000", "175711.031000", "175711.034000", "175711.036000", "175711.039000", "175711.041000", "175711.044000", "175711.046000", "175711.049000", "175711.051000", "175730.994000", "175730.997000", "175731.001000", "175731.003000", "175731.006000", "175731.008000", "175731.011000", "175731.013000", "175731.016000", "175731.018000", "175731.021000", "175731.023000", "175731.026000", "175731.028000", "175731.031000", "175731.033000", "175731.036000", "175731.038000", "175731.041000", "175731.043000", "175750.993000", "175750.996000", "175750.998000", "175751.002000", "175751.005000", "175751.007000", "175751.010000", "175751.012000", "175751.015000", "175751.017000", "175751.020000", "175751.022000", "175751.025000", "175751.027000", "175751.030000", "175751.032000", "175751.035000", "175751.037000", "175751.040000", "175751.042000", "175810.987000", "175810.990000", "175810.992000", "175810.995000", "175810.997000", "175811.001000", "175811.003000", "175811.006000", "175811.008000", "175811.011000", "175811.013000", "175811.016000", "175811.018000", "175811.021000", "175811.023000", "175811.026000", "175811.028000", "175811.031000", "175811.033000", "175811.036000", "175851.023000", "175851.025000", "175851.028000", "175851.031000", "175851.043000", "175851.046000", "175851.048000", "175851.051000", "175851.053000", "175851.056000", "175851.058000", "175851.061000", "175851.063000", "175851.066000", "175851.068000", "175851.071000", "175851.073000", "175851.076000", "175851.078000", "175851.081000", "175851.083000", "175851.086000", "175851.088000", "175851.091000", "175851.093000", "175851.096000", "175851.098000", "175931.031000", "175931.034000", "175931.037000", "175931.039000", "175931.042000", "175931.044000", "175931.047000", "175931.049000", "175931.052000", "175931.054000", "175931.057000", "175931.059000", "175931.062000", "175931.064000", "175931.067000", "175931.069000", "175931.072000", "175931.074000", "175931.077000", "175931.088000", "175931.091000", "175931.094000", "175931.096000", "175931.099000", "175931.101000", "175931.104000", "175931.106000", "180011.021000", "180011.024000", "180011.027000", "180011.029000", "180011.032000", "180011.034000", "180011.037000", "180011.039000", "180011.042000", "180011.044000", "180011.047000", "180011.049000", "180011.052000", "180011.055000", "180011.057000", "180011.060000", "180011.062000", "180011.065000", "180011.067000", "180011.070000", "180011.072000", "180011.075000", "180011.077000", "180011.080000", "180011.082000", "180011.085000", "180011.087000", "180051.023000", "180051.026000", "180051.028000", "180051.031000", "180051.033000", "180051.041000", "180051.044000", "180051.046000", "180051.049000", "180051.051000", "180051.054000", "180051.056000", "180051.059000", "180051.061000", "180051.064000", "180051.066000", "180051.069000", "180051.071000", "180051.074000", "180051.076000", "180051.079000", "180051.081000", "180051.084000", "180051.087000", "180051.089000", "180051.092000", "180051.094000", "180131.024000", "180131.027000", "180131.030000", "180131.032000", "180131.035000", "180131.037000", "180131.040000", "180131.042000", "180131.045000", "180131.047000", "180131.050000", "180131.052000", "180131.055000", "180131.057000", "180131.060000", "180131.062000", "180131.065000", "180131.067000", "180131.070000", "180131.073000", "180131.075000", "180131.078000", "180131.080000", "180131.083000", "180131.085000", "180131.088000", "180131.090000", "180211.044000", "180211.047000", "180211.049000", "180211.052000", "180211.054000", "180211.057000", "180211.059000", "180211.062000", "180211.064000", "180211.067000", "180211.069000", "180211.072000", "180211.074000", "180211.077000", "180211.079000", "180211.082000", "180211.084000", "180211.087000", "180211.089000", "180211.092000", "180211.094000", "180211.097000", "180211.099000", "180211.102000", "180211.105000", "180211.107000", "180251.028000", "180251.031000", "180251.034000", "180251.036000", "180251.039000", "180251.042000", "180251.045000", "180251.048000", "180251.050000", "180251.053000", "180251.055000", "180251.058000", "180251.060000", "180251.063000", "180251.065000", "180251.068000", "180251.070000", "180251.073000", "180251.076000", "180251.078000", "180251.080000", "180251.083000", "180251.085000", "180251.088000", "180251.091000", "180251.093000", "180251.096000", "180331.013000", "180331.016000", "180331.019000", "180331.021000", "180331.024000", "180331.026000", "180331.029000", "180331.031000", "180331.034000", "180331.037000", "180331.039000", "180331.042000", "180331.044000", "180331.047000", "180331.049000", "180331.052000", "180331.054000", "180331.057000", "180331.059000", "180331.062000", "180331.064000", "180331.067000", "180331.069000", "180331.072000", "180331.074000", "180331.077000", "180331.079000", "180411.017000", "180411.020000", "180411.022000", "180411.025000", "180411.027000", "180411.030000", "180411.032000", "180411.035000", "180411.037000", "180411.040000", "180411.042000", "180411.045000", "180411.047000", "180411.050000", "180411.052000", "180411.055000", "180411.058000", "180411.060000", "180411.063000", "180411.066000", "180411.068000", "180411.076000", "180411.078000", "180411.081000", "180411.083000", "180411.086000", "180411.089000", "180451.036000", "180451.039000", "180451.042000", "180451.044000", "180451.047000", "180451.049000", "180451.052000", "180451.054000", "180451.057000", "180451.059000", "180451.062000", "180451.064000", "180451.067000", "180451.069000", "180451.072000", "180451.074000", "180451.077000", "180451.079000", "180451.082000", "180451.085000", "180451.087000", "180451.090000", "180451.092000", "180451.095000", "180451.097000", "180451.100000", "180451.102000", "180531.044000", "180531.047000", "180531.050000", "180531.052000", "180531.055000", "180531.057000", "180531.060000", "180531.062000", "180531.065000", "180531.067000", "180531.070000", "180531.072000", "180531.075000", "180531.077000", "180531.080000", "180531.083000", "180531.085000", "180531.088000", "180531.090000", "180531.098000", "180531.100000", "180531.103000", "180531.105000", "180531.108000", "180531.110000", "180531.113000", "180531.115000", "180611.035000", "180611.038000", "180611.040000", "180611.043000", "180611.045000", "180611.048000", "180611.050000", "180611.053000", "180611.056000", "180611.058000", "180611.061000", "180611.063000", "180611.066000", "180611.068000", "180611.071000", "180611.073000", "180611.076000", "180611.079000", "180611.081000", "180611.084000", "180611.086000", "180611.089000", "180611.091000", "180611.094000", "180611.096000", "180611.099000", "180611.101000", "180651.381000", "180651.384000", "180651.386000", "180651.389000", "180651.391000", "180651.394000", "180651.396000", "180651.399000", "180651.402000", "180651.404000", "180651.407000", "180651.409000", "180651.412000", "180651.414000", "180651.417000", "180651.419000", "180651.422000", "180651.424000", "180651.427000", "180651.429000", "180651.432000", "180651.434000", "180651.443000", "180651.445000", "180651.448000", "180651.451000", "180720.420000", "180720.423000", "180720.426000", "180720.428000", "180720.431000", "180720.433000", "180720.436000", "180720.438000", "180720.441000", "180720.454000", "180720.456000", "180720.459000", "180720.461000", "180720.464000", "180720.466000", "180720.469000", "180720.471000", "180720.474000", "180720.476000", "180720.479000"],
