{
  "AcquisitionMatrixPE": 104,
  "AcquisitionNumber": 1,
  "AcquisitionTime": "18:08:48.657500",
  "BandwidthPerPixelPhaseEncode": 17.17,
  "BaseResolution": 104,
  "BodyPartExamined": "BRAIN",
  "CoilCombinationMethod": "Sum of Squares",
  "ConsistencyInfo": "N4_VE11C_LATEST_20160120",
  "ConversionSoftware": "dcm2niix",
  "ConversionSoftwareVersion": "v1.0.20211006",
  "DerivedVendorReportedEchoSpacing": 0.000560011,
  "DeviceSerialNumber": "167006",
  "DwellTime": 2.1e-06,
  "EchoTime": 0.037,
  "EchoTime1": 0.037,
  "EchoTime2": 0.001,
  "EchoTrainLength": 104,
  "EffectiveEchoSpacing": 0.000560011,
  "FlipAngle": 52,
  "HeudiconvVersion": "0.5.3.post569+g418601f",
  "ImageComments": "Unaliased MB4/PE3/LB",
  "ImageOrientationPatientDICOM": [0.999632, -0.0265679, 0.00548005, 0.0267, 0.927893, -0.37189],
  "ImageOrientationText": "Tra>Cor(-21.8)>Sag(-0.3)",
  "ImageType": [
    "ORIGINAL",
    "PRIMARY",
    "P",
    "MB",
    "ND",
    "MOSAIC",
    "PHASE"
],
  "ImagingFrequency": 123.259,
  "InPlanePhaseEncodingDirectionDICOM": "COL",
  "InstitutionAddress": "Chemin Queen-Mary 4565,Montreal,District,CA,H3W 1W5",
  "InstitutionName": "IUGM",
  "InstitutionalDepartmentName": "Department",
  "MRAcquisitionType": "2D",
  "MagneticFieldStrength": 3,
  "Manufacturer": "Siemens",
  "ManufacturersModelName": "Prisma_fit",
  "MatrixCoilMode": "SENSE",
  "Modality": "MR",
  "MultibandAccelerationFactor": 4,
  "PartialFourier": 1,
  "PatientPosition": "HFS",
  "PercentPhaseFOV": 100,
  "PercentSampling": 100,
  "PhaseEncodingDirection": "j",
  "PhaseEncodingSteps": 104,
  "PhaseResolution": 1,
  "PixelBandwidth": 2290,
  "ProcedureStepDescription": "games^mario",
  "ProtocolName": "func_task-mario_run-03",
  "PulseSequenceDetails": "%CustomerSeq%\\cmrr_mbep2d_bold",
  "ReceiveCoilActiveElements": "HC1-7;NC1,2",
  "ReceiveCoilName": "HeadNeck_64",
  "ReconMatrixPE": 104,
  "RepetitionTime": 1.49,
  "SAR": 0.0544257,
  "ScanOptions": "FS",
  "ScanningSequence": "EP",
  "SequenceName": "epfid2d1_104",
  "SequenceVariant": "SK\\SS",
  "SeriesDescription": "func_task-mario_run-03",
  "SeriesNumber": 17,
  "ShimSetting": [612, -7240, -8844, 391, 4, -337, 16, 39],
  "SliceThickness": 2,
  "SliceTiming": [0, 0.7825, 0.0975, 0.8825, 0.195, 0.98, 0.2925, 1.0775, 0.3925, 1.175, 0.49, 1.2725, 0.5875, 1.3725, 0.685, 0, 0.7825, 0.0975, 0.8825, 0.195, 0.98, 0.2925, 1.0775, 0.3925, 1.175, 0.49, 1.2725, 0.5875, 1.3725, 0.685, 0, 0.7825, 0.0975, 0.8825, 0.195, 0.98, 0.2925, 1.0775, 0.3925, 1.175, 0.49, 1.2725, 0.5875, 1.3725, 0.685, 0, 0.7825, 0.0975, 0.8825, 0.195, 0.98, 0.2925, 1.0775, 0.3925, 1.175, 0.49, 1.2725, 0.5875, 1.3725, 0.685],
  "SoftwareVersions": "syngo MR E11",
  "SpacingBetweenSlices": 2,
  "StationName": "MRC35049",
  "TaskName": "mario",
  "TotalReadoutTime": 0.0576811,
  "TxRefAmp": 268.687,
  "WipMemBlock": "3a73ce9c-c7a5-4dff-b3f3-7163da7872fa||Sequence: R016 ve11c/master r/e634e98; Dec 19 2017 11:00:25 by eja",
  "dcmmeta_affine": [
    [-1.9992640018463135, 0.05339999869465828, -0.009590914472937584, 101.89346313476562],
    [0.05313587933778763, 1.8557853698730469, -0.7437991499900818, -63.65454864501953],
    [0.010960099287331104, 0.743780255317688, 1.8565211296081543, -75.33134460449219],
    [0.0, 0.0, 0.0, 1.0]
],
  "dcmmeta_reorient_transform": [
    [0.0, -1.0, 0.0, 103.0],
    [1.0, 0.0, 0.0, 0.0],
    [0.0, 0.0, 1.0, 0.0],
    [0.0, 0.0, 0.0, 1.0]
],
  "dcmmeta_shape": [104, 104, 60, 579],
  "dcmmeta_slice_dim": 2,
  "dcmmeta_version": 0.6,
  "global": {
    "const": {
      "AcquisitionMatrix": [104, 0, 0, 104],
      "AngioFlag": "N",
      "BitsAllocated": 16,
      "BitsStored": 16,
      "BodyPartExamined": "BRAIN",
      "Columns": 832,
      "EchoNumbers": 1,
      "EchoTime": 37.0,
      "EchoTrainLength": 104,
      "FlipAngle": 52.0,
      "HighBit": 15,
      "ImageOrientationPatient": [0.99963198908897, -0.0265679402113, 0.00548004953995, 0.0266999996349, 0.92789268372435, -0.3718901417224],
      "ImagePositionPatient": [-854.56335066705, -783.65575715954, 268.02456815578],
      "ImageType": [
        "ORIGINAL",
        "PRIMARY",
        "P",
        "MB",
        "ND",
        "MOSAIC"
],
      "ImagedNucleus": "1H",
      "ImagingFrequency": 123.258827,
      "InPlanePhaseEncodingDirection": "COL",
      "LargestImagePixelValue": 4095,
      "MRAcquisitionType": "2D",
      "MagneticFieldStrength": 3.0,
      "Manufacturer": "SIEMENS",
      "ManufacturerModelName": "Prisma_fit",
      "Modality": "MR",
      "NumberOfAverages": 1.0,
      "NumberOfPhaseEncodingSteps": 104,
      "PercentPhaseFieldOfView": 100.0,
      "PercentSampling": 100.0,
      "PerformedProcedureStepStartTime": "170835.898000",
      "PhotometricInterpretation": "MONOCHROME2",
      "PixelBandwidth": 2290.0,
      "PixelRepresentation": 0,
      "PixelSpacing": [2.0, 2.0],
      "ProtocolName": "func_task-mario_run-03",
      "RepetitionTime": 1490.0,
      "RescaleIntercept": -4096.0,
      "RescaleSlope": 2.0,
      "RescaleType": "US",
      "Rows": 832,
      "SAR": 0.05442570673282,
      "SamplesPerPixel": 1,
      "ScanOptions": "FS",
      "ScanningSequence": "EP",
      "SequenceName": "epfid2d1_104",
      "SequenceVariant": [
        "SK",
        "SS"
],
      "SeriesDescription": "func_task-mario_run-03",
      "SeriesNumber": 17,
      "SeriesTime": "181021.891000",
      "SliceLocation": -46.742644880212,
      "SliceThickness": 2.0,
      "SmallestImagePixelValue": 0,
      "SoftwareVersions": "syngo MR E11",
      "SpacingBetweenSlices": 1.9999999453105,
      "SpecificCharacterSet": "ISO_IR 100",
      "StudyID": "1",
      "StudyTime": "170835.842000",
      "TransmitCoilName": "Body",
      "VariableFlipAngleFlag": "N",
      "WindowCenterWidthExplanation": "Algo1",
      "dBdt": 0.0},
    "slices": {}
  },
  "time": {
    "samples": {
      "AcquisitionNumber": [1, 2, 3, 4, 5, 6, 7, 8, 9, 10, 11, 12, 13, 14, 15, 16, 17, 18, 19, 20, 21, 22, 23, 24, 25, 26, 27, 28, 29, 30, 31, 32, 33, 34, 35, 36, 37, 38, 39, 40, 41, 42, 43, 44, 45, 46, 47, 48, 49, 50, 51, 52, 53, 54, 55, 56, 57, 58, 59, 60, 61, 62, 63, 64, 65, 66, 67, 68, 69, 70, 71, 72, 73, 74, 75, 76, 77, 78, 79, 80, 81, 82, 83, 84, 85, 86, 87, 88, 89, 90, 91, 92, 93, 94, 95, 96, 97, 98, 99, 100, 101, 102, 103, 104, 105, 106, 107, 108, 109, 110, 111, 112, 113, 114, 115, 116, 117, 118, 119, 120, 121, 122, 123, 124, 125, 126, 127, 128, 129, 130, 131, 132, 133, 134, 135, 136, 137, 138, 139, 140, 141, 142, 143, 144, 145, 146, 147, 148, 149, 150, 151, 152, 153, 154, 155, 156, 157, 158, 159, 160, 161, 162, 163, 164, 165, 166, 167, 168, 169, 170, 171, 172, 173, 174, 175, 176, 177, 178, 179, 180, 181, 182, 183, 184, 185, 186, 187, 188, 189, 190, 191, 192, 193, 194, 195, 196, 197, 198, 199, 200, 201, 202, 203, 204, 205, 206, 207, 208, 209, 210, 211, 212, 213, 214, 215, 216, 217, 218, 219, 220, 221, 222, 223, 224, 225, 226, 227, 228, 229, 230, 231, 232, 233, 234, 235, 236, 237, 238, 239, 240, 241, 242, 243, 244, 245, 246, 247, 248, 249, 250, 251, 252, 253, 254, 255, 256, 257, 258, 259, 260, 261, 262, 263, 264, 265, 266, 267, 268, 269, 270, 271, 272, 273, 274, 275, 276, 277, 278, 279, 280, 281, 282, 283, 284, 285, 286, 287, 288, 289, 290, 291, 292, 293, 294, 295, 296, 297, 298, 299, 300, 301, 302, 303, 304, 305, 306, 307, 308, 309, 310, 311, 312, 313, 314, 315, 316, 317, 318, 319, 320, 321, 322, 323, 324, 325, 326, 327, 328, 329, 330, 331, 332, 333, 334, 335, 336, 337, 338, 339, 340, 341, 342, 343, 344, 345, 346, 347, 348, 349, 350, 351, 352, 353, 354, 355, 356, 357, 358, 359, 360, 361, 362, 363, 364, 365, 366, 367, 368, 369, 370, 371, 372, 373, 374, 375, 376, 377, 378, 379, 380, 381, 382, 383, 384, 385, 386, 387, 388, 389, 390, 391, 392, 393, 394, 395, 396, 397, 398, 399, 400, 401, 402, 403, 404, 405, 406, 407, 408, 409, 410, 411, 412, 413, 414, 415, 416, 417, 418, 419, 420, 421, 422, 423, 424, 425, 426, 427, 428, 429, 430, 431, 432, 433, 434, 435, 436, 437, 438, 439, 440, 441, 442, 443, 444, 445, 446, 447, 448, 449, 450, 451, 452, 453, 454, 455, 456, 457, 458, 459, 460, 461, 462, 463, 464, 465, 466, 467, 468, 469, 470, 471, 472, 473, 474, 475, 476, 477, 478, 479, 480, 481, 482, 483, 484, 485, 486, 487, 488, 489, 490, 491, 492, 493, 494, 495, 496, 497, 498, 499, 500, 501, 502, 503, 504, 505, 506, 507, 508, 509, 510, 511, 512, 513, 514, 515, 516, 517, 518, 519, 520, 521, 522, 523, 524, 525, 526, 527, 528, 529, 530, 531, 532, 533, 534, 535, 536, 537, 538, 539, 540, 541, 542, 543, 544, 545, 546, 547, 548, 549, 550, 551, 552, 553, 554, 555, 556, 557, 558, 559, 560, 561, 562, 563, 564, 565, 566, 567, 568, 569, 570, 571, 572, 573, 574, 575, 576, 577, 578, 579],
      "AcquisitionTime": ["180848.657500", "180850.147500", "180851.637500", "180853.127500", "180854.617500", "180856.107500", "180857.597500", "180859.087500", "180900.577500", "180902.067500", "180903.557500", "180905.047500", "180906.537500", "180908.027500", "180909.517500", "180911.007500", "180912.497500", "180913.987500", "180915.477500", "180916.967500", "180918.457500", "180919.947500", "180921.437500", "180922.927500", "180924.417500", "180925.907500", "180927.397500", "180928.887500", "180930.377500", "180931.867500", "180933.357500", "180934.847500", "180936.337500", "180937.827500", "180939.317500", "180940.807500", "180942.297500", "180943.787500", "180945.277500", "180946.767500", "180948.257500", "180949.747500", "180951.237500", "180952.727500", "180954.217500", "180955.707500", "180957.197500", "180958.687500", "181000.177500", "181001.667500", "181003.157500", "181004.647500", "181006.137500", "181007.627500", "181009.117500", "181010.607500", "181012.097500", "181013.587500", "181015.077500", "181016.567500", "181018.057500", "181019.547500", "181021.037500", "181022.527500", "181024.017500", "181025.507500", "181026.997500", "181028.487500", "181029.977500", "181031.467500", "181032.957500", "181034.447500", "181035.937500", "181037.427500", "181038.917500", "181040.407500", "181041.897500", "181043.387500", "181044.877500", "181046.367500", "181047.857500", "181049.347500", "181050.837500", "181052.327500", "181053.817500", "181055.307500", "181056.797500", "181058.287500", "181059.777500", "181101.267500", "181102.757500", "181104.247500", "181105.737500", "181107.227500", "181108.717500", "181110.207500", "181111.697500", "181113.187500", "181114.677500", "181116.167500", "181117.657500", "181119.147500", "181120.637500", "181122.127500", "181123.617500", "181125.107500", "181126.597500", "181128.087500", "181129.577500", "181131.067500", "181132.557500", "181134.047500", "181135.537500", "181137.027500", "181138.517500", "181140.007500", "181141.497500", "181142.987500", "181144.477500", "181145.967500", "181147.457500", "181148.947500", "181150.437500", "181151.927500", "181153.417500", "181154.907500", "181156.397500", "181157.887500", "181159.377500", "181200.867500", "181202.357500", "181203.847500", "181205.337500", "181206.827500", "181208.317500", "181209.807500", "181211.297500", "181212.787500", "181214.277500", "181215.767500", "181217.257500", "181218.747500", "181220.237500", "181221.727500", "181223.217500", "181224.707500", "181226.197500", "181227.687500", "181229.177500", "181230.667500", "181232.157500", "181233.647500", "181235.137500", "181236.627500", "181238.117500", "181239.607500", "181241.097500", "181242.587500", "181244.077500", "181245.567500", "181247.057500", "181248.547500", "181250.037500", "181251.527500", "181253.017500", "181254.507500", "181255.997500", "181257.487500", "181258.977500", "181300.467500", "181301.957500", "181303.447500", "181304.937500", "181306.427500", "181307.917500", "181309.407500", "181310.897500", "181312.387500", "181313.877500", "181315.367500", "181316.857500", "181318.347500", "181319.837500", "181321.327500", "181322.817500", "181324.307500", "181325.797500", "181327.287500", "181328.777500", "181330.267500", "181331.757500", "181333.247500", "181334.737500", "181336.227500", "181337.717500", "181339.207500", "181340.697500", "181342.187500", "181343.677500", "181345.167500", "181346.657500", "181348.147500", "181349.637500", "181351.127500", "181352.617500", "181354.107500", "181355.597500", "181357.087500", "181358.577500", "181400.067500", "181401.557500", "181403.047500", "181404.537500", "181406.027500", "181407.517500", "181409.007500", "181410.497500", "181411.987500", "181413.477500", "181414.967500", "181416.457500", "181417.947500", "181419.437500", "181420.927500", "181422.417500", "181423.907500", "181425.397500", "181426.887500", "181428.377500", "181429.867500", "181431.357500", "181432.847500", "181434.337500", "181435.827500", "181437.317500", "181438.807500", "181440.297500", "181441.787500", "181443.277500", "181444.767500", "181446.257500", "181447.747500", "181449.237500", "181450.727500", "181452.217500", "181453.707500", "181455.197500", "181456.687500", "181458.177500", "181459.667500", "181501.157500", "181502.647500", "181504.137500", "181505.627500", "181507.117500", "181508.607500", "181510.097500", "181511.587500", "181513.077500", "181514.567500", "181516.057500", "181517.547500", "181519.037500", "181520.527500", "181522.017500", "181523.507500", "181524.997500", "181526.487500", "181527.977500", "181529.467500", "181530.957500", "181532.447500", "181533.937500", "181535.427500", "181536.917500", "181538.407500", "181539.897500", "181541.387500", "181542.877500", "181544.367500", "181545.857500", "181547.347500", "181548.837500", "181550.327500", "181551.817500", "181553.307500", "181554.797500", "181556.287500", "181557.777500", "181559.267500", "181600.757500", "181602.247500", "181603.737500", "181605.227500", "181606.717500", "181608.207500", "181609.697500", "181611.187500", "181612.677500", "181614.167500", "181615.657500", "181617.147500", "181618.637500", "181620.127500", "181621.617500", "181623.107500", "181624.597500", "181626.087500", "181627.577500", "181629.067500", "181630.557500", "181632.047500", "181633.537500", "181635.027500", "181636.517500", "181638.007500", "181639.497500", "181640.987500", "181642.477500", "181643.967500", "181645.457500", "181646.947500", "181648.437500", "181649.927500", "181651.417500", "181652.907500", "181654.397500", "181655.887500", "181657.377500", "181658.867500", "181700.357500", "181701.847500", "181703.337500", "181704.827500", "181706.317500", "181707.807500", "181709.297500", "181710.787500", "181712.277500", "181713.767500", "181715.257500", "181716.747500", "181718.237500", "181719.727500", "181721.217500", "181722.707500", "181724.197500", "181725.687500", "181727.177500", "181728.667500", "181730.157500", "181731.647500", "181733.137500", "181734.627500", "181736.117500", "181737.607500", "181739.097500", "181740.587500", "181742.077500", "181743.567500", "181745.057500", "181746.547500", "181748.037500", "181749.527500", "181751.017500", "181752.507500", "181753.997500", "181755.487500", "181756.977500", "181758.467500", "181759.957500", "181801.447500", "181802.937500", "181804.427500", "181805.917500", "181807.407500", "181808.897500", "181810.387500", "181811.877500", "181813.367500", "181814.857500", "181816.347500", "181817.837500", "181819.327500", "181820.817500", "181822.307500", "181823.797500", "181825.287500", "181826.777500", "181828.267500", "181829.757500", "181831.247500", "181832.737500", "181834.227500", "181835.717500", "181837.207500", "181838.697500", "181840.187500", "181841.677500", "181843.167500", "181844.657500", "181846.147500", "181847.637500", "181849.127500", "181850.617500", "181852.107500", "181853.597500", "181855.087500", "181856.577500", "181858.067500", "181859.557500", "181901.047500", "181902.537500", "181904.027500", "181905.517500", "181907.007500", "181908.497500", "181909.987500", "181911.477500", "181912.967500", "181914.457500", "181915.947500", "181917.437500", "181918.927500", "181920.417500", "181921.907500", "181923.397500", "181924.887500", "181926.377500", "181927.867500", "181929.357500", "181930.847500", "181932.337500", "181933.827500", "181935.317500", "181936.807500", "181938.297500", "181939.787500", "181941.277500", "181942.767500", "181944.257500", "181945.747500", "181947.237500", "181948.727500", "181950.217500", "181951.707500", "181953.197500", "181954.687500", "181956.177500", "181957.667500", "181959.157500", "182000.647500", "182002.137500", "182003.627500", "182005.117500", "182006.607500", "182008.097500", "182009.587500", "182011.077500", "182012.567500", "182014.057500", "182015.547500", "182017.037500", "182018.527500", "182020.017500", "182021.507500", "182022.997500", "182024.487500", "182025.977500", "182027.467500", "182028.957500", "182030.447500", "182031.937500", "182033.427500", "182034.917500", "182036.407500", "182037.897500", "182039.387500", "182040.877500", "182042.367500", "182043.857500", "182045.347500", "182046.837500", "182048.327500", "182049.817500", "182051.307500", "182052.797500", "182054.287500", "182055.777500", "182057.267500", "182058.757500", "182100.247500", "182101.737500", "182103.227500", "182104.717500", "182106.207500", "182107.697500", "182109.187500", "182110.677500", "182112.167500", "182113.657500", "182115.147500", "182116.637500", "182118.127500", "182119.617500", "182121.107500", "182122.597500", "182124.087500", "182125.577500", "182127.067500", "182128.557500", "182130.047500", "182131.537500", "182133.027500", "182134.517500", "182136.007500", "182137.497500", "182138.987500", "182140.477500", "182141.967500", "182143.457500", "182144.947500", "182146.437500", "182147.927500", "182149.417500", "182150.907500", "182152.397500", "182153.887500", "182155.377500", "182156.867500", "182158.357500", "182159.847500", "182201.337500", "182202.827500", "182204.317500", "182205.807500", "182207.297500", "182208.787500", "182210.277500", "182211.767500", "182213.257500", "182214.747500", "182216.237500", "182217.727500", "182219.217500", "182220.707500", "182222.197500", "182223.687500", "182225.177500", "182226.667500", "182228.157500", "182229.647500", "182231.137500", "182232.627500", "182234.117500", "182235.607500", "182237.097500", "182238.587500", "182240.077500", "182241.567500", "182243.057500", "182244.547500", "182246.037500", "182247.527500", "182249.017500", "182250.507500", "182251.997500", "182253.487500", "182254.977500", "182256.467500", "182257.957500", "182259.447500", "182300.937500", "182302.427500", "182303.917500", "182305.407500", "182306.897500", "182308.387500", "182309.877500"],
      "ContentTime": ["181021.893000", "181021.896000", "181021.899000", "181021.901000", "181021.904000", "181021.906000", "181021.909000", "181021.911000", "181021.914000", "181021.916000", "181021.919000", "181021.921000", "181021.924000", "181021.927000", "181021.929000", "181021.932000", "181021.934000", "181021.936000", "181021.939000", "181021.941000", "181021.944000", "181021.946000", "181021.949000", "181021.951000", "181021.954000", "181021.956000", "181021.959000", "181021.961000", "181021.964000", "181021.966000", "181021.969000", "181021.971000", "181021.974000", "181021.976000", "181021.979000", "181021.982000", "181021.984000", "181021.987000", "181021.989000", "181041.765000", "181041.768000", "181041.770000", "181041.773000", "181041.775000", "181041.778000", "181041.780000", "181041.783000", "181041.785000", "181041.788000", "181041.790000", "181041.793000", "181041.795000", "181041.798000", "181041.800000", "181041.803000", "181041.805000", "181041.808000", "181041.810000", "181041.813000", "181041.815000", "181101.752000", "181101.755000", "181101.758000", "181101.760000", "181101.763000", "181101.765000", "181101.768000", "181101.770000", "181101.773000", "181101.775000", "181101.778000", "181101.780000", "181101.783000", "181101.785000", "181101.788000", "181101.790000", "181101.793000", "181101.795000", "181101.798000", "181101.800000", "181121.844000", "181121.847000", "181121.849000", "181121.852000", "181121.854000", "181121.857000", "181121.859000", "181121.862000", "181121.865000", "181121.867000", "181121.870000", "181121.872000", "181121.875000", "181121.877000", "181121.880000", "181121.882000", "181121.885000", "181121.887000", "181121.890000", "181121.892000", "181201.799000", "181201.802000", "181201.804000", "181201.807000", "181201.810000", "181201.812000", "181201.815000", "181201.817000", "181201.820000", "181201.822000", "181201.825000", "181201.827000", "181201.830000", "181201.832000", "181201.834000", "181201.837000", "181201.840000", "181201.842000", "181201.845000", "181201.847000", "181201.850000", "181201.852000", "181201.855000", "181201.857000", "181201.860000", "181201.862000", "181201.865000", "181201.867000", "181201.870000", "181241.797000", "181241.800000", "181241.803000", "181241.805000", "181241.808000", "181241.810000", "181241.813000", "181241.815000", "181241.818000", "181241.820000", "181241.823000", "181241.825000", "181241.828000", "181241.845000", "181241.847000", "181241.850000", "181241.852000", "181241.855000", "181241.857000", "181241.860000", "181241.862000", "181241.865000", "181241.867000", "181241.870000", "181241.872000", "181241.875000", "181321.830000", "181321.832000", "181321.835000", "181321.837000", "181321.840000", "181321.842000", "181321.845000", "181321.847000", "181321.850000", "181321.852000", "181321.855000", "181321.857000", "181321.860000", "181321.862000", "181321.865000", "181321.867000", "181321.870000", "181321.872000", "181321.875000", "181321.877000", "181321.880000", "181321.883000", "181321.886000", "181321.888000", "181321.891000", "181321.893000", "181321.905000", "181401.798000", "181401.801000", "181401.803000", "181401.806000", "181401.808000", "181401.811000", "181401.813000", "181401.816000", "181401.818000", "181401.821000", "181401.823000", "181401.826000", "181401.828000", "181401.836000", "181401.838000", "181401.841000", "181401.843000", "181401.846000", "181401.848000", "181401.851000", "181401.853000", "181401.856000", "181401.859000", "181401.861000", "181401.864000", "181401.866000", "181401.869000", "181441.833000", "181441.836000", "181441.838000", "181441.841000", "181441.843000", "181441.846000", "181441.848000", "181441.851000", "181441.853000", "181441.856000", "181441.858000", "181441.861000", "181441.863000", "181441.866000", "181441.868000", "181441.871000", "181441.873000", "181441.876000", "181441.878000", "181441.881000", "181441.883000", "181441.886000", "181441.888000", "181441.891000", "181441.893000", "181441.896000", "181441.898000", "181521.792000", "181521.795000", "181521.797000", "181521.800000", "181521.803000", "181521.805000", "181521.808000", "181521.810000", "181521.813000", "181521.815000", "181521.818000", "181521.821000", "181521.823000", "181521.826000", "181521.828000", "181521.831000", "181521.833000", "181521.836000", "181521.838000", "181521.841000", "181521.843000", "181521.846000", "181521.848000", "181521.851000", "181521.853000", "181521.856000", "181521.858000", "181601.802000", "181601.805000", "181601.808000", "181601.810000", "181601.813000", "181601.815000", "181601.818000", "181601.820000", "181601.823000", "181601.825000", "181601.828000", "181601.839000", "181601.842000", "181601.844000", "181601.847000", "181601.849000", "181601.852000", "181601.854000", "181601.857000", "181601.859000", "181601.862000", "181601.864000", "181601.867000", "181601.869000", "181601.872000", "181601.874000", "181601.877000", "181621.723000", "181621.726000", "181621.729000", "181621.731000", "181621.734000", "181621.737000", "181621.740000", "181621.742000", "181621.745000", "181621.747000", "181621.750000", "181621.752000", "181621.755000", "181701.801000", "181701.804000", "181701.807000", "181701.809000", "181701.812000", "181701.814000", "181701.817000", "181701.819000", "181701.822000", "181701.824000", "181701.827000", "181701.829000", "181701.832000", "181701.834000", "181701.837000", "181701.839000", "181701.842000", "181701.844000", "181701.847000", "181701.850000", "181701.852000", "181701.855000", "181701.857000", "181701.860000", "181701.862000", "181701.865000", "181701.867000", "181741.827000", "181741.830000", "181741.833000", "181741.835000", "181741.838000", "181741.840000", "181741.854000", "181741.857000", "181741.860000", "181741.863000", "181741.866000", "181741.869000", "181741.871000", "181741.874000", "181741.877000", "181741.879000", "181741.882000", "181741.884000", "181741.887000", "181741.890000", "181741.892000", "181741.895000", "181741.897000", "181741.900000", "181741.903000", "181741.905000", "181741.908000", "181821.840000", "181821.843000", "181821.845000", "181821.848000", "181821.850000", "181821.853000", "181821.855000", "181821.858000", "181821.860000", "181821.863000", "181821.865000", "181821.868000", "181821.871000", "181821.874000", "181821.876000", "181821.879000", "181821.881000", "181821.884000", "181821.886000", "181821.889000", "181821.891000", "181821.894000", "181821.896000", "181821.899000", "181821.901000", "181821.911000", "181821.913000", "181902.265000", "181902.268000", "181902.270000", "181902.273000", "181902.275000", "181902.278000", "181902.280000", "181902.283000", "181902.285000", "181902.288000", "181902.290000", "181902.293000", "181902.295000", "181902.298000", "181902.300000", "181902.303000", "181902.305000", "181902.308000", "181902.310000", "181902.313000", "181902.315000", "181902.318000", "181902.321000", "181902.323000", "181902.326000", "181902.328000", "181941.799000", "181941.802000", "181941.805000", "181941.807000", "181941.810000", "181941.812000", "181941.815000", "181941.817000", "181941.820000", "181941.822000", "181941.825000", "181941.828000", "181941.831000", "181941.833000", "181941.836000", "181941.838000", "181941.841000", "181941.843000", "181941.846000", "181941.848000", "181941.851000", "181941.853000", "181941.856000", "181941.858000", "181941.861000", "181941.863000", "181941.866000", "182021.803000", "182021.805000", "182021.808000", "182021.810000", "182021.813000", "182021.816000", "182021.818000", "182021.821000", "182021.823000", "182021.826000", "182021.828000", "182021.831000", "182021.833000", "182021.836000", "182021.838000", "182021.841000", "182021.843000", "182021.846000", "182021.848000", "182021.851000", "182021.853000", "182021.856000", "182021.858000", "182021.861000", "182021.863000", "182021.866000", "182021.869000", "182101.788000", "182101.791000", "182101.793000", "182101.796000", "182101.798000", "182101.801000", "182101.803000", "182101.806000", "182101.809000", "182101.811000", "182101.814000", "182101.816000", "182101.819000", "182101.821000", "182101.830000", "182101.832000", "182101.835000", "182101.837000", "182101.840000", "182101.842000", "182101.845000", "182101.847000", "182101.850000", "182101.853000", "182101.855000", "182101.858000", "182101.860000", "182141.803000", "182141.806000", "182141.808000", "182141.811000", "182141.814000", "182141.816000", "182141.819000", "182141.821000", "182141.824000", "182141.826000", "182141.829000", "182141.831000", "182141.834000", "182141.836000", "182141.839000", "182141.841000", "182141.844000", "182141.846000", "182141.849000", "182141.851000", "182141.854000", "182141.857000", "182141.859000", "182141.862000", "182141.864000", "182141.867000", "182141.869000", "182221.817000", "182221.820000", "182221.823000", "182221.825000", "182221.828000", "182221.830000", "182221.833000", "182221.835000", "182221.838000", "182221.840000", "182221.843000", "182221.845000", "182221.848000", "182221.850000", "182221.853000", "182221.855000", "182221.858000", "182221.860000", "182221.863000", "182221.866000", "182221.868000", "182221.871000", "182221.873000", "182221.876000", "182221.878000", "182221.881000", "182221.883000", "182301.860000", "182301.863000", "182301.865000", "182301.868000", "182301.870000", "182301.873000", "182301.875000", "182301.878000", "182301.880000", "182301.883000", "182301.885000", "182301.888000", "182301.890000", "182301.893000", "182301.895000", "182301.898000", "182301.900000", "182301.903000", "182301.905000", "182301.908000", "182301.911000", "182301.913000", "182301.916000", "182301.918000", "182301.921000", "182301.923000", "182301.926000", "182312.721000", "182312.723000", "182312.726000", "182312.728000", "182312.731000", "182312.734000", "182312.736000"],
