{
  "AcquisitionMatrixPE": 104,
  "AcquisitionNumber": 1,
  "AcquisitionTime": "18:37:29.285000",
  "BandwidthPerPixelPhaseEncode": 17.17,
  "BaseResolution": 104,
  "BodyPartExamined": "BRAIN",
  "CoilCombinationMethod": "Sum of Squares",
  "ConsistencyInfo": "N4_VE11C_LATEST_20160120",
  "ConversionSoftware": "dcm2niix",
  "ConversionSoftwareVersion": "v1.0.20211006",
  "DerivedVendorReportedEchoSpacing": 0.000560011,
  "DeviceSerialNumber": "167006",
  "DwellTime": 2.1e-06,
  "EchoTime": 0.037,
  "EchoTrainLength": 104,
  "EffectiveEchoSpacing": 0.000560011,
  "FlipAngle": 52,
  "HeudiconvVersion": "0.10.0",
  "ImageComments": "Unaliased MB4/PE3/LB",
  "ImageOrientationPatientDICOM": [0.997328, 0.0462434, 0.0565493, -0.0297743, 0.96423, -0.263389],
  "ImageOrientationText": "Tra>Cor(-15.2)>Sag(3.8)",
  "ImageType": [
    "ORIGINAL",
    "PRIMARY",
    "M",
    "MB",
    "ND",
    "MOSAIC"
],
  "ImagingFrequency": 123.259,
  "InPlanePhaseEncodingDirectionDICOM": "COL",
  "InstitutionAddress": "Chemin Queen-Mary 4565,Montreal,District,CA,H3W 1W5",
  "InstitutionName": "IUGM",
  "InstitutionalDepartmentName": "Department",
  "MRAcquisitionType": "2D",
  "MagneticFieldStrength": 3,
  "Manufacturer": "Siemens",
  "ManufacturersModelName": "Prisma_fit",
  "MatrixCoilMode": "SENSE",
  "Modality": "MR",
  "MultibandAccelerationFactor": 4,
  "PartialFourier": 1,
  "PatientPosition": "HFS",
  "PercentPhaseFOV": 100,
  "PercentSampling": 100,
  "PhaseEncodingDirection": "j",
  "PhaseEncodingSteps": 104,
  "PhaseResolution": 1,
  "PixelBandwidth": 2290,
  "ProcedureStepDescription": "games^mario",
  "ProtocolName": "func_task-mario_run-03",
  "PulseSequenceDetails": "%CustomerSeq%\\cmrr_mbep2d_bold",
  "ReceiveCoilActiveElements": "HC1-7;NC1,2",
  "ReceiveCoilName": "HeadNeck_64",
  "ReconMatrixPE": 104,
  "RepetitionTime": 1.49,
  "SAR": 0.0479789,
  "ScanOptions": "FS",
  "ScanningSequence": "EP",
  "SequenceName": "epfid2d1_104",
  "SequenceVariant": "SK\\SS",
  "SeriesDescription": "func_task-mario_run-03",
  "SeriesNumber": 16,
  "ShimSetting": [650, -7213, -8775, 706, 63, -11, 33, 14],
  "SliceThickness": 2,
  "SliceTiming": [0, 0.785, 0.0975, 0.8825, 0.195, 0.98, 0.295, 1.0775, 0.3925, 1.175, 0.49, 1.275, 0.5875, 1.3725, 0.685, 0, 0.785, 0.0975, 0.8825, 0.195, 0.98, 0.295, 1.0775, 0.3925, 1.175, 0.49, 1.275, 0.5875, 1.3725, 0.685, 0, 0.785, 0.0975, 0.8825, 0.195, 0.98, 0.295, 1.0775, 0.3925, 1.175, 0.49, 1.275, 0.5875, 1.3725, 0.685, 0, 0.785, 0.0975, 0.8825, 0.195, 0.98, 0.295, 1.0775, 0.3925, 1.175, 0.49, 1.275, 0.5875, 1.3725, 0.685],
  "SoftwareVersions": "syngo MR E11",
  "SpacingBetweenSlices": 2,
  "StationName": "MRC35049",
  "TaskName": "mario",
  "TotalReadoutTime": 0.0576811,
  "TxRefAmp": 238.264,
  "WipMemBlock": "1b2cafb3-867e-4c5b-92c6-2fdf872c6f18||Sequence: R016 ve11c/master r/e634e98; Dec 19 2017 11:00:25 by eja",
  "dcmmeta_affine": [
    [-1.9946565628051758, -0.05954859033226967, 0.13341310620307922, 108.35362243652344],
    [-0.09248672425746918, 1.9284600019454956, -0.5220039486885071, -69.0191421508789],
    [0.1130986288189888, 0.5267787575721741, 1.9260613918304443, -64.34784698486328],
    [0.0, 0.0, 0.0, 1.0]
],
  "dcmmeta_reorient_transform": [
    [0.0, -1.0, 0.0, 103.0],
    [1.0, 0.0, 0.0, 0.0],
    [0.0, 0.0, 1.0, 0.0],
    [0.0, 0.0, 0.0, 1.0]
],
  "dcmmeta_shape": [104, 104, 60, 474],
  "dcmmeta_slice_dim": 2,
  "dcmmeta_version": 0.6,
  "global": {
    "const": {
      "AcquisitionMatrix": [104, 0, 0, 104],
      "AngioFlag": "N",
      "BitsAllocated": 16,
      "BitsStored": 16,
      "BodyPartExamined": "BRAIN",
      "Columns": 832,
      "EchoNumbers": 1,
      "EchoTime": 37.0,
      "EchoTrainLength": 104,
      "FlipAngle": 52.0,
      "HighBit": 15,
      "ImageOrientationPatient": [0.99732829425406, 0.04624336156933, 0.05654931468239, -0.029774295693, 0.96423001373112, -0.2633893922239],
      "ImagePositionPatient": [-806.59942615241, -865.23685850388, 140.48994277504],
      "ImageType": [
        "ORIGINAL",
        "PRIMARY",
        "M",
        "MB",
        "ND",
        "MOSAIC"
],
      "ImagedNucleus": "1H",
      "ImagingFrequency": 123.258859,
      "InPlanePhaseEncodingDirection": "COL",
      "MRAcquisitionType": "2D",
      "MagneticFieldStrength": 3.0,
      "Manufacturer": "SIEMENS",
      "ManufacturerModelName": "Prisma_fit",
      "Modality": "MR",
      "NumberOfAverages": 1.0,
      "NumberOfPhaseEncodingSteps": 104,
      "PercentPhaseFieldOfView": 100.0,
      "PercentSampling": 100.0,
      "PerformedProcedureStepStartTime": "173606.280000",
      "PhotometricInterpretation": "MONOCHROME2",
      "PixelBandwidth": 2290.0,
      "PixelRepresentation": 0,
      "PixelSpacing": [2.0, 2.0],
      "ProtocolName": "func_task-mario_run-03",
      "RepetitionTime": 1490.0,
      "Rows": 832,
      "SAR": 0.04797892445166,
      "SamplesPerPixel": 1,
      "ScanOptions": "FS",
      "ScanningSequence": "EP",
      "SequenceName": "epfid2d1_104",
      "SequenceVariant": [
        "SK",
        "SS"
],
      "SeriesDescription": "func_task-mario_run-03",
      "SeriesNumber": 16,
      "SeriesTime": "183845.193000",
      "SliceLocation": -36.726926641039,
      "SliceThickness": 2.0,
      "SmallestImagePixelValue": 0,
      "SoftwareVersions": "syngo MR E11",
      "SpacingBetweenSlices": 1.9999999313608,
      "SpecificCharacterSet": "ISO_IR 100",
      "StudyID": "1",
      "StudyTime": "173606.227000",
      "TransmitCoilName": "Body",
      "VariableFlipAngleFlag": "N",
      "WindowCenterWidthExplanation": "Algo1",
      "dBdt": 0.0},
    "slices": {}
  },
  "time": {
    "samples": {
      "AcquisitionNumber": [1, 2, 3, 4, 5, 6, 7, 8, 9, 10, 11, 12, 13, 14, 15, 16, 17, 18, 19, 20, 21, 22, 23, 24, 25, 26, 27, 28, 29, 30, 31, 32, 33, 34, 35, 36, 37, 38, 39, 40, 41, 42, 43, 44, 45, 46, 47, 48, 49, 50, 51, 52, 53, 54, 55, 56, 57, 58, 59, 60, 61, 62, 63, 64, 65, 66, 67, 68, 69, 70, 71, 72, 73, 74, 75, 76, 77, 78, 79, 80, 81, 82, 83, 84, 85, 86, 87, 88, 89, 90, 91, 92, 93, 94, 95, 96, 97, 98, 99, 100, 101, 102, 103, 104, 105, 106, 107, 108, 109, 110, 111, 112, 113, 114, 115, 116, 117, 118, 119, 120, 121, 122, 123, 124, 125, 126, 127, 128, 129, 130, 131, 132, 133, 134, 135, 136, 137, 138, 139, 140, 141, 142, 143, 144, 145, 146, 147, 148, 149, 150, 151, 152, 153, 154, 155, 156, 157, 158, 159, 160, 161, 162, 163, 164, 165, 166, 167, 168, 169, 170, 171, 172, 173, 174, 175, 176, 177, 178, 179, 180, 181, 182, 183, 184, 185, 186, 187, 188, 189, 190, 191, 192, 193, 194, 195, 196, 197, 198, 199, 200, 201, 202, 203, 204, 205, 206, 207, 208, 209, 210, 211, 212, 213, 214, 215, 216, 217, 218, 219, 220, 221, 222, 223, 224, 225, 226, 227, 228, 229, 230, 231, 232, 233, 234, 235, 236, 237, 238, 239, 240, 241, 242, 243, 244, 245, 246, 247, 248, 249, 250, 251, 252, 253, 254, 255, 256, 257, 258, 259, 260, 261, 262, 263, 264, 265, 266, 267, 268, 269, 270, 271, 272, 273, 274, 275, 276, 277, 278, 279, 280, 281, 282, 283, 284, 285, 286, 287, 288, 289, 290, 291, 292, 293, 294, 295, 296, 297, 298, 299, 300, 301, 302, 303, 304, 305, 306, 307, 308, 309, 310, 311, 312, 313, 314, 315, 316, 317, 318, 319, 320, 321, 322, 323, 324, 325, 326, 327, 328, 329, 330, 331, 332, 333, 334, 335, 336, 337, 338, 339, 340, 341, 342, 343, 344, 345, 346, 347, 348, 349, 350, 351, 352, 353, 354, 355, 356, 357, 358, 359, 360, 361, 362, 363, 364, 365, 366, 367, 368, 369, 370, 371, 372, 373, 374, 375, 376, 377, 378, 379, 380, 381, 382, 383, 384, 385, 386, 387, 388, 389, 390, 391, 392, 393, 394, 395, 396, 397, 398, 399, 400, 401, 402, 403, 404, 405, 406, 407, 408, 409, 410, 411, 412, 413, 414, 415, 416, 417, 418, 419, 420, 421, 422, 423, 424, 425, 426, 427, 428, 429, 430, 431, 432, 433, 434, 435, 436, 437, 438, 439, 440, 441, 442, 443, 444, 445, 446, 447, 448, 449, 450, 451, 452, 453, 454, 455, 456, 457, 458, 459, 460, 461, 462, 463, 464, 465, 466, 467, 468, 469, 470, 471, 472, 473, 474],
      "AcquisitionTime": ["183729.285000", "183730.775000", "183732.265000", "183733.755000", "183735.245000", "183736.735000", "183738.225000", "183739.715000", "183741.205000", "183742.695000", "183744.185000", "183745.675000", "183747.165000", "183748.655000", "183750.145000", "183751.635000", "183753.125000", "183754.615000", "183756.105000", "183757.595000", "183759.085000", "183800.575000", "183802.065000", "183803.555000", "183805.045000", "183806.535000", "183808.025000", "183809.515000", "183811.005000", "183812.495000", "183813.985000", "183815.475000", "183816.965000", "183818.455000", "183819.945000", "183821.435000", "183822.925000", "183824.415000", "183825.905000", "183827.395000", "183828.885000", "183830.375000", "183831.865000", "183833.355000", "183834.845000", "183836.335000", "183837.825000", "183839.315000", "183840.805000", "183842.295000", "183843.785000", "183845.275000", "183846.765000", "183848.255000", "183849.745000", "183851.235000", "183852.725000", "183854.215000", "183855.705000", "183857.195000", "183858.685000", "183900.175000", "183901.665000", "183903.155000", "183904.645000", "183906.135000", "183907.625000", "183909.115000", "183910.605000", "183912.095000", "183913.585000", "183915.075000", "183916.565000", "183918.055000", "183919.545000", "183921.035000", "183922.525000", "183924.015000", "183925.505000", "183926.995000", "183928.485000", "183929.975000", "183931.465000", "183932.955000", "183934.445000", "183935.935000", "183937.425000", "183938.915000", "183940.405000", "183941.895000", "183943.385000", "183944.875000", "183946.365000", "183947.855000", "183949.345000", "183950.835000", "183952.325000", "183953.815000", "183955.305000", "183956.795000", "183958.285000", "183959.775000", "184001.265000", "184002.755000", "184004.245000", "184005.735000", "184007.225000", "184008.715000", "184010.205000", "184011.695000", "184013.185000", "184014.675000", "184016.165000", "184017.655000", "184019.145000", "184020.635000", "184022.125000", "184023.615000", "184025.105000", "184026.595000", "184028.085000", "184029.575000", "184031.065000", "184032.555000", "184034.045000", "184035.535000", "184037.025000", "184038.515000", "184040.005000", "184041.495000", "184042.985000", "184044.475000", "184045.965000", "184047.455000", "184048.945000", "184050.435000", "184051.925000", "184053.415000", "184054.905000", "184056.395000", "184057.885000", "184059.375000", "184100.865000", "184102.355000", "184103.845000", "184105.335000", "184106.825000", "184108.315000", "184109.805000", "184111.295000", "184112.785000", "184114.275000", "184115.765000", "184117.255000", "184118.745000", "184120.235000", "184121.725000", "184123.215000", "184124.705000", "184126.195000", "184127.685000", "184129.175000", "184130.665000", "184132.155000", "184133.645000", "184135.135000", "184136.625000", "184138.115000", "184139.605000", "184141.095000", "184142.585000", "184144.075000", "184145.565000", "184147.055000", "184148.545000", "184150.035000", "184151.525000", "184153.015000", "184154.505000", "184155.995000", "184157.485000", "184158.975000", "184200.465000", "184201.955000", "184203.445000", "184204.935000", "184206.425000", "184207.915000", "184209.405000", "184210.895000", "184212.385000", "184213.875000", "184215.365000", "184216.855000", "184218.345000", "184219.835000", "184221.325000", "184222.815000", "184224.305000", "184225.795000", "184227.285000", "184228.775000", "184230.265000", "184231.755000", "184233.245000", "184234.735000", "184236.225000", "184237.715000", "184239.205000", "184240.695000", "184242.185000", "184243.675000", "184245.165000", "184246.655000", "184248.145000", "184249.635000", "184251.125000", "184252.615000", "184254.105000", "184255.595000", "184257.085000", "184258.575000", "184300.065000", "184301.555000", "184303.045000", "184304.535000", "184306.025000", "184307.515000", "184309.005000", "184310.495000", "184311.985000", "184313.475000", "184314.965000", "184316.455000", "184317.945000", "184319.435000", "184320.925000", "184322.415000", "184323.905000", "184325.395000", "184326.885000", "184328.375000", "184329.865000", "184331.355000", "184332.845000", "184334.335000", "184335.825000", "184337.315000", "184338.805000", "184340.295000", "184341.785000", "184343.275000", "184344.765000", "184346.255000", "184347.745000", "184349.235000", "184350.725000", "184352.215000", "184353.705000", "184355.195000", "184356.685000", "184358.175000", "184359.665000", "184401.155000", "184402.645000", "184404.135000", "184405.625000", "184407.115000", "184408.605000", "184410.095000", "184411.585000", "184413.075000", "184414.565000", "184416.055000", "184417.545000", "184419.035000", "184420.525000", "184422.015000", "184423.505000", "184424.995000", "184426.485000", "184427.975000", "184429.465000", "184430.955000", "184432.445000", "184433.935000", "184435.425000", "184436.915000", "184438.405000", "184439.895000", "184441.385000", "184442.875000", "184444.365000", "184445.855000", "184447.345000", "184448.835000", "184450.325000", "184451.815000", "184453.305000", "184454.795000", "184456.285000", "184457.775000", "184459.265000", "184500.755000", "184502.245000", "184503.735000", "184505.225000", "184506.715000", "184508.205000", "184509.695000", "184511.185000", "184512.675000", "184514.165000", "184515.655000", "184517.145000", "184518.635000", "184520.125000", "184521.615000", "184523.105000", "184524.595000", "184526.085000", "184527.575000", "184529.065000", "184530.555000", "184532.045000", "184533.535000", "184535.025000", "184536.515000", "184538.005000", "184539.495000", "184540.985000", "184542.475000", "184543.965000", "184545.455000", "184546.945000", "184548.435000", "184549.925000", "184551.415000", "184552.905000", "184554.395000", "184555.885000", "184557.375000", "184558.865000", "184600.355000", "184601.845000", "184603.335000", "184604.825000", "184606.315000", "184607.805000", "184609.295000", "184610.785000", "184612.275000", "184613.765000", "184615.255000", "184616.745000", "184618.235000", "184619.725000", "184621.215000", "184622.705000", "184624.195000", "184625.685000", "184627.175000", "184628.665000", "184630.155000", "184631.645000", "184633.135000", "184634.625000", "184636.115000", "184637.605000", "184639.095000", "184640.585000", "184642.075000", "184643.565000", "184645.055000", "184646.545000", "184648.035000", "184649.525000", "184651.015000", "184652.505000", "184653.995000", "184655.485000", "184656.975000", "184658.465000", "184659.955000", "184701.445000", "184702.935000", "184704.425000", "184705.915000", "184707.405000", "184708.895000", "184710.385000", "184711.875000", "184713.365000", "184714.855000", "184716.345000", "184717.835000", "184719.325000", "184720.815000", "184722.305000", "184723.795000", "184725.285000", "184726.775000", "184728.265000", "184729.755000", "184731.245000", "184732.735000", "184734.225000", "184735.715000", "184737.205000", "184738.695000", "184740.185000", "184741.675000", "184743.165000", "184744.655000", "184746.145000", "184747.635000", "184749.125000", "184750.615000", "184752.105000", "184753.595000", "184755.085000", "184756.575000", "184758.065000", "184759.555000", "184801.045000", "184802.535000", "184804.025000", "184805.515000", "184807.005000", "184808.495000", "184809.985000", "184811.475000", "184812.965000", "184814.455000", "184815.945000", "184817.435000", "184818.925000", "184820.415000", "184821.905000", "184823.395000", "184824.885000", "184826.375000", "184827.865000", "184829.355000", "184830.845000", "184832.335000", "184833.825000", "184835.315000", "184836.805000", "184838.295000", "184839.785000", "184841.275000", "184842.765000", "184844.255000", "184845.745000", "184847.235000", "184848.725000", "184850.215000", "184851.705000", "184853.195000", "184854.685000", "184856.175000", "184857.665000", "184859.155000", "184900.645000", "184902.135000", "184903.625000", "184905.115000", "184906.605000", "184908.095000", "184909.585000", "184911.075000", "184912.565000", "184914.055000"],
      "ContentTime": ["183845.196000", "183845.200000", "183845.203000", "183845.206000", "183845.215000", "183845.218000", "183845.221000", "183845.225000", "183845.228000", "183845.231000", "183845.234000", "183845.237000", "183845.241000", "183845.250000", "183845.253000", "183845.257000", "183845.260000", "183845.263000", "183845.266000", "183845.270000", "183905.158000", "183905.236000", "183905.240000", "183905.243000", "183905.246000", "183905.249000", "183905.253000", "183905.256000", "183905.259000", "183905.262000", "183905.266000", "183905.269000", "183905.272000", "183905.275000", "183905.279000", "183905.282000", "183905.285000", "183905.288000", "183905.292000", "183905.295000", "183925.158000", "183925.162000", "183925.165000", "183925.168000", "183925.171000", "183925.175000", "183925.178000", "183925.181000", "183925.184000", "183925.188000", "183925.191000", "183925.194000", "183925.197000", "183925.201000", "183925.204000", "183925.213000", "183925.217000", "183925.220000", "183925.223000", "183925.226000", "183945.158000", "183945.176000", "183945.179000", "183945.183000", "183945.186000", "183945.189000", "183945.193000", "183945.196000", "183945.199000", "183945.202000", "183945.206000", "183945.209000", "183945.212000", "183945.215000", "183945.219000", "183945.222000", "183945.225000", "183945.228000", "183945.232000", "183945.235000", "184005.158000", "184005.162000", "184005.165000", "184005.168000", "184005.171000", "184005.175000", "184005.178000", "184005.182000", "184005.185000", "184005.189000", "184005.192000", "184005.196000", "184005.201000", "184005.205000", "184005.209000", "184005.212000", "184005.215000", "184005.219000", "184005.222000", "184005.225000", "184045.159000", "184045.163000", "184045.166000", "184045.169000", "184045.173000", "184045.176000", "184045.179000", "184045.182000", "184045.186000", "184045.189000", "184045.192000", "184045.196000", "184045.199000", "184045.202000", "184045.205000", "184045.209000", "184045.212000", "184045.215000", "184045.218000", "184045.222000", "184045.225000", "184045.228000", "184045.231000", "184045.235000", "184045.238000", "184045.241000", "184045.254000", "184045.258000", "184045.261000", "184045.264000", "184125.158000", "184125.192000", "184125.195000", "184125.198000", "184125.202000", "184125.205000", "184125.208000", "184125.212000", "184125.215000", "184125.218000", "184125.222000", "184125.225000", "184125.228000", "184125.232000", "184125.235000", "184125.238000", "184125.241000", "184125.245000", "184125.248000", "184125.251000", "184125.254000", "184125.258000", "184125.261000", "184125.264000", "184125.267000", "184125.271000", "184125.274000", "184205.158000", "184205.162000", "184205.165000", "184205.169000", "184205.172000", "184205.175000", "184205.179000", "184205.182000", "184205.185000", "184205.188000", "184205.192000", "184205.195000", "184205.198000", "184205.202000", "184205.205000", "184205.208000", "184205.212000", "184205.215000", "184205.218000", "184205.221000", "184205.225000", "184205.228000", "184205.231000", "184205.235000", "184205.238000", "184205.241000", "184205.244000", "184245.159000", "184245.163000", "184245.166000", "184245.170000", "184245.173000", "184245.176000", "184245.179000", "184245.183000", "184245.186000", "184245.189000", "184245.192000", "184245.196000", "184245.199000", "184245.202000", "184245.205000", "184245.209000", "184245.212000", "184245.215000", "184245.219000", "184245.222000", "184245.225000", "184245.228000", "184245.232000", "184245.235000", "184245.238000", "184245.241000", "184245.245000", "184325.158000", "184325.162000", "184325.165000", "184325.168000", "184325.172000", "184325.175000", "184325.178000", "184325.182000", "184325.185000", "184325.188000", "184325.191000", "184325.195000", "184325.198000", "184325.201000", "184325.205000", "184325.208000", "184325.211000", "184325.215000", "184325.218000", "184325.221000", "184325.224000", "184325.227000", "184325.231000", "184325.234000", "184325.237000", "184325.240000", "184325.244000", "184405.158000", "184405.162000", "184405.165000", "184405.169000", "184405.172000", "184405.175000", "184405.178000", "184405.182000", "184405.185000", "184405.189000", "184405.192000", "184405.195000", "184405.199000", "184405.202000", "184405.206000", "184405.209000", "184405.212000", "184405.216000", "184405.220000", "184405.223000", "184405.227000", "184405.230000", "184405.233000", "184405.236000", "184405.240000", "184405.243000", "184445.158000", "184445.162000", "184445.165000", "184445.169000", "184445.172000", "184445.175000", "184445.178000", "184445.182000", "184445.185000", "184445.188000", "184445.192000", "184445.195000", "184445.198000", "184445.201000", "184445.205000", "184445.208000", "184445.211000", "184445.226000", "184445.230000", "184445.233000", "184445.236000", "184445.240000", "184445.243000", "184445.246000", "184445.249000", "184445.253000", "184445.256000", "184525.159000", "184525.163000", "184525.166000", "184525.170000", "184525.173000", "184525.176000", "184525.179000", "184525.183000", "184525.186000", "184525.189000", "184525.193000", "184525.196000", "184525.199000", "184525.202000", "184525.206000", "184525.209000", "184525.212000", "184525.216000", "184525.219000", "184525.222000", "184525.226000", "184525.229000", "184525.232000", "184525.235000", "184525.239000", "184525.242000", "184525.245000", "184605.158000", "184605.162000", "184605.165000", "184605.169000", "184605.172000", "184605.175000", "184605.178000", "184605.182000", "184605.185000", "184605.188000", "184605.192000", "184605.195000", "184605.198000", "184605.201000", "184605.205000", "184605.208000", "184605.211000", "184605.215000", "184605.218000", "184605.221000", "184605.224000", "184605.228000", "184605.231000", "184605.234000", "184605.238000", "184605.241000", "184605.244000", "184645.158000", "184645.162000", "184645.165000", "184645.169000", "184645.172000", "184645.175000", "184645.178000", "184645.182000", "184645.185000", "184645.188000", "184645.192000", "184645.195000", "184645.198000", "184645.201000", "184645.205000", "184645.208000", "184645.211000", "184645.215000", "184645.218000", "184645.221000", "184645.224000", "184645.228000", "184645.231000", "184645.234000", "184645.237000", "184645.241000", "184645.244000", "184725.159000", "184725.163000", "184725.166000", "184725.169000", "184725.173000", "184725.176000", "184725.179000", "184725.182000", "184725.186000", "184725.189000", "184725.192000", "184725.196000", "184725.199000", "184725.202000", "184725.205000", "184725.209000", "184725.212000", "184725.215000", "184725.219000", "184725.222000", "184725.225000", "184725.229000", "184725.232000", "184725.235000", "184725.238000", "184725.242000", "184725.245000", "184805.158000", "184805.171000", "184805.175000", "184805.178000", "184805.181000", "184805.185000", "184805.188000", "184805.191000", "184805.194000", "184805.198000", "184805.201000", "184805.204000", "184805.208000", "184805.211000", "184805.214000", "184805.217000", "184805.221000", "184805.224000", "184805.227000", "184805.231000", "184805.234000", "184805.237000", "184805.240000", "184805.244000", "184805.247000", "184805.250000", "184805.253000", "184845.158000", "184845.162000", "184845.165000", "184845.169000", "184845.172000", "184845.175000", "184845.178000", "184845.182000", "184845.185000", "184845.188000", "184845.193000", "184845.196000", "184845.199000", "184845.203000", "184845.206000", "184845.209000", "184845.213000", "184845.216000", "184845.219000", "184845.222000", "184845.226000", "184845.229000", "184845.232000", "184845.236000", "184845.239000", "184845.242000", "184917.321000", "184917.335000", "184917.338000", "184917.342000", "184917.345000", "184917.348000", "184917.351000", "184917.355000", "184917.358000", "184917.361000", "184917.364000", "184917.368000", "184917.371000", "184917.374000", "184917.377000", "184917.381000", "184917.384000", "184917.387000", "184917.390000", "184917.394000", "184917.397000", "184917.400000"],
