{
  "AcquisitionMatrixPE": 104,
  "AcquisitionNumber": 1,
  "AcquisitionTime": "18:22:24.167500",
  "BandwidthPerPixelPhaseEncode": 17.17,
  "BaseResolution": 104,
  "BodyPartExamined": "BRAIN",
  "CoilCombinationMethod": "Sum of Squares",
  "ConsistencyInfo": "N4_VE11C_LATEST_20160120",
  "ConversionSoftware": "dcm2niix",
  "ConversionSoftwareVersion": "v1.0.20211006",
  "DerivedVendorReportedEchoSpacing": 0.000560011,
  "DeviceSerialNumber": "167006",
  "DwellTime": 2.1e-06,
  "EchoTime": 0.037,
  "EchoTrainLength": 104,
  "EffectiveEchoSpacing": 0.000560011,
  "FlipAngle": 52,
  "HeudiconvVersion": "0.10.0",
  "ImageComments": "Unaliased MB4/PE3/LB",
  "ImageOrientationPatientDICOM": [0.997328, 0.0462434, 0.0565493, -0.0297743, 0.96423, -0.263389],
  "ImageOrientationText": "Tra>Cor(-15.2)>Sag(3.8)",
  "ImageType": [
    "ORIGINAL",
    "PRIMARY",
    "M",
    "MB",
    "ND",
    "MOSAIC"
],
  "ImagingFrequency": 123.259,
  "InPlanePhaseEncodingDirectionDICOM": "COL",
  "InstitutionAddress": "Chemin Queen-Mary 4565,Montreal,District,CA,H3W 1W5",
  "InstitutionName": "IUGM",
  "InstitutionalDepartmentName": "Department",
  "MRAcquisitionType": "2D",
  "MagneticFieldStrength": 3,
  "Manufacturer": "Siemens",
  "ManufacturersModelName": "Prisma_fit",
  "MatrixCoilMode": "SENSE",
  "Modality": "MR",
  "MultibandAccelerationFactor": 4,
  "PartialFourier": 1,
  "PatientPosition": "HFS",
  "PercentPhaseFOV": 100,
  "PercentSampling": 100,
  "PhaseEncodingDirection": "j",
  "PhaseEncodingSteps": 104,
  "PhaseResolution": 1,
  "PixelBandwidth": 2290,
  "ProcedureStepDescription": "games^mario",
  "ProtocolName": "func_task-mario_run-02",
  "PulseSequenceDetails": "%CustomerSeq%\\cmrr_mbep2d_bold",
  "ReceiveCoilActiveElements": "HC1-7;NC1,2",
  "ReceiveCoilName": "HeadNeck_64",
  "ReconMatrixPE": 104,
  "RepetitionTime": 1.49,
  "SAR": 0.0479789,
  "ScanOptions": "FS",
  "ScanningSequence": "EP",
  "SequenceName": "epfid2d1_104",
  "SequenceVariant": "SK\\SS",
  "SeriesDescription": "func_task-mario_run-02",
  "SeriesNumber": 13,
  "ShimSetting": [650, -7213, -8775, 706, 63, -11, 33, 14],
  "SliceThickness": 2,
  "SliceTiming": [0, 0.7825, 0.0975, 0.8825, 0.195, 0.98, 0.2925, 1.0775, 0.3925, 1.175, 0.49, 1.2725, 0.5875, 1.3725, 0.685, 0, 0.7825, 0.0975, 0.8825, 0.195, 0.98, 0.2925, 1.0775, 0.3925, 1.175, 0.49, 1.2725, 0.5875, 1.3725, 0.685, 0, 0.7825, 0.0975, 0.8825, 0.195, 0.98, 0.2925, 1.0775, 0.3925, 1.175, 0.49, 1.2725, 0.5875, 1.3725, 0.685, 0, 0.7825, 0.0975, 0.8825, 0.195, 0.98, 0.2925, 1.0775, 0.3925, 1.175, 0.49, 1.2725, 0.5875, 1.3725, 0.685],
  "SoftwareVersions": "syngo MR E11",
  "SpacingBetweenSlices": 2,
  "StationName": "MRC35049",
  "TaskName": "mario",
  "TotalReadoutTime": 0.0576811,
  "TxRefAmp": 238.264,
  "WipMemBlock": "12870342-dc67-4866-8208-1d2e3d3c274b||Sequence: R016 ve11c/master r/e634e98; Dec 19 2017 11:00:25 by eja",
  "dcmmeta_affine": [
    [-1.9946565628051758, -0.05954859033226967, 0.13341310620307922, 108.35362243652344],
    [-0.09248672425746918, 1.9284600019454956, -0.5220039486885071, -69.0191421508789],
    [0.1130986288189888, 0.5267787575721741, 1.9260613918304443, -64.34784698486328],
    [0.0, 0.0, 0.0, 1.0]
],
  "dcmmeta_reorient_transform": [
    [0.0, -1.0, 0.0, 103.0],
    [1.0, 0.0, 0.0, 0.0],
    [0.0, 0.0, 1.0, 0.0],
    [0.0, 0.0, 0.0, 1.0]
],
  "dcmmeta_shape": [104, 104, 60, 453],
  "dcmmeta_slice_dim": 2,
  "dcmmeta_version": 0.6,
  "global": {
    "const": {
      "AcquisitionMatrix": [104, 0, 0, 104],
      "AngioFlag": "N",
      "BitsAllocated": 16,
      "BitsStored": 16,
      "BodyPartExamined": "BRAIN",
      "Columns": 832,
      "EchoNumbers": 1,
      "EchoTime": 37.0,
      "EchoTrainLength": 104,
      "FlipAngle": 52.0,
      "HighBit": 15,
      "ImageOrientationPatient": [0.99732829425406, 0.04624336156933, 0.05654931468239, -0.029774295693, 0.96423001373112, -0.2633893922239],
      "ImagePositionPatient": [-806.59942615241, -865.23685850388, 140.48994277504],
      "ImageType": [
        "ORIGINAL",
        "PRIMARY",
        "M",
        "MB",
        "ND",
        "MOSAIC"
],
      "ImagedNucleus": "1H",
      "ImagingFrequency": 123.258855,
      "InPlanePhaseEncodingDirection": "COL",
      "MRAcquisitionType": "2D",
      "MagneticFieldStrength": 3.0,
      "Manufacturer": "SIEMENS",
      "ManufacturerModelName": "Prisma_fit",
      "Modality": "MR",
      "NumberOfAverages": 1.0,
      "NumberOfPhaseEncodingSteps": 104,
      "PercentPhaseFieldOfView": 100.0,
      "PercentSampling": 100.0,
      "PerformedProcedureStepStartTime": "173606.280000",
      "PhotometricInterpretation": "MONOCHROME2",
      "PixelBandwidth": 2290.0,
      "PixelRepresentation": 0,
      "PixelSpacing": [2.0, 2.0],
      "ProtocolName": "func_task-mario_run-02",
      "RepetitionTime": 1490.0,
      "Rows": 832,
      "SAR": 0.04797892445166,
      "SamplesPerPixel": 1,
      "ScanOptions": "FS",
      "ScanningSequence": "EP",
      "SequenceName": "epfid2d1_104",
      "SequenceVariant": [
        "SK",
        "SS"
],
      "SeriesDescription": "func_task-mario_run-02",
      "SeriesNumber": 13,
      "SeriesTime": "182354.537000",
      "SliceLocation": -36.726926641039,
      "SliceThickness": 2.0,
      "SmallestImagePixelValue": 0,
      "SoftwareVersions": "syngo MR E11",
      "SpacingBetweenSlices": 1.9999999313608,
      "SpecificCharacterSet": "ISO_IR 100",
      "StudyID": "1",
      "StudyTime": "173606.227000",
      "TransmitCoilName": "Body",
      "VariableFlipAngleFlag": "N",
      "WindowCenterWidthExplanation": "Algo1",
      "dBdt": 0.0},
    "slices": {}
  },
  "time": {
    "samples": {
      "AcquisitionNumber": [1, 2, 3, 4, 5, 6, 7, 8, 9, 10, 11, 12, 13, 14, 15, 16, 17, 18, 19, 20, 21, 22, 23, 24, 25, 26, 27, 28, 29, 30, 31, 32, 33, 34, 35, 36, 37, 38, 39, 40, 41, 42, 43, 44, 45, 46, 47, 48, 49, 50, 51, 52, 53, 54, 55, 56, 57, 58, 59, 60, 61, 62, 63, 64, 65, 66, 67, 68, 69, 70, 71, 72, 73, 74, 75, 76, 77, 78, 79, 80, 81, 82, 83, 84, 85, 86, 87, 88, 89, 90, 91, 92, 93, 94, 95, 96, 97, 98, 99, 100, 101, 102, 103, 104, 105, 106, 107, 108, 109, 110, 111, 112, 113, 114, 115, 116, 117, 118, 119, 120, 121, 122, 123, 124, 125, 126, 127, 128, 129, 130, 131, 132, 133, 134, 135, 136, 137, 138, 139, 140, 141, 142, 143, 144, 145, 146, 147, 148, 149, 150, 151, 152, 153, 154, 155, 156, 157, 158, 159, 160, 161, 162, 163, 164, 165, 166, 167, 168, 169, 170, 171, 172, 173, 174, 175, 176, 177, 178, 179, 180, 181, 182, 183, 184, 185, 186, 187, 188, 189, 190, 191, 192, 193, 194, 195, 196, 197, 198, 199, 200, 201, 202, 203, 204, 205, 206, 207, 208, 209, 210, 211, 212, 213, 214, 215, 216, 217, 218, 219, 220, 221, 222, 223, 224, 225, 226, 227, 228, 229, 230, 231, 232, 233, 234, 235, 236, 237, 238, 239, 240, 241, 242, 243, 244, 245, 246, 247, 248, 249, 250, 251, 252, 253, 254, 255, 256, 257, 258, 259, 260, 261, 262, 263, 264, 265, 266, 267, 268, 269, 270, 271, 272, 273, 274, 275, 276, 277, 278, 279, 280, 281, 282, 283, 284, 285, 286, 287, 288, 289, 290, 291, 292, 293, 294, 295, 296, 297, 298, 299, 300, 301, 302, 303, 304, 305, 306, 307, 308, 309, 310, 311, 312, 313, 314, 315, 316, 317, 318, 319, 320, 321, 322, 323, 324, 325, 326, 327, 328, 329, 330, 331, 332, 333, 334, 335, 336, 337, 338, 339, 340, 341, 342, 343, 344, 345, 346, 347, 348, 349, 350, 351, 352, 353, 354, 355, 356, 357, 358, 359, 360, 361, 362, 363, 364, 365, 366, 367, 368, 369, 370, 371, 372, 373, 374, 375, 376, 377, 378, 379, 380, 381, 382, 383, 384, 385, 386, 387, 388, 389, 390, 391, 392, 393, 394, 395, 396, 397, 398, 399, 400, 401, 402, 403, 404, 405, 406, 407, 408, 409, 410, 411, 412, 413, 414, 415, 416, 417, 418, 419, 420, 421, 422, 423, 424, 425, 426, 427, 428, 429, 430, 431, 432, 433, 434, 435, 436, 437, 438, 439, 440, 441, 442, 443, 444, 445, 446, 447, 448, 449, 450, 451, 452, 453],
      "AcquisitionTime": ["182224.167500", "182225.657500", "182227.147500", "182228.637500", "182230.127500", "182231.617500", "182233.107500", "182234.597500", "182236.087500", "182237.577500", "182239.067500", "182240.557500", "182242.047500", "182243.537500", "182245.027500", "182246.517500", "182248.007500", "182249.497500", "182250.987500", "182252.477500", "182253.967500", "182255.457500", "182256.947500", "182258.437500", "182259.927500", "182301.417500", "182302.907500", "182304.397500", "182305.887500", "182307.377500", "182308.867500", "182310.357500", "182311.847500", "182313.337500", "182314.827500", "182316.317500", "182317.807500", "182319.297500", "182320.787500", "182322.277500", "182323.767500", "182325.257500", "182326.747500", "182328.237500", "182329.727500", "182331.217500", "182332.707500", "182334.197500", "182335.687500", "182337.177500", "182338.667500", "182340.157500", "182341.647500", "182343.137500", "182344.627500", "182346.117500", "182347.607500", "182349.097500", "182350.587500", "182352.077500", "182353.567500", "182355.057500", "182356.547500", "182358.037500", "182359.527500", "182401.017500", "182402.507500", "182403.997500", "182405.487500", "182406.977500", "182408.467500", "182409.957500", "182411.447500", "182412.937500", "182414.427500", "182415.917500", "182417.407500", "182418.897500", "182420.387500", "182421.877500", "182423.367500", "182424.857500", "182426.347500", "182427.837500", "182429.327500", "182430.817500", "182432.307500", "182433.797500", "182435.287500", "182436.777500", "182438.267500", "182439.757500", "182441.247500", "182442.737500", "182444.227500", "182445.717500", "182447.207500", "182448.697500", "182450.187500", "182451.677500", "182453.167500", "182454.657500", "182456.147500", "182457.637500", "182459.127500", "182500.617500", "182502.107500", "182503.597500", "182505.087500", "182506.577500", "182508.067500", "182509.557500", "182511.047500", "182512.537500", "182514.027500", "182515.517500", "182517.007500", "182518.497500", "182519.987500", "182521.477500", "182522.967500", "182524.457500", "182525.947500", "182527.437500", "182528.927500", "182530.417500", "182531.907500", "182533.397500", "182534.887500", "182536.377500", "182537.867500", "182539.357500", "182540.847500", "182542.337500", "182543.827500", "182545.317500", "182546.807500", "182548.297500", "182549.787500", "182551.277500", "182552.767500", "182554.257500", "182555.747500", "182557.237500", "182558.727500", "182600.217500", "182601.707500", "182603.197500", "182604.687500", "182606.177500", "182607.667500", "182609.157500", "182610.647500", "182612.137500", "182613.627500", "182615.117500", "182616.607500", "182618.097500", "182619.587500", "182621.077500", "182622.567500", "182624.057500", "182625.547500", "182627.037500", "182628.527500", "182630.017500", "182631.507500", "182632.997500", "182634.487500", "182635.977500", "182637.467500", "182638.957500", "182640.447500", "182641.937500", "182643.427500", "182644.917500", "182646.407500", "182647.897500", "182649.387500", "182650.877500", "182652.367500", "182653.857500", "182655.347500", "182656.837500", "182658.327500", "182659.817500", "182701.307500", "182702.797500", "182704.287500", "182705.777500", "182707.267500", "182708.757500", "182710.247500", "182711.737500", "182713.227500", "182714.717500", "182716.207500", "182717.697500", "182719.187500", "182720.677500", "182722.167500", "182723.657500", "182725.147500", "182726.637500", "182728.127500", "182729.617500", "182731.107500", "182732.597500", "182734.087500", "182735.577500", "182737.067500", "182738.557500", "182740.047500", "182741.537500", "182743.027500", "182744.517500", "182746.007500", "182747.497500", "182748.987500", "182750.477500", "182751.967500", "182753.457500", "182754.947500", "182756.437500", "182757.927500", "182759.417500", "182800.907500", "182802.397500", "182803.887500", "182805.377500", "182806.867500", "182808.357500", "182809.847500", "182811.337500", "182812.827500", "182814.317500", "182815.807500", "182817.297500", "182818.787500", "182820.277500", "182821.767500", "182823.257500", "182824.747500", "182826.237500", "182827.727500", "182829.217500", "182830.707500", "182832.197500", "182833.687500", "182835.177500", "182836.667500", "182838.157500", "182839.647500", "182841.137500", "182842.627500", "182844.117500", "182845.607500", "182847.097500", "182848.587500", "182850.077500", "182851.567500", "182853.057500", "182854.547500", "182856.037500", "182857.527500", "182859.017500", "182900.507500", "182901.997500", "182903.487500", "182904.977500", "182906.467500", "182907.957500", "182909.447500", "182910.937500", "182912.427500", "182913.917500", "182915.407500", "182916.897500", "182918.387500", "182919.877500", "182921.367500", "182922.857500", "182924.347500", "182925.837500", "182927.327500", "182928.817500", "182930.307500", "182931.797500", "182933.287500", "182934.777500", "182936.267500", "182937.757500", "182939.247500", "182940.737500", "182942.227500", "182943.717500", "182945.207500", "182946.697500", "182948.187500", "182949.677500", "182951.167500", "182952.657500", "182954.147500", "182955.637500", "182957.127500", "182958.617500", "183000.107500", "183001.597500", "183003.087500", "183004.577500", "183006.067500", "183007.557500", "183009.047500", "183010.537500", "183012.027500", "183013.517500", "183015.007500", "183016.497500", "183017.987500", "183019.477500", "183020.967500", "183022.457500", "183023.947500", "183025.437500", "183026.927500", "183028.417500", "183029.907500", "183031.397500", "183032.887500", "183034.377500", "183035.867500", "183037.357500", "183038.847500", "183040.337500", "183041.827500", "183043.317500", "183044.807500", "183046.297500", "183047.787500", "183049.277500", "183050.767500", "183052.257500", "183053.747500", "183055.237500", "183056.727500", "183058.217500", "183059.707500", "183101.197500", "183102.687500", "183104.177500", "183105.667500", "183107.157500", "183108.647500", "183110.137500", "183111.627500", "183113.117500", "183114.607500", "183116.097500", "183117.587500", "183119.077500", "183120.567500", "183122.057500", "183123.547500", "183125.037500", "183126.527500", "183128.017500", "183129.507500", "183130.997500", "183132.487500", "183133.977500", "183135.467500", "183136.957500", "183138.447500", "183139.937500", "183141.427500", "183142.917500", "183144.407500", "183145.897500", "183147.387500", "183148.877500", "183150.367500", "183151.857500", "183153.347500", "183154.837500", "183156.327500", "183157.817500", "183159.307500", "183200.797500", "183202.287500", "183203.777500", "183205.267500", "183206.757500", "183208.247500", "183209.737500", "183211.227500", "183212.717500", "183214.207500", "183215.697500", "183217.187500", "183218.677500", "183220.167500", "183221.657500", "183223.147500", "183224.637500", "183226.127500", "183227.617500", "183229.107500", "183230.597500", "183232.087500", "183233.577500", "183235.067500", "183236.557500", "183238.047500", "183239.537500", "183241.027500", "183242.517500", "183244.007500", "183245.497500", "183246.987500", "183248.477500", "183249.967500", "183251.457500", "183252.947500", "183254.437500", "183255.927500", "183257.417500", "183258.907500", "183300.397500", "183301.887500", "183303.377500", "183304.867500", "183306.357500", "183307.847500", "183309.337500", "183310.827500", "183312.317500", "183313.807500", "183315.297500", "183316.787500", "183318.277500", "183319.767500", "183321.257500", "183322.747500", "183324.237500", "183325.727500", "183327.217500", "183328.707500", "183330.197500", "183331.687500", "183333.177500", "183334.667500", "183336.157500", "183337.647500"],
      "ContentTime": ["182354.540000", "182354.544000", "182354.547000", "182354.550000", "182354.553000", "182354.557000", "182354.560000", "182354.563000", "182354.567000", "182354.570000", "182354.573000", "182354.577000", "182354.580000", "182354.583000", "182354.586000", "182354.590000", "182354.593000", "182354.596000", "182354.599000", "182354.603000", "182354.606000", "182354.609000", "182354.619000", "182354.623000", "182354.626000", "182354.629000", "182354.632000", "182354.636000", "182354.639000", "182354.642000", "182354.645000", "182354.649000", "182354.652000", "182354.655000", "182354.658000", "182414.502000", "182414.506000", "182414.509000", "182414.512000", "182414.516000", "182414.519000", "182414.522000", "182414.525000", "182414.529000", "182414.532000", "182414.535000", "182414.538000", "182414.541000", "182414.545000", "182414.548000", "182414.551000", "182414.554000", "182414.558000", "182414.561000", "182414.564000", "182434.502000", "182434.506000", "182434.509000", "182434.512000", "182434.522000", "182434.526000", "182434.529000", "182434.532000", "182434.535000", "182434.539000", "182434.542000", "182434.545000", "182434.549000", "182434.552000", "182434.555000", "182434.558000", "182434.562000", "182434.565000", "182434.568000", "182434.571000", "182434.575000", "182454.502000", "182454.506000", "182454.509000", "182454.512000", "182454.516000", "182454.519000", "182454.522000", "182454.525000", "182454.529000", "182454.532000", "182454.535000", "182454.538000", "182454.542000", "182454.545000", "182454.549000", "182454.552000", "182454.555000", "182454.559000", "182454.562000", "182454.565000", "182534.502000", "182534.506000", "182534.509000", "182534.512000", "182534.516000", "182534.519000", "182534.522000", "182534.525000", "182534.529000", "182534.532000", "182534.535000", "182534.539000", "182534.542000", "182534.545000", "182534.548000", "182534.552000", "182534.555000", "182534.558000", "182534.562000", "182534.565000", "182534.568000", "182534.571000", "182534.575000", "182534.578000", "182534.581000", "182534.584000", "182534.588000", "182534.591000", "182534.594000", "182534.597000", "182534.600000", "182614.502000", "182614.506000", "182614.509000", "182614.512000", "182614.516000", "182614.519000", "182614.522000", "182614.526000", "182614.529000", "182614.532000", "182614.535000", "182614.539000", "182614.542000", "182614.545000", "182614.548000", "182614.552000", "182614.555000", "182614.558000", "182614.561000", "182614.565000", "182614.568000", "182614.571000", "182614.574000", "182614.578000", "182614.581000", "182614.584000", "182614.588000", "182654.502000", "182654.506000", "182654.509000", "182654.513000", "182654.516000", "182654.532000", "182654.536000", "182654.539000", "182654.542000", "182654.545000", "182654.549000", "182654.552000", "182654.555000", "182654.558000", "182654.562000", "182654.565000", "182654.568000", "182654.572000", "182654.575000", "182654.578000", "182654.581000", "182654.585000", "182654.588000", "182654.591000", "182654.594000", "182654.598000", "182654.601000", "182734.502000", "182734.506000", "182734.509000", "182734.513000", "182734.516000", "182734.519000", "182734.522000", "182734.526000", "182734.529000", "182734.532000", "182734.536000", "182734.539000", "182734.542000", "182734.546000", "182734.557000", "182734.561000", "182734.565000", "182734.568000", "182734.571000", "182734.574000", "182734.578000", "182734.581000", "182734.584000", "182734.588000", "182734.591000", "182734.594000", "182814.502000", "182814.506000", "182814.509000", "182814.512000", "182814.516000", "182814.519000", "182814.522000", "182814.525000", "182814.529000", "182814.532000", "182814.535000", "182814.539000", "182814.542000", "182814.545000", "182814.548000", "182814.552000", "182814.555000", "182814.558000", "182814.562000", "182814.565000", "182814.568000", "182814.571000", "182814.575000", "182814.578000", "182814.581000", "182814.585000", "182814.588000", "182854.502000", "182854.506000", "182854.509000", "182854.512000", "182854.516000", "182854.519000", "182854.522000", "182854.525000", "182854.529000", "182854.532000", "182854.535000", "182854.538000", "182854.542000", "182854.545000", "182854.548000", "182854.552000", "182854.555000", "182854.558000", "182854.561000", "182854.565000", "182854.568000", "182854.571000", "182854.575000", "182854.578000", "182854.581000", "182854.584000", "182854.588000", "182934.502000", "182934.506000", "182934.509000", "182934.512000", "182934.516000", "182934.519000", "182934.522000", "182934.526000", "182934.529000", "182934.532000", "182934.535000", "182934.539000", "182934.542000", "182934.545000", "182934.549000", "182934.552000", "182934.555000", "182934.559000", "182934.562000", "182934.565000", "182934.568000", "182934.572000", "182934.575000", "182934.578000", "182934.581000", "182934.585000", "182934.588000", "183014.502000", "183014.506000", "183014.509000", "183014.512000", "183014.516000", "183014.519000", "183014.522000", "183014.525000", "183014.529000", "183014.532000", "183014.535000", "183014.539000", "183014.542000", "183014.545000", "183014.549000", "183014.552000", "183014.555000", "183014.558000", "183014.562000", "183014.565000", "183014.568000", "183014.572000", "183014.575000", "183014.578000", "183014.582000", "183014.585000", "183014.588000", "183054.502000", "183054.506000", "183054.509000", "183054.512000", "183054.516000", "183054.519000", "183054.522000", "183054.526000", "183054.529000", "183054.532000", "183054.535000", "183054.539000", "183054.542000", "183054.545000", "183054.549000", "183054.552000", "183054.555000", "183054.558000", "183054.562000", "183054.565000", "183054.569000", "183054.572000", "183054.575000", "183054.578000", "183054.582000", "183054.585000", "183054.588000", "183134.502000", "183134.506000", "183134.509000", "183134.513000", "183134.516000", "183134.519000", "183134.522000", "183134.526000", "183134.529000", "183134.532000", "183134.536000", "183134.539000", "183134.553000", "183134.556000", "183134.560000", "183134.563000", "183134.566000", "183134.570000", "183134.573000", "183134.576000", "183134.580000", "183134.583000", "183134.586000", "183134.589000", "183134.593000", "183134.596000", "183134.599000", "183214.503000", "183214.507000", "183214.510000", "183214.513000", "183214.517000", "183214.520000", "183214.523000", "183214.527000", "183214.531000", "183214.535000", "183214.539000", "183214.542000", "183214.545000", "183214.549000", "183214.552000", "183214.555000", "183214.558000", "183214.562000", "183214.565000", "183214.568000", "183214.572000", "183214.575000", "183214.578000", "183214.582000", "183214.585000", "183214.588000", "183254.502000", "183254.506000", "183254.509000", "183254.512000", "183254.516000", "183254.519000", "183254.522000", "183254.526000", "183254.529000", "183254.532000", "183254.536000", "183254.539000", "183254.542000", "183254.545000", "183254.549000", "183254.552000", "183254.555000", "183254.558000", "183254.562000", "183254.565000", "183254.568000", "183254.572000", "183254.575000", "183254.578000", "183254.582000", "183254.585000", "183254.588000", "183334.502000", "183334.506000", "183334.509000", "183334.513000", "183334.516000", "183334.519000", "183334.523000", "183334.526000", "183334.529000", "183334.532000", "183334.536000", "183334.539000", "183334.542000", "183334.546000", "183334.549000", "183334.553000", "183334.556000", "183334.559000", "183334.563000", "183334.566000", "183334.584000", "183334.588000", "183334.591000", "183334.594000", "183334.597000", "183334.601000", "183334.604000", "183340.009000", "183340.013000", "183340.016000", "183340.019000"],
