{
  "AcquisitionMatrixPE": 104,
  "AcquisitionNumber": 1,
  "AcquisitionTime": "18:09:46.432500",
  "BandwidthPerPixelPhaseEncode": 17.17,
  "BaseResolution": 104,
  "BodyPartExamined": "BRAIN",
  "CoilCombinationMethod": "Sum of Squares",
  "ConsistencyInfo": "N4_VE11C_LATEST_20160120",
  "ConversionSoftware": "dcm2niix",
  "ConversionSoftwareVersion": "v1.0.20211006",
  "DerivedVendorReportedEchoSpacing": 0.000560011,
  "DeviceSerialNumber": "167006",
  "DwellTime": 2.1e-06,
  "EchoTime": 0.037,
  "EchoTime1": 0.037,
  "EchoTime2": 0.001,
  "EchoTrainLength": 104,
  "EffectiveEchoSpacing": 0.000560011,
  "FlipAngle": 52,
  "HeudiconvVersion": "0.10.0",
  "ImageComments": "Unaliased MB4/PE3/LB",
  "ImageOrientationPatientDICOM": [0.997328, 0.0462434, 0.0565493, -0.0297743, 0.96423, -0.263389],
  "ImageOrientationText": "Tra>Cor(-15.2)>Sag(3.8)",
  "ImageType": [
    "ORIGINAL",
    "PRIMARY",
    "P",
    "MB",
    "ND",
    "MOSAIC",
    "PHASE"
],
  "ImagingFrequency": 123.259,
  "InPlanePhaseEncodingDirectionDICOM": "COL",
  "InstitutionAddress": "Chemin Queen-Mary 4565,Montreal,District,CA,H3W 1W5",
  "InstitutionName": "IUGM",
  "InstitutionalDepartmentName": "Department",
  "MRAcquisitionType": "2D",
  "MagneticFieldStrength": 3,
  "Manufacturer": "Siemens",
  "ManufacturersModelName": "Prisma_fit",
  "MatrixCoilMode": "SENSE",
  "Modality": "MR",
  "MultibandAccelerationFactor": 4,
  "PartialFourier": 1,
  "PatientPosition": "HFS",
  "PercentPhaseFOV": 100,
  "PercentSampling": 100,
  "PhaseEncodingDirection": "j",
  "PhaseEncodingSteps": 104,
  "PhaseResolution": 1,
  "PixelBandwidth": 2290,
  "ProcedureStepDescription": "games^mario",
  "ProtocolName": "func_task-mario_run-01",
  "PulseSequenceDetails": "%CustomerSeq%\\cmrr_mbep2d_bold",
  "ReceiveCoilActiveElements": "HC1-7;NC1,2",
  "ReceiveCoilName": "HeadNeck_64",
  "ReconMatrixPE": 104,
  "RepetitionTime": 1.49,
  "SAR": 0.0479789,
  "ScanOptions": "FS",
  "ScanningSequence": "EP",
  "SequenceName": "epfid2d1_104",
  "SequenceVariant": "SK\\SS",
  "SeriesDescription": "func_task-mario_run-01",
  "SeriesNumber": 11,
  "ShimSetting": [650, -7213, -8775, 706, 63, -11, 33, 14],
  "SliceThickness": 2,
  "SliceTiming": [0, 0.785, 0.0975, 0.8825, 0.1975, 0.98, 0.295, 1.0775, 0.3925, 1.175, 0.49, 1.275, 0.5875, 1.3725, 0.6875, 0, 0.785, 0.0975, 0.8825, 0.1975, 0.98, 0.295, 1.0775, 0.3925, 1.175, 0.49, 1.275, 0.5875, 1.3725, 0.6875, 0, 0.785, 0.0975, 0.8825, 0.1975, 0.98, 0.295, 1.0775, 0.3925, 1.175, 0.49, 1.275, 0.5875, 1.3725, 0.6875, 0, 0.785, 0.0975, 0.8825, 0.1975, 0.98, 0.295, 1.0775, 0.3925, 1.175, 0.49, 1.275, 0.5875, 1.3725, 0.6875],
  "SoftwareVersions": "syngo MR E11",
  "SpacingBetweenSlices": 2,
  "StationName": "MRC35049",
  "TaskName": "mario",
  "TotalReadoutTime": 0.0576811,
  "TxRefAmp": 238.264,
  "WipMemBlock": "75d42a1f-14e1-4f4f-9cd9-ac403518775b||Sequence: R016 ve11c/master r/e634e98; Dec 19 2017 11:00:25 by eja",
  "dcmmeta_affine": [
    [-1.9946565628051758, -0.05954859033226967, 0.13341310620307922, 108.35362243652344],
    [-0.09248672425746918, 1.9284600019454956, -0.5220039486885071, -69.0191421508789],
    [0.1130986288189888, 0.5267787575721741, 1.9260613918304443, -64.34784698486328],
    [0.0, 0.0, 0.0, 1.0]
],
  "dcmmeta_reorient_transform": [
    [0.0, -1.0, 0.0, 103.0],
    [1.0, 0.0, 0.0, 0.0],
    [0.0, 0.0, 1.0, 0.0],
    [0.0, 0.0, 0.0, 1.0]
],
  "dcmmeta_shape": [104, 104, 60, 453],
  "dcmmeta_slice_dim": 2,
  "dcmmeta_version": 0.6,
  "global": {
    "const": {
      "AcquisitionMatrix": [104, 0, 0, 104],
      "AngioFlag": "N",
      "BitsAllocated": 16,
      "BitsStored": 16,
      "BodyPartExamined": "BRAIN",
      "Columns": 832,
      "EchoNumbers": 1,
      "EchoTime": 37.0,
      "EchoTrainLength": 104,
      "FlipAngle": 52.0,
      "HighBit": 15,
      "ImageOrientationPatient": [0.99732829425406, 0.04624336156933, 0.05654931468239, -0.029774295693, 0.96423001373112, -0.2633893922239],
      "ImagePositionPatient": [-806.59942615241, -865.23685850388, 140.48994277504],
      "ImageType": [
        "ORIGINAL",
        "PRIMARY",
        "P",
        "MB",
        "ND",
        "MOSAIC"
],
      "ImagedNucleus": "1H",
      "ImagingFrequency": 123.258844,
      "InPlanePhaseEncodingDirection": "COL",
      "LargestImagePixelValue": 4095,
      "MRAcquisitionType": "2D",
      "MagneticFieldStrength": 3.0,
      "Manufacturer": "SIEMENS",
      "ManufacturerModelName": "Prisma_fit",
      "Modality": "MR",
      "NumberOfAverages": 1.0,
      "NumberOfPhaseEncodingSteps": 104,
      "PercentPhaseFieldOfView": 100.0,
      "PercentSampling": 100.0,
      "PerformedProcedureStepStartTime": "173606.280000",
      "PhotometricInterpretation": "MONOCHROME2",
      "PixelBandwidth": 2290.0,
      "PixelRepresentation": 0,
      "PixelSpacing": [2.0, 2.0],
      "ProtocolName": "func_task-mario_run-01",
      "RepetitionTime": 1490.0,
      "RescaleIntercept": -4096.0,
      "RescaleSlope": 2.0,
      "RescaleType": "US",
      "Rows": 832,
      "SAR": 0.04797892445166,
      "SamplesPerPixel": 1,
      "ScanOptions": "FS",
      "ScanningSequence": "EP",
      "SequenceName": "epfid2d1_104",
      "SequenceVariant": [
        "SK",
        "SS"
],
      "SeriesDescription": "func_task-mario_run-01",
      "SeriesNumber": 11,
      "SeriesTime": "181118.303000",
      "SliceLocation": -36.726926641039,
      "SliceThickness": 2.0,
      "SmallestImagePixelValue": 0,
      "SoftwareVersions": "syngo MR E11",
      "SpacingBetweenSlices": 1.9999999313608,
      "SpecificCharacterSet": "ISO_IR 100",
      "StudyID": "1",
      "StudyTime": "173606.227000",
      "TransmitCoilName": "Body",
      "VariableFlipAngleFlag": "N",
      "WindowCenterWidthExplanation": "Algo1",
      "dBdt": 0.0},
    "slices": {}
  },
  "time": {
    "samples": {
      "AcquisitionNumber": [1, 2, 3, 4, 5, 6, 7, 8, 9, 10, 11, 12, 13, 14, 15, 16, 17, 18, 19, 20, 21, 22, 23, 24, 25, 26, 27, 28, 29, 30, 31, 32, 33, 34, 35, 36, 37, 38, 39, 40, 41, 42, 43, 44, 45, 46, 47, 48, 49, 50, 51, 52, 53, 54, 55, 56, 57, 58, 59, 60, 61, 62, 63, 64, 65, 66, 67, 68, 69, 70, 71, 72, 73, 74, 75, 76, 77, 78, 79, 80, 81, 82, 83, 84, 85, 86, 87, 88, 89, 90, 91, 92, 93, 94, 95, 96, 97, 98, 99, 100, 101, 102, 103, 104, 105, 106, 107, 108, 109, 110, 111, 112, 113, 114, 115, 116, 117, 118, 119, 120, 121, 122, 123, 124, 125, 126, 127, 128, 129, 130, 131, 132, 133, 134, 135, 136, 137, 138, 139, 140, 141, 142, 143, 144, 145, 146, 147, 148, 149, 150, 151, 152, 153, 154, 155, 156, 157, 158, 159, 160, 161, 162, 163, 164, 165, 166, 167, 168, 169, 170, 171, 172, 173, 174, 175, 176, 177, 178, 179, 180, 181, 182, 183, 184, 185, 186, 187, 188, 189, 190, 191, 192, 193, 194, 195, 196, 197, 198, 199, 200, 201, 202, 203, 204, 205, 206, 207, 208, 209, 210, 211, 212, 213, 214, 215, 216, 217, 218, 219, 220, 221, 222, 223, 224, 225, 226, 227, 228, 229, 230, 231, 232, 233, 234, 235, 236, 237, 238, 239, 240, 241, 242, 243, 244, 245, 246, 247, 248, 249, 250, 251, 252, 253, 254, 255, 256, 257, 258, 259, 260, 261, 262, 263, 264, 265, 266, 267, 268, 269, 270, 271, 272, 273, 274, 275, 276, 277, 278, 279, 280, 281, 282, 283, 284, 285, 286, 287, 288, 289, 290, 291, 292, 293, 294, 295, 296, 297, 298, 299, 300, 301, 302, 303, 304, 305, 306, 307, 308, 309, 310, 311, 312, 313, 314, 315, 316, 317, 318, 319, 320, 321, 322, 323, 324, 325, 326, 327, 328, 329, 330, 331, 332, 333, 334, 335, 336, 337, 338, 339, 340, 341, 342, 343, 344, 345, 346, 347, 348, 349, 350, 351, 352, 353, 354, 355, 356, 357, 358, 359, 360, 361, 362, 363, 364, 365, 366, 367, 368, 369, 370, 371, 372, 373, 374, 375, 376, 377, 378, 379, 380, 381, 382, 383, 384, 385, 386, 387, 388, 389, 390, 391, 392, 393, 394, 395, 396, 397, 398, 399, 400, 401, 402, 403, 404, 405, 406, 407, 408, 409, 410, 411, 412, 413, 414, 415, 416, 417, 418, 419, 420, 421, 422, 423, 424, 425, 426, 427, 428, 429, 430, 431, 432, 433, 434, 435, 436, 437, 438, 439, 440, 441, 442, 443, 444, 445, 446, 447, 448, 449, 450, 451, 452, 453],
      "AcquisitionTime": ["180946.432500", "180947.922500", "180949.412500", "180950.902500", "180952.392500", "180953.882500", "180955.372500", "180956.862500", "180958.352500", "180959.842500", "181001.332500", "181002.822500", "181004.312500", "181005.802500", "181007.292500", "181008.782500", "181010.272500", "181011.762500", "181013.252500", "181014.742500", "181016.232500", "181017.722500", "181019.212500", "181020.702500", "181022.192500", "181023.682500", "181025.172500", "181026.662500", "181028.152500", "181029.642500", "181031.132500", "181032.622500", "181034.112500", "181035.602500", "181037.092500", "181038.582500", "181040.072500", "181041.562500", "181043.052500", "181044.542500", "181046.032500", "181047.522500", "181049.012500", "181050.502500", "181051.992500", "181053.482500", "181054.972500", "181056.462500", "181057.952500", "181059.442500", "181100.932500", "181102.422500", "181103.912500", "181105.402500", "181106.892500", "181108.382500", "181109.872500", "181111.362500", "181112.852500", "181114.342500", "181115.832500", "181117.322500", "181118.812500", "181120.302500", "181121.792500", "181123.282500", "181124.772500", "181126.262500", "181127.752500", "181129.242500", "181130.732500", "181132.222500", "181133.712500", "181135.202500", "181136.692500", "181138.182500", "181139.672500", "181141.162500", "181142.652500", "181144.142500", "181145.632500", "181147.122500", "181148.612500", "181150.102500", "181151.592500", "181153.082500", "181154.572500", "181156.062500", "181157.552500", "181159.042500", "181200.532500", "181202.022500", "181203.512500", "181205.002500", "181206.492500", "181207.982500", "181209.472500", "181210.962500", "181212.452500", "181213.942500", "181215.432500", "181216.922500", "181218.412500", "181219.902500", "181221.392500", "181222.882500", "181224.372500", "181225.862500", "181227.352500", "181228.842500", "181230.332500", "181231.822500", "181233.312500", "181234.802500", "181236.292500", "181237.782500", "181239.272500", "181240.762500", "181242.252500", "181243.742500", "181245.232500", "181246.722500", "181248.212500", "181249.702500", "181251.192500", "181252.682500", "181254.172500", "181255.662500", "181257.152500", "181258.642500", "181300.132500", "181301.622500", "181303.112500", "181304.602500", "181306.092500", "181307.582500", "181309.072500", "181310.562500", "181312.052500", "181313.542500", "181315.032500", "181316.522500", "181318.012500", "181319.502500", "181320.992500", "181322.482500", "181323.972500", "181325.462500", "181326.952500", "181328.442500", "181329.932500", "181331.422500", "181332.912500", "181334.402500", "181335.892500", "181337.382500", "181338.872500", "181340.362500", "181341.852500", "181343.342500", "181344.832500", "181346.322500", "181347.812500", "181349.302500", "181350.792500", "181352.282500", "181353.772500", "181355.262500", "181356.752500", "181358.242500", "181359.732500", "181401.222500", "181402.712500", "181404.202500", "181405.692500", "181407.182500", "181408.672500", "181410.162500", "181411.652500", "181413.142500", "181414.632500", "181416.122500", "181417.612500", "181419.102500", "181420.592500", "181422.082500", "181423.572500", "181425.062500", "181426.552500", "181428.042500", "181429.532500", "181431.022500", "181432.512500", "181434.002500", "181435.492500", "181436.982500", "181438.472500", "181439.962500", "181441.452500", "181442.942500", "181444.432500", "181445.922500", "181447.412500", "181448.902500", "181450.392500", "181451.882500", "181453.372500", "181454.862500", "181456.352500", "181457.842500", "181459.332500", "181500.822500", "181502.312500", "181503.802500", "181505.292500", "181506.782500", "181508.272500", "181509.762500", "181511.252500", "181512.742500", "181514.232500", "181515.722500", "181517.212500", "181518.702500", "181520.192500", "181521.682500", "181523.172500", "181524.662500", "181526.152500", "181527.642500", "181529.132500", "181530.622500", "181532.112500", "181533.602500", "181535.092500", "181536.582500", "181538.072500", "181539.562500", "181541.052500", "181542.542500", "181544.032500", "181545.522500", "181547.012500", "181548.502500", "181549.992500", "181551.482500", "181552.972500", "181554.462500", "181555.952500", "181557.442500", "181558.932500", "181600.422500", "181601.912500", "181603.402500", "181604.892500", "181606.382500", "181607.872500", "181609.362500", "181610.852500", "181612.342500", "181613.832500", "181615.322500", "181616.812500", "181618.302500", "181619.792500", "181621.282500", "181622.772500", "181624.262500", "181625.752500", "181627.242500", "181628.732500", "181630.222500", "181631.712500", "181633.202500", "181634.692500", "181636.182500", "181637.672500", "181639.162500", "181640.652500", "181642.142500", "181643.632500", "181645.122500", "181646.612500", "181648.102500", "181649.592500", "181651.082500", "181652.572500", "181654.062500", "181655.552500", "181657.042500", "181658.532500", "181700.022500", "181701.512500", "181703.002500", "181704.492500", "181705.982500", "181707.472500", "181708.962500", "181710.452500", "181711.942500", "181713.432500", "181714.922500", "181716.412500", "181717.902500", "181719.392500", "181720.882500", "181722.372500", "181723.862500", "181725.352500", "181726.842500", "181728.332500", "181729.822500", "181731.312500", "181732.802500", "181734.292500", "181735.782500", "181737.272500", "181738.762500", "181740.252500", "181741.742500", "181743.232500", "181744.722500", "181746.212500", "181747.702500", "181749.192500", "181750.682500", "181752.172500", "181753.662500", "181755.152500", "181756.642500", "181758.132500", "181759.622500", "181801.112500", "181802.602500", "181804.092500", "181805.582500", "181807.072500", "181808.562500", "181810.052500", "181811.542500", "181813.032500", "181814.522500", "181816.012500", "181817.502500", "181818.992500", "181820.482500", "181821.972500", "181823.462500", "181824.952500", "181826.442500", "181827.932500", "181829.422500", "181830.912500", "181832.402500", "181833.892500", "181835.382500", "181836.872500", "181838.362500", "181839.852500", "181841.342500", "181842.832500", "181844.322500", "181845.812500", "181847.302500", "181848.792500", "181850.282500", "181851.772500", "181853.262500", "181854.752500", "181856.242500", "181857.732500", "181859.222500", "181900.712500", "181902.202500", "181903.692500", "181905.182500", "181906.672500", "181908.162500", "181909.652500", "181911.142500", "181912.632500", "181914.122500", "181915.612500", "181917.102500", "181918.592500", "181920.082500", "181921.572500", "181923.062500", "181924.552500", "181926.042500", "181927.532500", "181929.022500", "181930.512500", "181932.002500", "181933.492500", "181934.982500", "181936.472500", "181937.962500", "181939.452500", "181940.942500", "181942.432500", "181943.922500", "181945.412500", "181946.902500", "181948.392500", "181949.882500", "181951.372500", "181952.862500", "181954.352500", "181955.842500", "181957.332500", "181958.822500", "182000.312500", "182001.802500", "182003.292500", "182004.782500", "182006.272500", "182007.762500", "182009.252500", "182010.742500", "182012.232500", "182013.722500", "182015.212500", "182016.702500", "182018.192500", "182019.682500", "182021.172500", "182022.662500", "182024.152500", "182025.642500", "182027.132500", "182028.622500", "182030.112500", "182031.602500", "182033.092500", "182034.582500", "182036.072500", "182037.562500", "182039.052500", "182040.542500", "182042.032500", "182043.522500", "182045.012500", "182046.502500", "182047.992500", "182049.482500", "182050.972500", "182052.462500", "182053.952500", "182055.442500", "182056.932500", "182058.422500", "182059.912500"],
      "ContentTime": ["181118.305000", "181118.308000", "181118.310000", "181118.313000", "181118.315000", "181118.318000", "181118.320000", "181118.323000", "181118.325000", "181118.334000", "181118.336000", "181118.339000", "181118.341000", "181118.343000", "181118.346000", "181118.348000", "181118.351000", "181118.353000", "181118.356000", "181118.358000", "181118.361000", "181118.363000", "181118.366000", "181118.368000", "181118.371000", "181118.373000", "181118.375000", "181118.378000", "181118.380000", "181118.383000", "181118.385000", "181118.388000", "181118.390000", "181118.392000", "181118.395000", "181118.397000", "181118.400000", "181138.216000", "181138.219000", "181138.222000", "181138.224000", "181138.226000", "181138.229000", "181138.231000", "181138.234000", "181138.236000", "181138.239000", "181138.241000", "181138.243000", "181138.246000", "181138.248000", "181138.254000", "181138.257000", "181138.259000", "181138.262000", "181138.264000", "181138.267000", "181158.216000", "181158.218000", "181158.221000", "181158.223000", "181158.226000", "181158.228000", "181158.231000", "181158.233000", "181158.236000", "181158.238000", "181158.240000", "181158.243000", "181158.245000", "181158.248000", "181158.250000", "181158.253000", "181158.255000", "181158.258000", "181158.260000", "181158.263000", "181218.226000", "181218.228000", "181218.231000", "181218.233000", "181218.236000", "181218.238000", "181218.241000", "181218.243000", "181218.245000", "181218.248000", "181218.250000", "181218.253000", "181218.255000", "181218.258000", "181218.260000", "181218.263000", "181218.265000", "181218.268000", "181218.270000", "181218.273000", "181258.251000", "181258.254000", "181258.256000", "181258.259000", "181258.261000", "181258.264000", "181258.266000", "181258.268000", "181258.271000", "181258.279000", "181258.282000", "181258.284000", "181258.287000", "181258.289000", "181258.292000", "181258.294000", "181258.296000", "181258.299000", "181258.301000", "181258.304000", "181258.306000", "181258.309000", "181258.311000", "181258.313000", "181258.316000", "181258.318000", "181258.321000", "181258.323000", "181258.326000", "181258.328000", "181258.331000", "181338.253000", "181338.256000", "181338.259000", "181338.261000", "181338.264000", "181338.266000", "181338.269000", "181338.271000", "181338.274000", "181338.276000", "181338.278000", "181338.281000", "181338.283000", "181338.286000", "181338.288000", "181338.291000", "181338.293000", "181338.296000", "181338.298000", "181338.301000", "181338.303000", "181338.306000", "181338.308000", "181338.310000", "181338.313000", "181338.315000", "181418.250000", "181418.252000", "181418.255000", "181418.257000", "181418.260000", "181418.262000", "181418.265000", "181418.267000", "181418.270000", "181418.272000", "181418.275000", "181418.277000", "181418.280000", "181418.282000", "181418.285000", "181418.287000", "181418.289000", "181418.292000", "181418.294000", "181418.297000", "181418.299000", "181418.302000", "181418.304000", "181418.307000", "181418.309000", "181418.312000", "181418.314000", "181458.907000", "181458.910000", "181458.913000", "181458.915000", "181458.918000", "181458.920000", "181458.923000", "181458.925000", "181458.927000", "181458.930000", "181458.932000", "181458.935000", "181458.937000", "181458.940000", "181458.942000", "181458.945000", "181458.947000", "181458.950000", "181458.952000", "181458.955000", "181458.957000", "181458.960000", "181458.962000", "181458.965000", "181458.967000", "181458.969000", "181458.972000", "181538.243000", "181538.246000", "181538.248000", "181538.251000", "181538.253000", "181538.255000", "181538.258000", "181538.261000", "181538.263000", "181538.265000", "181538.268000", "181538.270000", "181538.273000", "181538.275000", "181538.278000", "181538.280000", "181538.283000", "181538.285000", "181538.288000", "181538.290000", "181538.293000", "181538.295000", "181538.298000", "181538.300000", "181538.303000", "181538.305000", "181538.307000", "181618.245000", "181618.247000", "181618.250000", "181618.252000", "181618.255000", "181618.257000", "181618.260000", "181618.262000", "181618.265000", "181618.267000", "181618.270000", "181618.272000", "181618.275000", "181618.277000", "181618.280000", "181618.282000", "181618.285000", "181618.287000", "181618.289000", "181618.292000", "181618.294000", "181618.297000", "181618.299000", "181618.302000", "181618.304000", "181618.307000", "181618.309000", "181658.235000", "181658.237000", "181658.240000", "181658.242000", "181658.245000", "181658.247000", "181658.250000", "181658.252000", "181658.255000", "181658.257000", "181658.259000", "181658.262000", "181658.264000", "181658.267000", "181658.269000", "181658.272000", "181658.274000", "181658.277000", "181658.279000", "181658.282000", "181658.284000", "181658.287000", "181658.289000", "181658.291000", "181658.294000", "181658.296000", "181658.299000", "181738.242000", "181738.245000", "181738.247000", "181738.250000", "181738.252000", "181738.255000", "181738.257000", "181738.260000", "181738.262000", "181738.264000", "181738.267000", "181738.269000", "181738.272000", "181738.274000", "181738.277000", "181738.279000", "181738.281000", "181738.284000", "181738.286000", "181738.289000", "181738.291000", "181738.294000", "181738.296000", "181738.299000", "181738.301000", "181738.304000", "181738.306000", "181818.245000", "181818.248000", "181818.250000", "181818.253000", "181818.255000", "181818.258000", "181818.260000", "181818.262000", "181818.265000", "181818.267000", "181818.270000", "181818.272000", "181818.275000", "181818.277000", "181818.280000", "181818.282000", "181818.285000", "181818.287000", "181818.290000", "181818.292000", "181818.295000", "181818.297000", "181818.300000", "181818.302000", "181818.304000", "181818.307000", "181858.236000", "181858.239000", "181858.241000", "181858.244000", "181858.246000", "181858.248000", "181858.251000", "181858.253000", "181858.256000", "181858.258000", "181858.261000", "181858.263000", "181858.266000", "181858.268000", "181858.270000", "181858.273000", "181858.275000", "181858.278000", "181858.280000", "181858.283000", "181858.285000", "181858.288000", "181858.290000", "181858.293000", "181858.295000", "181858.297000", "181858.300000", "181938.238000", "181938.241000", "181938.243000", "181938.246000", "181938.248000", "181938.251000", "181938.253000", "181938.256000", "181938.258000", "181938.261000", "181938.263000", "181938.265000", "181938.268000", "181938.270000", "181938.273000", "181938.275000", "181938.278000", "181938.280000", "181938.283000", "181938.285000", "181938.288000", "181938.290000", "181938.292000", "181938.295000", "181938.297000", "181938.300000", "181938.302000", "182018.265000", "182018.267000", "182018.270000", "182018.272000", "182018.275000", "182018.277000", "182018.280000", "182018.282000", "182018.285000", "182018.287000", "182018.290000", "182018.292000", "182018.295000", "182018.297000", "182018.300000", "182018.302000", "182018.305000", "182018.307000", "182018.310000", "182018.312000", "182018.315000", "182018.317000", "182018.320000", "182018.322000", "182018.325000", "182018.327000", "182018.330000", "182058.238000", "182058.241000", "182058.244000", "182058.246000", "182058.249000", "182058.251000", "182058.253000", "182058.256000", "182058.258000", "182058.261000", "182058.264000", "182058.266000", "182058.269000", "182058.271000", "182058.274000", "182058.276000", "182058.279000", "182058.281000", "182058.284000", "182058.286000", "182058.288000", "182058.291000", "182058.293000", "182058.296000", "182058.298000", "182058.301000", "182058.303000", "182102.659000", "182102.662000", "182102.664000"],
