{
  "AcquisitionMatrixPE": 104,
  "AcquisitionNumber": 1,
  "AcquisitionTime": "15:44:51.792500",
  "BandwidthPerPixelPhaseEncode": 17.17,
  "BaseResolution": 104,
  "BodyPartExamined": "BRAIN",
  "CoilCombinationMethod": "Sum of Squares",
  "ConsistencyInfo": "N4_VE11C_LATEST_20160120",
  "ConversionSoftware": "dcm2niix",
  "ConversionSoftwareVersion": "v1.0.20211006",
  "DerivedVendorReportedEchoSpacing": 0.000560011,
  "DeviceSerialNumber": "167006",
  "DwellTime": 2.1e-06,
  "EchoTime": 0.037,
  "EchoTime1": 0.037,
  "EchoTime2": 0.001,
  "EchoTrainLength": 104,
  "EffectiveEchoSpacing": 0.000560011,
  "FlipAngle": 52,
  "HeudiconvVersion": "0.10.0",
  "ImageComments": "Unaliased MB4/PE3/LB",
  "ImageOrientationPatientDICOM": [0.9992, -0.0393844, 0.00694871, 0.039608, 0.950491, -0.308218],
  "ImageOrientationText": "Tra>Cor(-18.0)>Sag(-0.3)",
  "ImageType": [
    "ORIGINAL",
    "PRIMARY",
    "P",
    "MB",
    "ND",
    "MOSAIC",
    "PHASE"
],
  "ImagingFrequency": 123.259,
  "InPlanePhaseEncodingDirectionDICOM": "COL",
  "InstitutionAddress": "Chemin Queen-Mary 4565,Montreal,District,CA,H3W 1W5",
  "InstitutionName": "IUGM",
  "InstitutionalDepartmentName": "Department",
  "MRAcquisitionType": "2D",
  "MagneticFieldStrength": 3,
  "Manufacturer": "Siemens",
  "ManufacturersModelName": "Prisma_fit",
  "MatrixCoilMode": "SENSE",
  "Modality": "MR",
  "MultibandAccelerationFactor": 4,
  "PartialFourier": 1,
  "PatientPosition": "HFS",
  "PercentPhaseFOV": 100,
  "PercentSampling": 100,
  "PhaseEncodingDirection": "j",
  "PhaseEncodingSteps": 104,
  "PhaseResolution": 1,
  "PixelBandwidth": 2290,
  "ProcedureStepDescription": "games^mario",
  "ProtocolName": "func_task-mario_run-01",
  "PulseSequenceDetails": "%CustomerSeq%\\cmrr_mbep2d_bold",
  "ReceiveCoilActiveElements": "HC1-7;NC1,2",
  "ReceiveCoilName": "HeadNeck_64",
  "ReconMatrixPE": 104,
  "RepetitionTime": 1.49,
  "SAR": 0.0459109,
  "ScanOptions": "FS",
  "ScanningSequence": "EP",
  "SequenceName": "epfid2d1_104",
  "SequenceVariant": "SK\\SS",
  "SeriesDescription": "func_task-mario_run-01",
  "SeriesNumber": 23,
  "ShimSetting": [628, -7246, -8842, 577, 0, -203, -31, -40],
  "SliceThickness": 2,
  "SliceTiming": [0, 0.785, 0.1, 0.8825, 0.1975, 0.98, 0.295, 1.08, 0.3925, 1.1775, 0.49, 1.275, 0.59, 1.3725, 0.6875, 0, 0.785, 0.1, 0.8825, 0.1975, 0.98, 0.295, 1.08, 0.3925, 1.1775, 0.49, 1.275, 0.59, 1.3725, 0.6875, 0, 0.785, 0.1, 0.8825, 0.1975, 0.98, 0.295, 1.08, 0.3925, 1.1775, 0.49, 1.275, 0.59, 1.3725, 0.6875, 0, 0.785, 0.1, 0.8825, 0.1975, 0.98, 0.295, 1.08, 0.3925, 1.1775, 0.49, 1.275, 0.59, 1.3725, 0.6875],
  "SoftwareVersions": "syngo MR E11",
  "SpacingBetweenSlices": 2,
  "StationName": "MRC35049",
  "TaskName": "mario",
  "TotalReadoutTime": 0.0576811,
  "TxRefAmp": 247.594,
  "WipMemBlock": "d8a91280-b4c0-4612-bb2d-ac6d65dcb8ce||Sequence: R016 ve11c/master r/e634e98; Dec 19 2017 11:00:25 by eja",
  "dcmmeta_affine": [
    [-1.9983999729156494, 0.07921591401100159, -0.011068623512983322, 102.95038604736328],
    [0.07876888662576675, 1.9009816646575928, -0.6164933443069458, -71.10798645019531],
    [0.01389741525053978, 0.6164360642433167, 1.902580738067627, -70.60603332519531],
    [0.0, 0.0, 0.0, 1.0]
],
  "dcmmeta_reorient_transform": [
    [0.0, -1.0, 0.0, 103.0],
    [1.0, 0.0, 0.0, 0.0],
    [0.0, 0.0, 1.0, 0.0],
    [0.0, 0.0, 0.0, 1.0]
],
  "dcmmeta_shape": [104, 104, 60, 480],
  "dcmmeta_slice_dim": 2,
  "dcmmeta_version": 0.6,
  "global": {
    "const": {
      "AcquisitionMatrix": [104, 0, 0, 104],
      "AngioFlag": "N",
      "BitsAllocated": 16,
      "BitsStored": 16,
      "BodyPartExamined": "BRAIN",
      "Columns": 832,
      "EchoNumbers": 1,
      "EchoTime": 37.0,
      "EchoTrainLength": 104,
      "FlipAngle": 52.0,
      "HighBit": 15,
      "ImageOrientationPatient": [0.99919997058107, -0.0393844417494, 0.00694870771287, 0.03960795605766, 0.95049085064748, -0.3082180277861],
      "ImagePositionPatient": [-867.36179430196, -787.9785929637, 212.21094490641],
      "ImageType": [
        "ORIGINAL",
        "PRIMARY",
        "P",
        "MB",
        "ND",
        "MOSAIC"
],
      "ImagedNucleus": "1H",
      "ImagingFrequency": 123.258833,
      "InPlanePhaseEncodingDirection": "COL",
      "LargestImagePixelValue": 4095,
      "MRAcquisitionType": "2D",
      "MagneticFieldStrength": 3.0,
      "Manufacturer": "SIEMENS",
      "ManufacturerModelName": "Prisma_fit",
      "Modality": "MR",
      "NumberOfAverages": 1.0,
      "NumberOfPhaseEncodingSteps": 104,
      "PercentPhaseFieldOfView": 100.0,
      "PercentSampling": 100.0,
      "PerformedProcedureStepStartTime": "143540.260000",
      "PhotometricInterpretation": "MONOCHROME2",
      "PixelBandwidth": 2290.0,
      "PixelRepresentation": 0,
      "PixelSpacing": [2.0, 2.0],
      "ProtocolName": "func_task-mario_run-01",
      "RepetitionTime": 1490.0,
      "RescaleIntercept": -4096.0,
      "RescaleSlope": 2.0,
      "RescaleType": "US",
      "Rows": 832,
      "SAR": 0.04591088349163,
      "SamplesPerPixel": 1,
      "ScanOptions": "FS",
      "ScanningSequence": "EP",
      "SequenceName": "epfid2d1_104",
      "SequenceVariant": [
        "SK",
        "SS"
],
      "SeriesDescription": "func_task-mario_run-01",
      "SeriesNumber": 23,
      "SeriesTime": "154554.455000",
      "SliceLocation": -45.817799005644,
      "SliceThickness": 2.0,
      "SmallestImagePixelValue": 0,
      "SoftwareVersions": "syngo MR E11",
      "SpacingBetweenSlices": 2.0000000423315,
      "SpecificCharacterSet": "ISO_IR 100",
      "StudyID": "1",
      "StudyTime": "143540.181000",
      "TransmitCoilName": "Body",
      "VariableFlipAngleFlag": "N",
      "WindowCenterWidthExplanation": "Algo1",
      "dBdt": 0.0},
    "slices": {}
  },
  "time": {
    "samples": {
      "AcquisitionNumber": [1, 2, 3, 4, 5, 6, 7, 8, 9, 10, 11, 12, 13, 14, 15, 16, 17, 18, 19, 20, 21, 22, 23, 24, 25, 26, 27, 28, 29, 30, 31, 32, 33, 34, 35, 36, 37, 38, 39, 40, 41, 42, 43, 44, 45, 46, 47, 48, 49, 50, 51, 52, 53, 54, 55, 56, 57, 58, 59, 60, 61, 62, 63, 64, 65, 66, 67, 68, 69, 70, 71, 72, 73, 74, 75, 76, 77, 78, 79, 80, 81, 82, 83, 84, 85, 86, 87, 88, 89, 90, 91, 92, 93, 94, 95, 96, 97, 98, 99, 100, 101, 102, 103, 104, 105, 106, 107, 108, 109, 110, 111, 112, 113, 114, 115, 116, 117, 118, 119, 120, 121, 122, 123, 124, 125, 126, 127, 128, 129, 130, 131, 132, 133, 134, 135, 136, 137, 138, 139, 140, 141, 142, 143, 144, 145, 146, 147, 148, 149, 150, 151, 152, 153, 154, 155, 156, 157, 158, 159, 160, 161, 162, 163, 164, 165, 166, 167, 168, 169, 170, 171, 172, 173, 174, 175, 176, 177, 178, 179, 180, 181, 182, 183, 184, 185, 186, 187, 188, 189, 190, 191, 192, 193, 194, 195, 196, 197, 198, 199, 200, 201, 202, 203, 204, 205, 206, 207, 208, 209, 210, 211, 212, 213, 214, 215, 216, 217, 218, 219, 220, 221, 222, 223, 224, 225, 226, 227, 228, 229, 230, 231, 232, 233, 234, 235, 236, 237, 238, 239, 240, 241, 242, 243, 244, 245, 246, 247, 248, 249, 250, 251, 252, 253, 254, 255, 256, 257, 258, 259, 260, 261, 262, 263, 264, 265, 266, 267, 268, 269, 270, 271, 272, 273, 274, 275, 276, 277, 278, 279, 280, 281, 282, 283, 284, 285, 286, 287, 288, 289, 290, 291, 292, 293, 294, 295, 296, 297, 298, 299, 300, 301, 302, 303, 304, 305, 306, 307, 308, 309, 310, 311, 312, 313, 314, 315, 316, 317, 318, 319, 320, 321, 322, 323, 324, 325, 326, 327, 328, 329, 330, 331, 332, 333, 334, 335, 336, 337, 338, 339, 340, 341, 342, 343, 344, 345, 346, 347, 348, 349, 350, 351, 352, 353, 354, 355, 356, 357, 358, 359, 360, 361, 362, 363, 364, 365, 366, 367, 368, 369, 370, 371, 372, 373, 374, 375, 376, 377, 378, 379, 380, 381, 382, 383, 384, 385, 386, 387, 388, 389, 390, 391, 392, 393, 394, 395, 396, 397, 398, 399, 400, 401, 402, 403, 404, 405, 406, 407, 408, 409, 410, 411, 412, 413, 414, 415, 416, 417, 418, 419, 420, 421, 422, 423, 424, 425, 426, 427, 428, 429, 430, 431, 432, 433, 434, 435, 436, 437, 438, 439, 440, 441, 442, 443, 444, 445, 446, 447, 448, 449, 450, 451, 452, 453, 454, 455, 456, 457, 458, 459, 460, 461, 462, 463, 464, 465, 466, 467, 468, 469, 470, 471, 472, 473, 474, 475, 476, 477, 478, 479, 480],
      "AcquisitionTime": ["154451.792500", "154453.282500", "154454.772500", "154456.262500", "154457.752500", "154459.242500", "154500.732500", "154502.222500", "154503.712500", "154505.202500", "154506.692500", "154508.182500", "154509.672500", "154511.162500", "154512.652500", "154514.142500", "154515.632500", "154517.122500", "154518.612500", "154520.102500", "154521.592500", "154523.082500", "154524.572500", "154526.062500", "154527.552500", "154529.042500", "154530.532500", "154532.022500", "154533.512500", "154535.002500", "154536.492500", "154537.982500", "154539.472500", "154540.962500", "154542.452500", "154543.942500", "154545.432500", "154546.922500", "154548.412500", "154549.902500", "154551.392500", "154552.882500", "154554.372500", "154555.862500", "154557.352500", "154558.842500", "154600.332500", "154601.822500", "154603.312500", "154604.802500", "154606.292500", "154607.782500", "154609.272500", "154610.762500", "154612.252500", "154613.742500", "154615.232500", "154616.722500", "154618.212500", "154619.702500", "154621.192500", "154622.682500", "154624.172500", "154625.662500", "154627.152500", "154628.642500", "154630.132500", "154631.622500", "154633.112500", "154634.602500", "154636.092500", "154637.582500", "154639.072500", "154640.562500", "154642.052500", "154643.542500", "154645.032500", "154646.522500", "154648.012500", "154649.502500", "154650.992500", "154652.482500", "154653.972500", "154655.462500", "154656.952500", "154658.442500", "154659.932500", "154701.422500", "154702.912500", "154704.402500", "154705.892500", "154707.382500", "154708.872500", "154710.362500", "154711.852500", "154713.342500", "154714.832500", "154716.322500", "154717.812500", "154719.302500", "154720.792500", "154722.282500", "154723.772500", "154725.262500", "154726.752500", "154728.242500", "154729.732500", "154731.222500", "154732.712500", "154734.202500", "154735.692500", "154737.182500", "154738.672500", "154740.162500", "154741.652500", "154743.142500", "154744.632500", "154746.122500", "154747.612500", "154749.102500", "154750.592500", "154752.082500", "154753.572500", "154755.062500", "154756.552500", "154758.042500", "154759.532500", "154801.022500", "154802.512500", "154804.002500", "154805.492500", "154806.982500", "154808.472500", "154809.962500", "154811.452500", "154812.942500", "154814.432500", "154815.922500", "154817.412500", "154818.902500", "154820.392500", "154821.882500", "154823.372500", "154824.862500", "154826.352500", "154827.842500", "154829.332500", "154830.822500", "154832.312500", "154833.802500", "154835.292500", "154836.782500", "154838.272500", "154839.762500", "154841.252500", "154842.742500", "154844.232500", "154845.722500", "154847.212500", "154848.702500", "154850.192500", "154851.682500", "154853.172500", "154854.662500", "154856.152500", "154857.642500", "154859.132500", "154900.622500", "154902.112500", "154903.602500", "154905.092500", "154906.582500", "154908.072500", "154909.562500", "154911.052500", "154912.542500", "154914.032500", "154915.522500", "154917.012500", "154918.502500", "154919.992500", "154921.482500", "154922.972500", "154924.462500", "154925.952500", "154927.442500", "154928.932500", "154930.422500", "154931.912500", "154933.402500", "154934.892500", "154936.382500", "154937.872500", "154939.362500", "154940.852500", "154942.342500", "154943.832500", "154945.322500", "154946.812500", "154948.302500", "154949.792500", "154951.282500", "154952.772500", "154954.262500", "154955.752500", "154957.242500", "154958.732500", "155000.222500", "155001.712500", "155003.202500", "155004.692500", "155006.182500", "155007.672500", "155009.162500", "155010.652500", "155012.142500", "155013.632500", "155015.122500", "155016.612500", "155018.102500", "155019.592500", "155021.082500", "155022.572500", "155024.062500", "155025.552500", "155027.042500", "155028.532500", "155030.022500", "155031.512500", "155033.002500", "155034.492500", "155035.982500", "155037.472500", "155038.962500", "155040.452500", "155041.942500", "155043.432500", "155044.922500", "155046.412500", "155047.902500", "155049.392500", "155050.882500", "155052.372500", "155053.862500", "155055.352500", "155056.842500", "155058.332500", "155059.822500", "155101.312500", "155102.802500", "155104.292500", "155105.782500", "155107.272500", "155108.762500", "155110.252500", "155111.742500", "155113.232500", "155114.722500", "155116.212500", "155117.702500", "155119.192500", "155120.682500", "155122.172500", "155123.662500", "155125.152500", "155126.642500", "155128.132500", "155129.622500", "155131.112500", "155132.602500", "155134.092500", "155135.582500", "155137.072500", "155138.562500", "155140.052500", "155141.542500", "155143.032500", "155144.522500", "155146.012500", "155147.502500", "155148.992500", "155150.482500", "155151.972500", "155153.462500", "155154.952500", "155156.442500", "155157.932500", "155159.422500", "155200.912500", "155202.402500", "155203.892500", "155205.382500", "155206.872500", "155208.362500", "155209.852500", "155211.342500", "155212.832500", "155214.322500", "155215.812500", "155217.302500", "155218.792500", "155220.282500", "155221.772500", "155223.262500", "155224.752500", "155226.242500", "155227.732500", "155229.222500", "155230.712500", "155232.202500", "155233.692500", "155235.182500", "155236.672500", "155238.162500", "155239.652500", "155241.142500", "155242.632500", "155244.122500", "155245.612500", "155247.102500", "155248.592500", "155250.082500", "155251.572500", "155253.062500", "155254.552500", "155256.042500", "155257.532500", "155259.022500", "155300.512500", "155302.002500", "155303.492500", "155304.982500", "155306.472500", "155307.962500", "155309.452500", "155310.942500", "155312.432500", "155313.922500", "155315.412500", "155316.902500", "155318.392500", "155319.882500", "155321.372500", "155322.862500", "155324.352500", "155325.842500", "155327.332500", "155328.822500", "155330.312500", "155331.802500", "155333.292500", "155334.782500", "155336.272500", "155337.762500", "155339.252500", "155340.742500", "155342.232500", "155343.722500", "155345.212500", "155346.702500", "155348.192500", "155349.682500", "155351.172500", "155352.662500", "155354.152500", "155355.642500", "155357.132500", "155358.622500", "155400.112500", "155401.602500", "155403.092500", "155404.582500", "155406.072500", "155407.562500", "155409.052500", "155410.542500", "155412.032500", "155413.522500", "155415.012500", "155416.502500", "155417.992500", "155419.482500", "155420.972500", "155422.462500", "155423.952500", "155425.442500", "155426.932500", "155428.422500", "155429.912500", "155431.402500", "155432.892500", "155434.382500", "155435.872500", "155437.362500", "155438.852500", "155440.342500", "155441.832500", "155443.322500", "155444.812500", "155446.302500", "155447.792500", "155449.282500", "155450.772500", "155452.262500", "155453.752500", "155455.242500", "155456.732500", "155458.222500", "155459.712500", "155501.202500", "155502.692500", "155504.182500", "155505.672500", "155507.162500", "155508.652500", "155510.142500", "155511.632500", "155513.122500", "155514.612500", "155516.102500", "155517.592500", "155519.082500", "155520.572500", "155522.062500", "155523.552500", "155525.042500", "155526.532500", "155528.022500", "155529.512500", "155531.002500", "155532.492500", "155533.982500", "155535.472500", "155536.962500", "155538.452500", "155539.942500", "155541.432500", "155542.922500", "155544.412500", "155545.902500", "155547.392500", "155548.882500", "155550.372500", "155551.862500", "155553.352500", "155554.842500", "155556.332500", "155557.822500", "155559.312500", "155600.802500", "155602.292500", "155603.782500", "155605.272500", "155606.762500", "155608.252500", "155609.742500", "155611.232500", "155612.722500", "155614.212500", "155615.702500", "155617.192500", "155618.682500", "155620.172500", "155621.662500", "155623.152500", "155624.642500", "155626.132500", "155627.622500", "155629.112500", "155630.602500", "155632.092500", "155633.582500", "155635.072500", "155636.562500", "155638.052500", "155639.542500", "155641.032500", "155642.522500", "155644.012500", "155645.502500"],
      "ContentTime": ["154554.457000", "154554.460000", "154554.462000", "154554.465000", "154554.467000", "154554.470000", "154554.472000", "154554.475000", "154554.478000", "154614.472000", "154614.474000", "154614.477000", "154614.480000", "154614.482000", "154614.485000", "154614.487000", "154614.490000", "154614.492000", "154614.495000", "154614.497000", "154614.506000", "154614.509000", "154614.511000", "154614.514000", "154614.516000", "154614.519000", "154614.522000", "154614.524000", "154614.527000", "154634.472000", "154634.474000", "154634.477000", "154634.480000", "154634.482000", "154634.485000", "154634.487000", "154634.490000", "154634.492000", "154634.495000", "154634.497000", "154634.500000", "154634.502000", "154634.505000", "154634.507000", "154634.510000", "154634.512000", "154634.515000", "154634.517000", "154634.520000", "154634.522000", "154654.476000", "154654.479000", "154654.482000", "154654.484000", "154654.487000", "154654.490000", "154654.492000", "154654.495000", "154654.497000", "154654.500000", "154654.502000", "154654.505000", "154654.508000", "154654.510000", "154654.513000", "154654.515000", "154654.518000", "154654.521000", "154654.523000", "154654.526000", "154714.464000", "154714.467000", "154714.469000", "154714.472000", "154714.474000", "154714.477000", "154714.480000", "154714.482000", "154714.485000", "154714.487000", "154714.490000", "154714.492000", "154714.495000", "154714.497000", "154714.500000", "154714.502000", "154714.505000", "154714.507000", "154714.510000", "154714.512000", "154754.529000", "154754.532000", "154754.535000", "154754.537000", "154754.540000", "154754.542000", "154754.545000", "154754.548000", "154754.550000", "154754.553000", "154754.555000", "154754.558000", "154754.560000", "154754.563000", "154754.566000", "154754.568000", "154754.571000", "154754.573000", "154754.576000", "154754.579000", "154754.581000", "154754.584000", "154754.586000", "154754.589000", "154754.592000", "154754.594000", "154754.597000", "154754.599000", "154754.602000", "154754.604000", "154754.607000", "154754.609000", "154834.524000", "154834.527000", "154834.530000", "154834.532000", "154834.535000", "154834.537000", "154834.540000", "154834.542000", "154834.545000", "154834.548000", "154834.550000", "154834.553000", "154834.555000", "154834.558000", "154834.560000", "154834.563000", "154834.565000", "154834.568000", "154834.571000", "154834.573000", "154834.576000", "154834.578000", "154834.581000", "154834.583000", "154834.586000", "154834.589000", "154914.511000", "154914.514000", "154914.517000", "154914.520000", "154914.522000", "154914.525000", "154914.528000", "154914.530000", "154914.533000", "154914.535000", "154914.538000", "154914.541000", "154914.543000", "154914.546000", "154914.548000", "154914.551000", "154914.553000", "154914.556000", "154914.558000", "154914.561000", "154914.563000", "154914.566000", "154914.569000", "154914.572000", "154914.574000", "154914.577000", "154914.580000", "154954.490000", "154954.493000", "154954.495000", "154954.498000", "154954.500000", "154954.503000", "154954.505000", "154954.508000", "154954.511000", "154954.513000", "154954.516000", "154954.518000", "154954.521000", "154954.523000", "154954.526000", "154954.529000", "154954.531000", "154954.534000", "154954.536000", "154954.539000", "154954.541000", "154954.544000", "154954.547000", "154954.549000", "154954.552000", "154954.554000", "154954.557000", "155034.503000", "155034.506000", "155034.509000", "155034.517000", "155034.520000", "155034.522000", "155034.525000", "155034.528000", "155034.530000", "155034.533000", "155034.540000", "155034.542000", "155034.545000", "155034.547000", "155034.550000", "155034.553000", "155034.555000", "155034.558000", "155034.560000", "155034.563000", "155034.565000", "155034.572000", "155034.575000", "155034.577000", "155034.580000", "155034.583000", "155034.585000", "155114.940000", "155114.954000", "155114.956000", "155114.959000", "155114.961000", "155114.964000", "155114.966000", "155114.969000", "155114.971000", "155114.974000", "155114.976000", "155114.979000", "155114.982000", "155114.984000", "155114.987000", "155114.989000", "155115.006000", "155115.008000", "155115.011000", "155115.014000", "155115.016000", "155115.019000", "155115.021000", "155115.024000", "155115.027000", "155115.029000", "155115.032000", "155154.485000", "155154.488000", "155154.491000", "155154.493000", "155154.496000", "155154.499000", "155154.501000", "155154.504000", "155154.506000", "155154.509000", "155154.511000", "155154.514000", "155154.516000", "155154.519000", "155154.521000", "155154.524000", "155154.527000", "155154.529000", "155154.532000", "155154.534000", "155154.537000", "155154.539000", "155154.542000", "155154.545000", "155154.547000", "155154.550000", "155154.552000", "155234.499000", "155234.502000", "155234.505000", "155234.507000", "155234.510000", "155234.512000", "155234.515000", "155234.517000", "155234.520000", "155234.522000", "155234.525000", "155234.527000", "155234.530000", "155234.533000", "155234.535000", "155234.538000", "155234.540000", "155234.543000", "155234.545000", "155234.548000", "155234.551000", "155234.553000", "155234.556000", "155234.558000", "155234.561000", "155234.563000", "155234.566000", "155314.489000", "155314.492000", "155314.495000", "155314.497000", "155314.500000", "155314.502000", "155314.505000", "155314.508000", "155314.510000", "155314.513000", "155314.515000", "155314.518000", "155314.521000", "155314.523000", "155314.526000", "155314.528000", "155314.531000", "155314.534000", "155314.537000", "155314.540000", "155314.543000", "155314.545000", "155314.548000", "155314.551000", "155314.554000", "155314.589000", "155354.503000", "155354.506000", "155354.509000", "155354.511000", "155354.514000", "155354.516000", "155354.519000", "155354.521000", "155354.524000", "155354.527000", "155354.529000", "155354.532000", "155354.534000", "155354.537000", "155354.539000", "155354.542000", "155354.544000", "155354.547000", "155354.550000", "155354.552000", "155354.555000", "155354.557000", "155354.560000", "155354.562000", "155354.565000", "155354.568000", "155354.570000", "155434.506000", "155434.509000", "155434.511000", "155434.514000", "155434.517000", "155434.519000", "155434.522000", "155434.524000", "155434.527000", "155434.529000", "155434.532000", "155434.535000", "155434.537000", "155434.540000", "155434.542000", "155434.545000", "155434.547000", "155434.550000", "155434.553000", "155434.555000", "155434.558000", "155434.560000", "155434.563000", "155434.565000", "155434.568000", "155434.571000", "155434.573000", "155514.480000", "155514.483000", "155514.485000", "155514.488000", "155514.490000", "155514.493000", "155514.495000", "155514.498000", "155514.500000", "155514.503000", "155514.506000", "155514.508000", "155514.511000", "155514.513000", "155514.516000", "155514.518000", "155514.521000", "155514.523000", "155514.526000", "155514.528000", "155514.531000", "155514.534000", "155514.536000", "155514.539000", "155514.541000", "155514.544000", "155514.546000", "155534.434000", "155534.436000", "155534.439000", "155534.442000", "155534.444000", "155534.453000", "155534.456000", "155534.459000", "155534.462000", "155534.465000", "155534.467000", "155534.470000", "155534.472000", "155614.511000", "155614.514000", "155614.516000", "155614.519000", "155614.521000", "155614.524000", "155614.526000", "155614.529000", "155614.532000", "155614.534000", "155614.537000", "155614.539000", "155614.542000", "155614.544000", "155614.547000", "155614.550000", "155614.552000", "155614.555000", "155614.557000", "155614.560000", "155614.562000", "155614.565000", "155614.567000", "155614.570000", "155614.573000", "155614.576000", "155614.578000", "155649.055000", "155649.058000", "155649.061000", "155649.063000", "155649.066000", "155649.069000", "155649.072000", "155649.074000", "155649.077000", "155649.079000", "155649.082000", "155649.085000", "155649.087000", "155649.090000", "155649.093000", "155649.095000", "155649.098000", "155649.100000", "155649.103000", "155649.106000", "155649.108000", "155649.111000", "155649.113000"],
