{
  "AcquisitionMatrixPE": 104,
  "AcquisitionNumber": 1,
  "AcquisitionTime": "16:01:30.940000",
  "BandwidthPerPixelPhaseEncode": 17.17,
  "BaseResolution": 104,
  "BodyPartExamined": "BRAIN",
  "CoilCombinationMethod": "Sum of Squares",
  "ConsistencyInfo": "N4_VE11C_LATEST_20160120",
  "ConversionSoftware": "dcm2niix",
  "ConversionSoftwareVersion": "v1.0.20211006",
  "DerivedVendorReportedEchoSpacing": 0.000560011,
  "DeviceSerialNumber": "167006",
  "DwellTime": 2.1e-06,
  "EchoTime": 0.037,
  "EchoTime1": 0.037,
  "EchoTime2": 0.001,
  "EchoTrainLength": 104,
  "EffectiveEchoSpacing": 0.000560011,
  "FlipAngle": 52,
  "HeudiconvVersion": "0.10.0",
  "ImageComments": "Unaliased MB4/PE3/LB",
  "ImageOrientationPatientDICOM": [0.9992, -0.0393844, 0.00694871, 0.039608, 0.950491, -0.308218],
  "ImageOrientationText": "Tra>Cor(-18.0)>Sag(-0.3)",
  "ImageType": [
    "ORIGINAL",
    "PRIMARY",
    "P",
    "MB",
    "ND",
    "MOSAIC",
    "PHASE"
],
  "ImagingFrequency": 123.259,
  "InPlanePhaseEncodingDirectionDICOM": "COL",
  "InstitutionAddress": "Chemin Queen-Mary 4565,Montreal,District,CA,H3W 1W5",
  "InstitutionName": "IUGM",
  "InstitutionalDepartmentName": "Department",
  "MRAcquisitionType": "2D",
  "MagneticFieldStrength": 3,
  "Manufacturer": "Siemens",
  "ManufacturersModelName": "Prisma_fit",
  "MatrixCoilMode": "SENSE",
  "Modality": "MR",
  "MultibandAccelerationFactor": 4,
  "PartialFourier": 1,
  "PatientPosition": "HFS",
  "PercentPhaseFOV": 100,
  "PercentSampling": 100,
  "PhaseEncodingDirection": "j",
  "PhaseEncodingSteps": 104,
  "PhaseResolution": 1,
  "PixelBandwidth": 2290,
  "ProcedureStepDescription": "games^mario",
  "ProtocolName": "func_task-mario_run-02",
  "PulseSequenceDetails": "%CustomerSeq%\\cmrr_mbep2d_bold",
  "ReceiveCoilActiveElements": "HC1-7;NC1,2",
  "ReceiveCoilName": "HeadNeck_64",
  "ReconMatrixPE": 104,
  "RepetitionTime": 1.49,
  "SAR": 0.0459109,
  "ScanOptions": "FS",
  "ScanningSequence": "EP",
  "SequenceName": "epfid2d1_104",
  "SequenceVariant": "SK\\SS",
  "SeriesDescription": "func_task-mario_run-02",
  "SeriesNumber": 26,
  "ShimSetting": [628, -7246, -8842, 577, 0, -203, -31, -40],
  "SliceThickness": 2,
  "SliceTiming": [0, 0.7825, 0.0975, 0.88, 0.195, 0.98, 0.2925, 1.0775, 0.39, 1.175, 0.49, 1.2725, 0.5875, 1.37, 0.685, 0, 0.7825, 0.0975, 0.88, 0.195, 0.98, 0.2925, 1.0775, 0.39, 1.175, 0.49, 1.2725, 0.5875, 1.37, 0.685, 0, 0.7825, 0.0975, 0.88, 0.195, 0.98, 0.2925, 1.0775, 0.39, 1.175, 0.49, 1.2725, 0.5875, 1.37, 0.685, 0, 0.7825, 0.0975, 0.88, 0.195, 0.98, 0.2925, 1.0775, 0.39, 1.175, 0.49, 1.2725, 0.5875, 1.37, 0.685],
  "SoftwareVersions": "syngo MR E11",
  "SpacingBetweenSlices": 2,
  "StationName": "MRC35049",
  "TaskName": "mario",
  "TotalReadoutTime": 0.0576811,
  "TxRefAmp": 247.594,
  "WipMemBlock": "29a7d452-78b7-415d-8668-0bd61f724a4e||Sequence: R016 ve11c/master r/e634e98; Dec 19 2017 11:00:25 by eja",
  "dcmmeta_affine": [
    [-1.9983999729156494, 0.07921591401100159, -0.011068623512983322, 102.95038604736328],
    [0.07876888662576675, 1.9009816646575928, -0.6164933443069458, -71.10798645019531],
    [0.01389741525053978, 0.6164360642433167, 1.902580738067627, -70.60603332519531],
    [0.0, 0.0, 0.0, 1.0]
],
  "dcmmeta_reorient_transform": [
    [0.0, -1.0, 0.0, 103.0],
    [1.0, 0.0, 0.0, 0.0],
    [0.0, 0.0, 1.0, 0.0],
    [0.0, 0.0, 0.0, 1.0]
],
  "dcmmeta_shape": [104, 104, 60, 454],
  "dcmmeta_slice_dim": 2,
  "dcmmeta_version": 0.6,
  "global": {
    "const": {
      "AcquisitionMatrix": [104, 0, 0, 104],
      "AngioFlag": "N",
      "BitsAllocated": 16,
      "BitsStored": 16,
      "BodyPartExamined": "BRAIN",
      "Columns": 832,
      "EchoNumbers": 1,
      "EchoTime": 37.0,
      "EchoTrainLength": 104,
      "FlipAngle": 52.0,
      "HighBit": 15,
      "ImageOrientationPatient": [0.99919997058107, -0.0393844417494, 0.00694870771287, 0.03960795605766, 0.95049085064748, -0.3082180277861],
      "ImagePositionPatient": [-867.36179430196, -787.9785929637, 212.21094490641],
      "ImageType": [
        "ORIGINAL",
        "PRIMARY",
        "P",
        "MB",
        "ND",
        "MOSAIC"
],
      "ImagedNucleus": "1H",
      "ImagingFrequency": 123.258841,
      "InPlanePhaseEncodingDirection": "COL",
      "LargestImagePixelValue": 4095,
      "MRAcquisitionType": "2D",
      "MagneticFieldStrength": 3.0,
      "Manufacturer": "SIEMENS",
      "ManufacturerModelName": "Prisma_fit",
      "Modality": "MR",
      "NumberOfAverages": 1.0,
      "NumberOfPhaseEncodingSteps": 104,
      "PercentPhaseFieldOfView": 100.0,
      "PercentSampling": 100.0,
      "PerformedProcedureStepStartTime": "143540.260000",
      "PhotometricInterpretation": "MONOCHROME2",
      "PixelBandwidth": 2290.0,
      "PixelRepresentation": 0,
      "PixelSpacing": [2.0, 2.0],
      "ProtocolName": "func_task-mario_run-02",
      "RepetitionTime": 1490.0,
      "RescaleIntercept": -4096.0,
      "RescaleSlope": 2.0,
      "RescaleType": "US",
      "Rows": 832,
      "SAR": 0.04591088349163,
      "SamplesPerPixel": 1,
      "ScanOptions": "FS",
      "ScanningSequence": "EP",
      "SequenceName": "epfid2d1_104",
      "SequenceVariant": [
        "SK",
        "SS"
],
      "SeriesDescription": "func_task-mario_run-02",
      "SeriesNumber": 26,
      "SeriesTime": "160257.236000",
      "SliceLocation": -45.817799005644,
      "SliceThickness": 2.0,
      "SmallestImagePixelValue": 0,
      "SoftwareVersions": "syngo MR E11",
      "SpacingBetweenSlices": 2.0000000423315,
      "SpecificCharacterSet": "ISO_IR 100",
      "StudyID": "1",
      "StudyTime": "143540.181000",
      "TransmitCoilName": "Body",
      "VariableFlipAngleFlag": "N",
      "WindowCenterWidthExplanation": "Algo1",
      "dBdt": 0.0},
    "slices": {}
  },
  "time": {
    "samples": {
      "AcquisitionNumber": [1, 2, 3, 4, 5, 6, 7, 8, 9, 10, 11, 12, 13, 14, 15, 16, 17, 18, 19, 20, 21, 22, 23, 24, 25, 26, 27, 28, 29, 30, 31, 32, 33, 34, 35, 36, 37, 38, 39, 40, 41, 42, 43, 44, 45, 46, 47, 48, 49, 50, 51, 52, 53, 54, 55, 56, 57, 58, 59, 60, 61, 62, 63, 64, 65, 66, 67, 68, 69, 70, 71, 72, 73, 74, 75, 76, 77, 78, 79, 80, 81, 82, 83, 84, 85, 86, 87, 88, 89, 90, 91, 92, 93, 94, 95, 96, 97, 98, 99, 100, 101, 102, 103, 104, 105, 106, 107, 108, 109, 110, 111, 112, 113, 114, 115, 116, 117, 118, 119, 120, 121, 122, 123, 124, 125, 126, 127, 128, 129, 130, 131, 132, 133, 134, 135, 136, 137, 138, 139, 140, 141, 142, 143, 144, 145, 146, 147, 148, 149, 150, 151, 152, 153, 154, 155, 156, 157, 158, 159, 160, 161, 162, 163, 164, 165, 166, 167, 168, 169, 170, 171, 172, 173, 174, 175, 176, 177, 178, 179, 180, 181, 182, 183, 184, 185, 186, 187, 188, 189, 190, 191, 192, 193, 194, 195, 196, 197, 198, 199, 200, 201, 202, 203, 204, 205, 206, 207, 208, 209, 210, 211, 212, 213, 214, 215, 216, 217, 218, 219, 220, 221, 222, 223, 224, 225, 226, 227, 228, 229, 230, 231, 232, 233, 234, 235, 236, 237, 238, 239, 240, 241, 242, 243, 244, 245, 246, 247, 248, 249, 250, 251, 252, 253, 254, 255, 256, 257, 258, 259, 260, 261, 262, 263, 264, 265, 266, 267, 268, 269, 270, 271, 272, 273, 274, 275, 276, 277, 278, 279, 280, 281, 282, 283, 284, 285, 286, 287, 288, 289, 290, 291, 292, 293, 294, 295, 296, 297, 298, 299, 300, 301, 302, 303, 304, 305, 306, 307, 308, 309, 310, 311, 312, 313, 314, 315, 316, 317, 318, 319, 320, 321, 322, 323, 324, 325, 326, 327, 328, 329, 330, 331, 332, 333, 334, 335, 336, 337, 338, 339, 340, 341, 342, 343, 344, 345, 346, 347, 348, 349, 350, 351, 352, 353, 354, 355, 356, 357, 358, 359, 360, 361, 362, 363, 364, 365, 366, 367, 368, 369, 370, 371, 372, 373, 374, 375, 376, 377, 378, 379, 380, 381, 382, 383, 384, 385, 386, 387, 388, 389, 390, 391, 392, 393, 394, 395, 396, 397, 398, 399, 400, 401, 402, 403, 404, 405, 406, 407, 408, 409, 410, 411, 412, 413, 414, 415, 416, 417, 418, 419, 420, 421, 422, 423, 424, 425, 426, 427, 428, 429, 430, 431, 432, 433, 434, 435, 436, 437, 438, 439, 440, 441, 442, 443, 444, 445, 446, 447, 448, 449, 450, 451, 452, 453, 454],
      "AcquisitionTime": ["160130.940000", "160132.430000", "160133.920000", "160135.410000", "160136.900000", "160138.390000", "160139.880000", "160141.370000", "160142.860000", "160144.350000", "160145.840000", "160147.330000", "160148.820000", "160150.310000", "160151.800000", "160153.290000", "160154.780000", "160156.270000", "160157.760000", "160159.250000", "160200.740000", "160202.230000", "160203.720000", "160205.210000", "160206.700000", "160208.190000", "160209.680000", "160211.170000", "160212.660000", "160214.150000", "160215.640000", "160217.130000", "160218.620000", "160220.110000", "160221.600000", "160223.090000", "160224.580000", "160226.070000", "160227.560000", "160229.050000", "160230.540000", "160232.030000", "160233.520000", "160235.010000", "160236.500000", "160237.990000", "160239.480000", "160240.970000", "160242.460000", "160243.950000", "160245.440000", "160246.930000", "160248.420000", "160249.910000", "160251.400000", "160252.890000", "160254.380000", "160255.870000", "160257.360000", "160258.850000", "160300.340000", "160301.830000", "160303.320000", "160304.810000", "160306.300000", "160307.790000", "160309.280000", "160310.770000", "160312.260000", "160313.750000", "160315.240000", "160316.730000", "160318.220000", "160319.710000", "160321.200000", "160322.690000", "160324.180000", "160325.670000", "160327.160000", "160328.650000", "160330.140000", "160331.630000", "160333.120000", "160334.610000", "160336.100000", "160337.590000", "160339.080000", "160340.570000", "160342.060000", "160343.550000", "160345.040000", "160346.530000", "160348.020000", "160349.510000", "160351.000000", "160352.490000", "160353.980000", "160355.470000", "160356.960000", "160358.450000", "160359.940000", "160401.430000", "160402.920000", "160404.410000", "160405.900000", "160407.390000", "160408.880000", "160410.370000", "160411.860000", "160413.350000", "160414.840000", "160416.330000", "160417.820000", "160419.310000", "160420.800000", "160422.290000", "160423.780000", "160425.270000", "160426.760000", "160428.250000", "160429.740000", "160431.230000", "160432.720000", "160434.210000", "160435.700000", "160437.190000", "160438.680000", "160440.170000", "160441.660000", "160443.150000", "160444.640000", "160446.130000", "160447.620000", "160449.110000", "160450.600000", "160452.090000", "160453.580000", "160455.070000", "160456.560000", "160458.050000", "160459.540000", "160501.030000", "160502.520000", "160504.010000", "160505.500000", "160506.990000", "160508.480000", "160509.970000", "160511.460000", "160512.950000", "160514.440000", "160515.930000", "160517.420000", "160518.910000", "160520.400000", "160521.890000", "160523.380000", "160524.870000", "160526.360000", "160527.850000", "160529.340000", "160530.830000", "160532.320000", "160533.810000", "160535.300000", "160536.790000", "160538.280000", "160539.770000", "160541.260000", "160542.750000", "160544.240000", "160545.730000", "160547.220000", "160548.710000", "160550.200000", "160551.690000", "160553.180000", "160554.670000", "160556.160000", "160557.650000", "160559.140000", "160600.630000", "160602.120000", "160603.610000", "160605.100000", "160606.590000", "160608.080000", "160609.570000", "160611.060000", "160612.550000", "160614.040000", "160615.530000", "160617.020000", "160618.510000", "160620.000000", "160621.490000", "160622.980000", "160624.470000", "160625.960000", "160627.450000", "160628.940000", "160630.430000", "160631.920000", "160633.410000", "160634.900000", "160636.390000", "160637.880000", "160639.370000", "160640.860000", "160642.350000", "160643.840000", "160645.330000", "160646.820000", "160648.310000", "160649.800000", "160651.290000", "160652.780000", "160654.270000", "160655.760000", "160657.250000", "160658.740000", "160700.230000", "160701.720000", "160703.210000", "160704.700000", "160706.190000", "160707.680000", "160709.170000", "160710.660000", "160712.150000", "160713.640000", "160715.130000", "160716.620000", "160718.110000", "160719.600000", "160721.090000", "160722.580000", "160724.070000", "160725.560000", "160727.050000", "160728.540000", "160730.030000", "160731.520000", "160733.010000", "160734.500000", "160735.990000", "160737.480000", "160738.970000", "160740.460000", "160741.950000", "160743.440000", "160744.930000", "160746.420000", "160747.910000", "160749.400000", "160750.890000", "160752.380000", "160753.870000", "160755.360000", "160756.850000", "160758.340000", "160759.830000", "160801.320000", "160802.810000", "160804.300000", "160805.790000", "160807.280000", "160808.770000", "160810.260000", "160811.750000", "160813.240000", "160814.730000", "160816.220000", "160817.710000", "160819.200000", "160820.690000", "160822.180000", "160823.670000", "160825.160000", "160826.650000", "160828.140000", "160829.630000", "160831.120000", "160832.610000", "160834.100000", "160835.590000", "160837.080000", "160838.570000", "160840.060000", "160841.550000", "160843.040000", "160844.530000", "160846.020000", "160847.510000", "160849.000000", "160850.490000", "160851.980000", "160853.470000", "160854.960000", "160856.450000", "160857.940000", "160859.430000", "160900.920000", "160902.410000", "160903.900000", "160905.390000", "160906.880000", "160908.370000", "160909.860000", "160911.350000", "160912.840000", "160914.330000", "160915.820000", "160917.310000", "160918.800000", "160920.290000", "160921.780000", "160923.270000", "160924.760000", "160926.250000", "160927.740000", "160929.230000", "160930.720000", "160932.210000", "160933.700000", "160935.190000", "160936.680000", "160938.170000", "160939.660000", "160941.150000", "160942.640000", "160944.130000", "160945.620000", "160947.110000", "160948.600000", "160950.090000", "160951.580000", "160953.070000", "160954.560000", "160956.050000", "160957.540000", "160959.030000", "161000.520000", "161002.010000", "161003.500000", "161004.990000", "161006.480000", "161007.970000", "161009.460000", "161010.950000", "161012.440000", "161013.930000", "161015.420000", "161016.910000", "161018.400000", "161019.890000", "161021.380000", "161022.870000", "161024.360000", "161025.850000", "161027.340000", "161028.830000", "161030.320000", "161031.810000", "161033.300000", "161034.790000", "161036.280000", "161037.770000", "161039.260000", "161040.750000", "161042.240000", "161043.730000", "161045.220000", "161046.710000", "161048.200000", "161049.690000", "161051.180000", "161052.670000", "161054.160000", "161055.650000", "161057.140000", "161058.630000", "161100.120000", "161101.610000", "161103.100000", "161104.590000", "161106.080000", "161107.570000", "161109.060000", "161110.550000", "161112.040000", "161113.530000", "161115.020000", "161116.510000", "161118.000000", "161119.490000", "161120.980000", "161122.470000", "161123.960000", "161125.450000", "161126.940000", "161128.430000", "161129.920000", "161131.410000", "161132.900000", "161134.390000", "161135.880000", "161137.370000", "161138.860000", "161140.350000", "161141.840000", "161143.330000", "161144.820000", "161146.310000", "161147.800000", "161149.290000", "161150.780000", "161152.270000", "161153.760000", "161155.250000", "161156.740000", "161158.230000", "161159.720000", "161201.210000", "161202.700000", "161204.190000", "161205.680000", "161207.170000", "161208.660000", "161210.150000", "161211.640000", "161213.130000", "161214.620000", "161216.110000", "161217.600000", "161219.090000", "161220.580000", "161222.070000", "161223.560000", "161225.050000", "161226.540000", "161228.030000", "161229.520000", "161231.010000", "161232.500000", "161233.990000", "161235.480000", "161236.970000", "161238.460000", "161239.950000", "161241.440000", "161242.930000", "161244.420000", "161245.910000"],
      "ContentTime": ["160257.238000", "160257.241000", "160257.244000", "160257.246000", "160257.249000", "160257.251000", "160257.254000", "160257.257000", "160257.259000", "160257.262000", "160257.264000", "160257.267000", "160257.269000", "160257.272000", "160257.274000", "160257.277000", "160257.279000", "160257.282000", "160257.298000", "160257.300000", "160257.313000", "160257.316000", "160257.318000", "160257.321000", "160257.323000", "160257.326000", "160257.328000", "160257.331000", "160257.333000", "160257.336000", "160257.338000", "160257.341000", "160257.343000", "160317.155000", "160317.158000", "160317.161000", "160317.163000", "160317.166000", "160317.168000", "160317.171000", "160317.173000", "160317.176000", "160317.178000", "160317.181000", "160317.184000", "160317.186000", "160317.189000", "160317.191000", "160317.194000", "160317.196000", "160317.199000", "160317.206000", "160317.209000", "160337.160000", "160337.162000", "160337.165000", "160337.168000", "160337.170000", "160337.173000", "160337.175000", "160337.178000", "160337.180000", "160337.183000", "160337.185000", "160337.188000", "160337.190000", "160337.193000", "160337.196000", "160337.198000", "160337.201000", "160337.203000", "160337.206000", "160337.208000", "160357.153000", "160357.156000", "160357.158000", "160357.161000", "160357.163000", "160357.166000", "160357.169000", "160357.171000", "160357.174000", "160357.176000", "160357.179000", "160357.181000", "160357.184000", "160357.187000", "160357.189000", "160357.192000", "160357.194000", "160357.197000", "160357.199000", "160357.202000", "160437.196000", "160437.199000", "160437.202000", "160437.204000", "160437.207000", "160437.209000", "160437.212000", "160437.215000", "160437.217000", "160437.220000", "160437.222000", "160437.225000", "160437.227000", "160437.230000", "160437.233000", "160437.235000", "160437.238000", "160437.240000", "160437.243000", "160437.246000", "160437.248000", "160437.251000", "160437.253000", "160437.256000", "160437.258000", "160437.261000", "160437.263000", "160437.266000", "160437.269000", "160437.271000", "160437.274000", "160517.193000", "160517.195000", "160517.198000", "160517.200000", "160517.203000", "160517.206000", "160517.208000", "160517.211000", "160517.214000", "160517.216000", "160517.219000", "160517.221000", "160517.224000", "160517.226000", "160517.229000", "160517.232000", "160517.234000", "160517.237000", "160517.239000", "160517.242000", "160517.244000", "160517.247000", "160517.249000", "160517.252000", "160517.254000", "160517.257000", "160517.259000", "160537.110000", "160537.113000", "160537.115000", "160537.118000", "160537.120000", "160537.123000", "160537.126000", "160537.129000", "160537.131000", "160537.134000", "160537.136000", "160537.139000", "160537.141000", "160617.574000", "160617.577000", "160617.580000", "160617.582000", "160617.585000", "160617.588000", "160617.590000", "160617.593000", "160617.595000", "160617.598000", "160617.600000", "160617.603000", "160617.606000", "160617.608000", "160617.611000", "160617.613000", "160617.616000", "160617.618000", "160617.621000", "160617.623000", "160617.626000", "160617.628000", "160617.631000", "160617.633000", "160617.636000", "160617.638000", "160617.641000", "160657.189000", "160657.192000", "160657.195000", "160657.197000", "160657.200000", "160657.203000", "160657.205000", "160657.208000", "160657.210000", "160657.213000", "160657.216000", "160657.218000", "160657.221000", "160657.223000", "160657.226000", "160657.228000", "160657.231000", "160657.233000", "160657.236000", "160657.238000", "160657.241000", "160657.244000", "160657.246000", "160657.249000", "160657.251000", "160657.254000", "160657.256000", "160737.191000", "160737.194000", "160737.197000", "160737.199000", "160737.202000", "160737.204000", "160737.207000", "160737.214000", "160737.216000", "160737.219000", "160737.222000", "160737.224000", "160737.227000", "160737.229000", "160737.232000", "160737.235000", "160737.237000", "160737.240000", "160737.242000", "160737.245000", "160737.248000", "160737.250000", "160737.253000", "160737.255000", "160737.258000", "160737.261000", "160737.263000", "160817.170000", "160817.173000", "160817.176000", "160817.178000", "160817.181000", "160817.183000", "160817.186000", "160817.188000", "160817.191000", "160817.193000", "160817.196000", "160817.198000", "160817.201000", "160817.204000", "160817.206000", "160817.209000", "160817.211000", "160817.214000", "160817.216000", "160817.219000", "160817.222000", "160817.224000", "160817.227000", "160817.229000", "160817.232000", "160817.235000", "160817.237000", "160857.183000", "160857.185000", "160857.188000", "160857.191000", "160857.193000", "160857.196000", "160857.198000", "160857.201000", "160857.203000", "160857.206000", "160857.208000", "160857.211000", "160857.214000", "160857.216000", "160857.219000", "160857.221000", "160857.224000", "160857.227000", "160857.229000", "160857.232000", "160857.234000", "160857.237000", "160857.240000", "160857.242000", "160857.245000", "160857.247000", "160857.250000", "160937.197000", "160937.200000", "160937.203000", "160937.206000", "160937.208000", "160937.211000", "160937.214000", "160937.216000", "160937.219000", "160937.221000", "160937.224000", "160937.226000", "160937.229000", "160937.231000", "160937.234000", "160937.237000", "160937.239000", "160937.242000", "160937.244000", "160937.247000", "160937.249000", "160937.269000", "160937.272000", "160937.274000", "160937.277000", "160937.279000", "161017.165000", "161017.168000", "161017.171000", "161017.173000", "161017.176000", "161017.178000", "161017.181000", "161017.183000", "161017.186000", "161017.189000", "161017.191000", "161017.195000", "161017.197000", "161017.200000", "161017.203000", "161017.205000", "161017.208000", "161017.210000", "161017.213000", "161017.215000", "161017.218000", "161017.220000", "161017.223000", "161017.226000", "161017.228000", "161017.231000", "161017.233000", "161057.185000", "161057.188000", "161057.190000", "161057.193000", "161057.195000", "161057.198000", "161057.201000", "161057.206000", "161057.209000", "161057.212000", "161057.214000", "161057.217000", "161057.219000", "161057.222000", "161057.224000", "161057.227000", "161057.229000", "161057.232000", "161057.235000", "161057.237000", "161057.240000", "161057.242000", "161057.245000", "161057.247000", "161057.250000", "161057.252000", "161057.255000", "161137.183000", "161137.186000", "161137.191000", "161137.194000", "161137.197000", "161137.199000", "161137.202000", "161137.204000", "161137.207000", "161137.209000", "161137.212000", "161137.214000", "161137.217000", "161137.220000", "161137.223000", "161137.225000", "161137.228000", "161137.231000", "161137.233000", "161137.236000", "161137.238000", "161137.241000", "161137.244000", "161137.247000", "161137.249000", "161137.252000", "161137.254000", "161217.186000", "161217.189000", "161217.191000", "161217.194000", "161217.196000", "161217.199000", "161217.201000", "161217.204000", "161217.207000", "161217.209000", "161217.212000", "161217.214000", "161217.217000", "161217.219000", "161217.222000", "161217.224000", "161217.227000", "161217.230000", "161217.232000", "161217.235000", "161217.237000", "161217.240000", "161217.243000", "161217.245000", "161217.248000", "161217.250000", "161217.253000", "161248.752000", "161248.755000", "161248.757000", "161248.760000", "161248.762000", "161248.765000", "161248.768000", "161248.818000", "161248.821000", "161248.823000", "161248.837000", "161248.839000", "161248.842000", "161248.844000", "161248.847000", "161248.849000", "161248.852000", "161248.855000", "161248.857000", "161248.860000", "161248.862000"],
