{
  "AcquisitionMatrixPE": 104,
  "AcquisitionNumber": 1,
  "AcquisitionTime": "16:01:30.940000",
  "BandwidthPerPixelPhaseEncode": 17.17,
  "BaseResolution": 104,
  "BodyPartExamined": "BRAIN",
  "CoilCombinationMethod": "Sum of Squares",
  "ConsistencyInfo": "N4_VE11C_LATEST_20160120",
  "ConversionSoftware": "dcm2niix",
  "ConversionSoftwareVersion": "v1.0.20211006",
  "DerivedVendorReportedEchoSpacing": 0.000560011,
  "DeviceSerialNumber": "167006",
  "DwellTime": 2.1e-06,
  "EchoTime": 0.037,
  "EchoTrainLength": 104,
  "EffectiveEchoSpacing": 0.000560011,
  "FlipAngle": 52,
  "HeudiconvVersion": "0.10.0",
  "ImageComments": "Unaliased MB4/PE3/LB",
  "ImageOrientationPatientDICOM": [0.9992, -0.0393844, 0.00694871, 0.039608, 0.950491, -0.308218],
  "ImageOrientationText": "Tra>Cor(-18.0)>Sag(-0.3)",
  "ImageType": [
    "ORIGINAL",
    "PRIMARY",
    "M",
    "MB",
    "ND",
    "MOSAIC"
],
  "ImagingFrequency": 123.259,
  "InPlanePhaseEncodingDirectionDICOM": "COL",
  "InstitutionAddress": "Chemin Queen-Mary 4565,Montreal,District,CA,H3W 1W5",
  "InstitutionName": "IUGM",
  "InstitutionalDepartmentName": "Department",
  "MRAcquisitionType": "2D",
  "MagneticFieldStrength": 3,
  "Manufacturer": "Siemens",
  "ManufacturersModelName": "Prisma_fit",
  "MatrixCoilMode": "SENSE",
  "Modality": "MR",
  "MultibandAccelerationFactor": 4,
  "PartialFourier": 1,
  "PatientPosition": "HFS",
  "PercentPhaseFOV": 100,
  "PercentSampling": 100,
  "PhaseEncodingDirection": "j",
  "PhaseEncodingSteps": 104,
  "PhaseResolution": 1,
  "PixelBandwidth": 2290,
  "ProcedureStepDescription": "games^mario",
  "ProtocolName": "func_task-mario_run-02",
  "PulseSequenceDetails": "%CustomerSeq%\\cmrr_mbep2d_bold",
  "ReceiveCoilActiveElements": "HC1-7;NC1,2",
  "ReceiveCoilName": "HeadNeck_64",
  "ReconMatrixPE": 104,
  "RepetitionTime": 1.49,
  "SAR": 0.0459109,
  "ScanOptions": "FS",
  "ScanningSequence": "EP",
  "SequenceName": "epfid2d1_104",
  "SequenceVariant": "SK\\SS",
  "SeriesDescription": "func_task-mario_run-02",
  "SeriesNumber": 25,
  "ShimSetting": [628, -7246, -8842, 577, 0, -203, -31, -40],
  "SliceThickness": 2,
  "SliceTiming": [0, 0.7825, 0.0975, 0.88, 0.195, 0.98, 0.2925, 1.0775, 0.39, 1.175, 0.49, 1.2725, 0.5875, 1.37, 0.685, 0, 0.7825, 0.0975, 0.88, 0.195, 0.98, 0.2925, 1.0775, 0.39, 1.175, 0.49, 1.2725, 0.5875, 1.37, 0.685, 0, 0.7825, 0.0975, 0.88, 0.195, 0.98, 0.2925, 1.0775, 0.39, 1.175, 0.49, 1.2725, 0.5875, 1.37, 0.685, 0, 0.7825, 0.0975, 0.88, 0.195, 0.98, 0.2925, 1.0775, 0.39, 1.175, 0.49, 1.2725, 0.5875, 1.37, 0.685],
  "SoftwareVersions": "syngo MR E11",
  "SpacingBetweenSlices": 2,
  "StationName": "MRC35049",
  "TaskName": "mario",
  "TotalReadoutTime": 0.0576811,
  "TxRefAmp": 247.594,
  "WipMemBlock": "29a7d452-78b7-415d-8668-0bd61f724a4e||Sequence: R016 ve11c/master r/e634e98; Dec 19 2017 11:00:25 by eja",
  "dcmmeta_affine": [
    [-1.9983999729156494, 0.07921591401100159, -0.011068623512983322, 102.95038604736328],
    [0.07876888662576675, 1.9009816646575928, -0.6164933443069458, -71.10798645019531],
    [0.01389741525053978, 0.6164360642433167, 1.902580738067627, -70.60603332519531],
    [0.0, 0.0, 0.0, 1.0]
],
  "dcmmeta_reorient_transform": [
    [0.0, -1.0, 0.0, 103.0],
    [1.0, 0.0, 0.0, 0.0],
    [0.0, 0.0, 1.0, 0.0],
    [0.0, 0.0, 0.0, 1.0]
],
  "dcmmeta_shape": [104, 104, 60, 454],
  "dcmmeta_slice_dim": 2,
  "dcmmeta_version": 0.6,
  "global": {
    "const": {
      "AcquisitionMatrix": [104, 0, 0, 104],
      "AngioFlag": "N",
      "BitsAllocated": 16,
      "BitsStored": 16,
      "BodyPartExamined": "BRAIN",
      "Columns": 832,
      "EchoNumbers": 1,
      "EchoTime": 37.0,
      "EchoTrainLength": 104,
      "FlipAngle": 52.0,
      "HighBit": 15,
      "ImageOrientationPatient": [0.99919997058107, -0.0393844417494, 0.00694870771287, 0.03960795605766, 0.95049085064748, -0.3082180277861],
      "ImagePositionPatient": [-867.36179430196, -787.9785929637, 212.21094490641],
      "ImageType": [
        "ORIGINAL",
        "PRIMARY",
        "M",
        "MB",
        "ND",
        "MOSAIC"
],
      "ImagedNucleus": "1H",
      "ImagingFrequency": 123.258841,
      "InPlanePhaseEncodingDirection": "COL",
      "MRAcquisitionType": "2D",
      "MagneticFieldStrength": 3.0,
      "Manufacturer": "SIEMENS",
      "ManufacturerModelName": "Prisma_fit",
      "Modality": "MR",
      "NumberOfAverages": 1.0,
      "NumberOfPhaseEncodingSteps": 104,
      "PercentPhaseFieldOfView": 100.0,
      "PercentSampling": 100.0,
      "PerformedProcedureStepStartTime": "143540.260000",
      "PhotometricInterpretation": "MONOCHROME2",
      "PixelBandwidth": 2290.0,
      "PixelRepresentation": 0,
      "PixelSpacing": [2.0, 2.0],
      "ProtocolName": "func_task-mario_run-02",
      "RepetitionTime": 1490.0,
      "Rows": 832,
      "SAR": 0.04591088349163,
      "SamplesPerPixel": 1,
      "ScanOptions": "FS",
      "ScanningSequence": "EP",
      "SequenceName": "epfid2d1_104",
      "SequenceVariant": [
        "SK",
        "SS"
],
      "SeriesDescription": "func_task-mario_run-02",
      "SeriesNumber": 25,
      "SeriesTime": "160257.071000",
      "SliceLocation": -45.817799005644,
      "SliceThickness": 2.0,
      "SmallestImagePixelValue": 0,
      "SoftwareVersions": "syngo MR E11",
      "SpacingBetweenSlices": 2.0000000423315,
      "SpecificCharacterSet": "ISO_IR 100",
      "StudyID": "1",
      "StudyTime": "143540.181000",
      "TransmitCoilName": "Body",
      "VariableFlipAngleFlag": "N",
      "WindowCenterWidthExplanation": "Algo1",
      "dBdt": 0.0},
    "slices": {}
  },
  "time": {
    "samples": {
      "AcquisitionNumber": [1, 2, 3, 4, 5, 6, 7, 8, 9, 10, 11, 12, 13, 14, 15, 16, 17, 18, 19, 20, 21, 22, 23, 24, 25, 26, 27, 28, 29, 30, 31, 32, 33, 34, 35, 36, 37, 38, 39, 40, 41, 42, 43, 44, 45, 46, 47, 48, 49, 50, 51, 52, 53, 54, 55, 56, 57, 58, 59, 60, 61, 62, 63, 64, 65, 66, 67, 68, 69, 70, 71, 72, 73, 74, 75, 76, 77, 78, 79, 80, 81, 82, 83, 84, 85, 86, 87, 88, 89, 90, 91, 92, 93, 94, 95, 96, 97, 98, 99, 100, 101, 102, 103, 104, 105, 106, 107, 108, 109, 110, 111, 112, 113, 114, 115, 116, 117, 118, 119, 120, 121, 122, 123, 124, 125, 126, 127, 128, 129, 130, 131, 132, 133, 134, 135, 136, 137, 138, 139, 140, 141, 142, 143, 144, 145, 146, 147, 148, 149, 150, 151, 152, 153, 154, 155, 156, 157, 158, 159, 160, 161, 162, 163, 164, 165, 166, 167, 168, 169, 170, 171, 172, 173, 174, 175, 176, 177, 178, 179, 180, 181, 182, 183, 184, 185, 186, 187, 188, 189, 190, 191, 192, 193, 194, 195, 196, 197, 198, 199, 200, 201, 202, 203, 204, 205, 206, 207, 208, 209, 210, 211, 212, 213, 214, 215, 216, 217, 218, 219, 220, 221, 222, 223, 224, 225, 226, 227, 228, 229, 230, 231, 232, 233, 234, 235, 236, 237, 238, 239, 240, 241, 242, 243, 244, 245, 246, 247, 248, 249, 250, 251, 252, 253, 254, 255, 256, 257, 258, 259, 260, 261, 262, 263, 264, 265, 266, 267, 268, 269, 270, 271, 272, 273, 274, 275, 276, 277, 278, 279, 280, 281, 282, 283, 284, 285, 286, 287, 288, 289, 290, 291, 292, 293, 294, 295, 296, 297, 298, 299, 300, 301, 302, 303, 304, 305, 306, 307, 308, 309, 310, 311, 312, 313, 314, 315, 316, 317, 318, 319, 320, 321, 322, 323, 324, 325, 326, 327, 328, 329, 330, 331, 332, 333, 334, 335, 336, 337, 338, 339, 340, 341, 342, 343, 344, 345, 346, 347, 348, 349, 350, 351, 352, 353, 354, 355, 356, 357, 358, 359, 360, 361, 362, 363, 364, 365, 366, 367, 368, 369, 370, 371, 372, 373, 374, 375, 376, 377, 378, 379, 380, 381, 382, 383, 384, 385, 386, 387, 388, 389, 390, 391, 392, 393, 394, 395, 396, 397, 398, 399, 400, 401, 402, 403, 404, 405, 406, 407, 408, 409, 410, 411, 412, 413, 414, 415, 416, 417, 418, 419, 420, 421, 422, 423, 424, 425, 426, 427, 428, 429, 430, 431, 432, 433, 434, 435, 436, 437, 438, 439, 440, 441, 442, 443, 444, 445, 446, 447, 448, 449, 450, 451, 452, 453, 454],
      "AcquisitionTime": ["160130.940000", "160132.430000", "160133.920000", "160135.410000", "160136.900000", "160138.390000", "160139.880000", "160141.370000", "160142.860000", "160144.350000", "160145.840000", "160147.330000", "160148.820000", "160150.310000", "160151.800000", "160153.290000", "160154.780000", "160156.270000", "160157.760000", "160159.250000", "160200.740000", "160202.230000", "160203.720000", "160205.210000", "160206.700000", "160208.190000", "160209.680000", "160211.170000", "160212.660000", "160214.150000", "160215.640000", "160217.130000", "160218.620000", "160220.110000", "160221.600000", "160223.090000", "160224.580000", "160226.070000", "160227.560000", "160229.050000", "160230.540000", "160232.030000", "160233.520000", "160235.010000", "160236.500000", "160237.990000", "160239.480000", "160240.970000", "160242.460000", "160243.950000", "160245.440000", "160246.930000", "160248.420000", "160249.910000", "160251.400000", "160252.890000", "160254.380000", "160255.870000", "160257.360000", "160258.850000", "160300.340000", "160301.830000", "160303.320000", "160304.810000", "160306.300000", "160307.790000", "160309.280000", "160310.770000", "160312.260000", "160313.750000", "160315.240000", "160316.730000", "160318.220000", "160319.710000", "160321.200000", "160322.690000", "160324.180000", "160325.670000", "160327.160000", "160328.650000", "160330.140000", "160331.630000", "160333.120000", "160334.610000", "160336.100000", "160337.590000", "160339.080000", "160340.570000", "160342.060000", "160343.550000", "160345.040000", "160346.530000", "160348.020000", "160349.510000", "160351.000000", "160352.490000", "160353.980000", "160355.470000", "160356.960000", "160358.450000", "160359.940000", "160401.430000", "160402.920000", "160404.410000", "160405.900000", "160407.390000", "160408.880000", "160410.370000", "160411.860000", "160413.350000", "160414.840000", "160416.330000", "160417.820000", "160419.310000", "160420.800000", "160422.290000", "160423.780000", "160425.270000", "160426.760000", "160428.250000", "160429.740000", "160431.230000", "160432.720000", "160434.210000", "160435.700000", "160437.190000", "160438.680000", "160440.170000", "160441.660000", "160443.150000", "160444.640000", "160446.130000", "160447.620000", "160449.110000", "160450.600000", "160452.090000", "160453.580000", "160455.070000", "160456.560000", "160458.050000", "160459.540000", "160501.030000", "160502.520000", "160504.010000", "160505.500000", "160506.990000", "160508.480000", "160509.970000", "160511.460000", "160512.950000", "160514.440000", "160515.930000", "160517.420000", "160518.910000", "160520.400000", "160521.890000", "160523.380000", "160524.870000", "160526.360000", "160527.850000", "160529.340000", "160530.830000", "160532.320000", "160533.810000", "160535.300000", "160536.790000", "160538.280000", "160539.770000", "160541.260000", "160542.750000", "160544.240000", "160545.730000", "160547.220000", "160548.710000", "160550.200000", "160551.690000", "160553.180000", "160554.670000", "160556.160000", "160557.650000", "160559.140000", "160600.630000", "160602.120000", "160603.610000", "160605.100000", "160606.590000", "160608.080000", "160609.570000", "160611.060000", "160612.550000", "160614.040000", "160615.530000", "160617.020000", "160618.510000", "160620.000000", "160621.490000", "160622.980000", "160624.470000", "160625.960000", "160627.450000", "160628.940000", "160630.430000", "160631.920000", "160633.410000", "160634.900000", "160636.390000", "160637.880000", "160639.370000", "160640.860000", "160642.350000", "160643.840000", "160645.330000", "160646.820000", "160648.310000", "160649.800000", "160651.290000", "160652.780000", "160654.270000", "160655.760000", "160657.250000", "160658.740000", "160700.230000", "160701.720000", "160703.210000", "160704.700000", "160706.190000", "160707.680000", "160709.170000", "160710.660000", "160712.150000", "160713.640000", "160715.130000", "160716.620000", "160718.110000", "160719.600000", "160721.090000", "160722.580000", "160724.070000", "160725.560000", "160727.050000", "160728.540000", "160730.030000", "160731.520000", "160733.010000", "160734.500000", "160735.990000", "160737.480000", "160738.970000", "160740.460000", "160741.950000", "160743.440000", "160744.930000", "160746.420000", "160747.910000", "160749.400000", "160750.890000", "160752.380000", "160753.870000", "160755.360000", "160756.850000", "160758.340000", "160759.830000", "160801.320000", "160802.810000", "160804.300000", "160805.790000", "160807.280000", "160808.770000", "160810.260000", "160811.750000", "160813.240000", "160814.730000", "160816.220000", "160817.710000", "160819.200000", "160820.690000", "160822.180000", "160823.670000", "160825.160000", "160826.650000", "160828.140000", "160829.630000", "160831.120000", "160832.610000", "160834.100000", "160835.590000", "160837.080000", "160838.570000", "160840.060000", "160841.550000", "160843.040000", "160844.530000", "160846.020000", "160847.510000", "160849.000000", "160850.490000", "160851.980000", "160853.470000", "160854.960000", "160856.450000", "160857.940000", "160859.430000", "160900.920000", "160902.410000", "160903.900000", "160905.390000", "160906.880000", "160908.370000", "160909.860000", "160911.350000", "160912.840000", "160914.330000", "160915.820000", "160917.310000", "160918.800000", "160920.290000", "160921.780000", "160923.270000", "160924.760000", "160926.250000", "160927.740000", "160929.230000", "160930.720000", "160932.210000", "160933.700000", "160935.190000", "160936.680000", "160938.170000", "160939.660000", "160941.150000", "160942.640000", "160944.130000", "160945.620000", "160947.110000", "160948.600000", "160950.090000", "160951.580000", "160953.070000", "160954.560000", "160956.050000", "160957.540000", "160959.030000", "161000.520000", "161002.010000", "161003.500000", "161004.990000", "161006.480000", "161007.970000", "161009.460000", "161010.950000", "161012.440000", "161013.930000", "161015.420000", "161016.910000", "161018.400000", "161019.890000", "161021.380000", "161022.870000", "161024.360000", "161025.850000", "161027.340000", "161028.830000", "161030.320000", "161031.810000", "161033.300000", "161034.790000", "161036.280000", "161037.770000", "161039.260000", "161040.750000", "161042.240000", "161043.730000", "161045.220000", "161046.710000", "161048.200000", "161049.690000", "161051.180000", "161052.670000", "161054.160000", "161055.650000", "161057.140000", "161058.630000", "161100.120000", "161101.610000", "161103.100000", "161104.590000", "161106.080000", "161107.570000", "161109.060000", "161110.550000", "161112.040000", "161113.530000", "161115.020000", "161116.510000", "161118.000000", "161119.490000", "161120.980000", "161122.470000", "161123.960000", "161125.450000", "161126.940000", "161128.430000", "161129.920000", "161131.410000", "161132.900000", "161134.390000", "161135.880000", "161137.370000", "161138.860000", "161140.350000", "161141.840000", "161143.330000", "161144.820000", "161146.310000", "161147.800000", "161149.290000", "161150.780000", "161152.270000", "161153.760000", "161155.250000", "161156.740000", "161158.230000", "161159.720000", "161201.210000", "161202.700000", "161204.190000", "161205.680000", "161207.170000", "161208.660000", "161210.150000", "161211.640000", "161213.130000", "161214.620000", "161216.110000", "161217.600000", "161219.090000", "161220.580000", "161222.070000", "161223.560000", "161225.050000", "161226.540000", "161228.030000", "161229.520000", "161231.010000", "161232.500000", "161233.990000", "161235.480000", "161236.970000", "161238.460000", "161239.950000", "161241.440000", "161242.930000", "161244.420000", "161245.910000"],
      "ContentTime": ["160257.075000", "160257.079000", "160257.082000", "160257.085000", "160257.089000", "160257.092000", "160257.096000", "160257.099000", "160257.102000", "160257.106000", "160257.109000", "160257.113000", "160257.116000", "160257.119000", "160257.123000", "160257.126000", "160257.130000", "160257.133000", "160257.136000", "160257.140000", "160257.143000", "160257.147000", "160257.150000", "160257.153000", "160257.157000", "160257.160000", "160257.164000", "160257.167000", "160257.170000", "160257.174000", "160257.177000", "160257.181000", "160257.184000", "160317.037000", "160317.041000", "160317.044000", "160317.048000", "160317.051000", "160317.055000", "160317.058000", "160317.061000", "160317.065000", "160317.068000", "160317.071000", "160317.075000", "160317.078000", "160317.082000", "160317.085000", "160317.089000", "160317.092000", "160317.096000", "160317.099000", "160317.102000", "160337.037000", "160337.041000", "160337.044000", "160337.048000", "160337.051000", "160337.055000", "160337.058000", "160337.061000", "160337.065000", "160337.068000", "160337.071000", "160337.075000", "160337.078000", "160337.082000", "160337.085000", "160337.089000", "160337.092000", "160337.096000", "160337.099000", "160337.103000", "160357.037000", "160357.041000", "160357.044000", "160357.048000", "160357.051000", "160357.055000", "160357.058000", "160357.061000", "160357.065000", "160357.068000", "160357.071000", "160357.075000", "160357.078000", "160357.082000", "160357.085000", "160357.088000", "160357.092000", "160357.095000", "160357.099000", "160357.102000", "160437.038000", "160437.042000", "160437.045000", "160437.049000", "160437.052000", "160437.056000", "160437.059000", "160437.063000", "160437.066000", "160437.069000", "160437.073000", "160437.076000", "160437.080000", "160437.083000", "160437.086000", "160437.090000", "160437.093000", "160437.097000", "160437.100000", "160437.104000", "160437.108000", "160437.112000", "160437.115000", "160437.118000", "160437.122000", "160437.125000", "160437.129000", "160437.132000", "160437.136000", "160437.139000", "160437.142000", "160517.037000", "160517.041000", "160517.044000", "160517.048000", "160517.051000", "160517.055000", "160517.058000", "160517.062000", "160517.065000", "160517.068000", "160517.072000", "160517.075000", "160517.079000", "160517.094000", "160517.097000", "160517.101000", "160517.104000", "160517.107000", "160517.111000", "160517.114000", "160517.117000", "160517.121000", "160517.124000", "160517.128000", "160517.131000", "160517.141000", "160517.144000", "160537.037000", "160537.041000", "160537.045000", "160537.048000", "160537.051000", "160537.055000", "160537.058000", "160537.062000", "160537.065000", "160537.068000", "160537.072000", "160537.075000", "160537.079000", "160617.037000", "160617.041000", "160617.044000", "160617.048000", "160617.051000", "160617.055000", "160617.058000", "160617.061000", "160617.065000", "160617.068000", "160617.072000", "160617.077000", "160617.081000", "160617.084000", "160617.087000", "160617.091000", "160617.094000", "160617.098000", "160617.101000", "160617.104000", "160617.108000", "160617.111000", "160617.115000", "160617.118000", "160617.121000", "160617.125000", "160617.128000", "160657.038000", "160657.042000", "160657.046000", "160657.049000", "160657.052000", "160657.056000", "160657.059000", "160657.063000", "160657.066000", "160657.069000", "160657.073000", "160657.076000", "160657.080000", "160657.083000", "160657.087000", "160657.090000", "160657.093000", "160657.097000", "160657.100000", "160657.104000", "160657.107000", "160657.111000", "160657.114000", "160657.117000", "160657.121000", "160657.124000", "160657.128000", "160737.037000", "160737.041000", "160737.045000", "160737.048000", "160737.051000", "160737.055000", "160737.058000", "160737.062000", "160737.065000", "160737.081000", "160737.084000", "160737.087000", "160737.091000", "160737.094000", "160737.098000", "160737.101000", "160737.104000", "160737.108000", "160737.111000", "160737.115000", "160737.118000", "160737.121000", "160737.125000", "160737.128000", "160737.132000", "160737.135000", "160737.139000", "160817.037000", "160817.041000", "160817.045000", "160817.048000", "160817.051000", "160817.055000", "160817.058000", "160817.062000", "160817.065000", "160817.068000", "160817.072000", "160817.075000", "160817.079000", "160817.082000", "160817.086000", "160817.089000", "160817.092000", "160817.096000", "160817.099000", "160817.103000", "160817.106000", "160817.109000", "160817.113000", "160817.116000", "160817.120000", "160817.123000", "160817.127000", "160857.037000", "160857.041000", "160857.045000", "160857.048000", "160857.051000", "160857.055000", "160857.058000", "160857.062000", "160857.065000", "160857.069000", "160857.072000", "160857.075000", "160857.079000", "160857.082000", "160857.091000", "160857.095000", "160857.098000", "160857.102000", "160857.105000", "160857.109000", "160857.112000", "160857.115000", "160857.119000", "160857.122000", "160857.126000", "160857.129000", "160857.132000", "160937.038000", "160937.042000", "160937.046000", "160937.049000", "160937.053000", "160937.056000", "160937.059000", "160937.063000", "160937.066000", "160937.070000", "160937.073000", "160937.093000", "160937.096000", "160937.100000", "160937.104000", "160937.109000", "160937.113000", "160937.117000", "160937.121000", "160937.125000", "160937.128000", "160937.131000", "160937.135000", "160937.138000", "160937.142000", "160937.145000", "161017.037000", "161017.041000", "161017.045000", "161017.048000", "161017.051000", "161017.055000", "161017.058000", "161017.062000", "161017.065000", "161017.068000", "161017.072000", "161017.075000", "161017.079000", "161017.082000", "161017.085000", "161017.089000", "161017.092000", "161017.096000", "161017.099000", "161017.102000", "161017.106000", "161017.109000", "161017.113000", "161017.116000", "161017.119000", "161017.123000", "161017.126000", "161057.038000", "161057.041000", "161057.045000", "161057.048000", "161057.051000", "161057.055000", "161057.058000", "161057.062000", "161057.065000", "161057.069000", "161057.072000", "161057.076000", "161057.079000", "161057.082000", "161057.086000", "161057.089000", "161057.093000", "161057.096000", "161057.099000", "161057.103000", "161057.108000", "161057.111000", "161057.115000", "161057.118000", "161057.121000", "161057.125000", "161057.128000", "161137.038000", "161137.042000", "161137.046000", "161137.049000", "161137.052000", "161137.056000", "161137.059000", "161137.063000", "161137.066000", "161137.070000", "161137.073000", "161137.076000", "161137.080000", "161137.084000", "161137.087000", "161137.091000", "161137.094000", "161137.097000", "161137.101000", "161137.104000", "161137.108000", "161137.111000", "161137.115000", "161137.118000", "161137.121000", "161137.125000", "161137.128000", "161217.037000", "161217.041000", "161217.045000", "161217.058000", "161217.061000", "161217.065000", "161217.068000", "161217.071000", "161217.075000", "161217.078000", "161217.082000", "161217.085000", "161217.089000", "161217.092000", "161217.095000", "161217.099000", "161217.102000", "161217.105000", "161217.109000", "161217.112000", "161217.116000", "161217.119000", "161217.122000", "161217.126000", "161217.129000", "161217.133000", "161217.136000", "161248.635000", "161248.638000", "161248.642000", "161248.652000", "161248.655000", "161248.658000", "161248.662000", "161248.665000", "161248.669000", "161248.672000", "161248.676000", "161248.679000", "161248.682000", "161248.686000", "161248.689000", "161248.692000", "161248.696000", "161248.699000", "161248.703000", "161248.706000", "161248.710000"],
