{
  "AcquisitionMatrixPE": 104,
  "AcquisitionNumber": 1,
  "AcquisitionTime": "11:52:41.192500",
  "BandwidthPerPixelPhaseEncode": 17.17,
  "BaseResolution": 104,
  "BodyPartExamined": "BRAIN",
  "CoilString": "HC1-7;NC1_2",
  "ConsistencyInfo": "N4_VE11C_LATEST_20160120",
  "ConversionSoftware": "dcm2niix",
  "ConversionSoftwareVersion": "v1.0.20190902",
  "DerivedVendorReportedEchoSpacing": 0.000560011,
  "DeviceSerialNumber": "167006",
  "DwellTime": 2.1e-06,
  "EchoTime": 0.037,
  "EchoTrainLength": 104,
  "EffectiveEchoSpacing": 0.000560011,
  "FlipAngle": 52,
  "HeudiconvVersion": "0.10.0",
  "ImageComments": "Unaliased_MB4_PE3_LB",
  "ImageOrientationPatientDICOM": [0.999234, 0.0245156, 0.0305022, -0.00959223, 0.90911, -0.416447],
  "ImageType": [
    "ORIGINAL",
    "PRIMARY",
    "P",
    "MB",
    "ND",
    "MOSAIC"
],
  "ImagingFrequency": 123.259,
  "InPlanePhaseEncodingDirectionDICOM": "COL",
  "InstitutionAddress": "Chemin_Queen-Mary_4565_Montreal_District_CA_H3W_1W5",
  "InstitutionName": "IUGM",
  "InstitutionalDepartmentName": "Department",
  "MRAcquisitionType": "2D",
  "MagneticFieldStrength": 3,
  "Manufacturer": "Siemens",
  "ManufacturersModelName": "Prisma_fit",
  "Modality": "MR",
  "MultibandAccelerationFactor": 4,
  "PartialFourier": 1,
  "PatientPosition": "HFS",
  "PercentPhaseFOV": 100,
  "PhaseEncodingDirection": "j",
  "PhaseEncodingSteps": 104,
  "PhaseResolution": 1,
  "PixelBandwidth": 2290,
  "ProcedureStepDescription": "games_mario",
  "ProtocolName": "func_task-mario_run-04",
  "PulseSequenceDetails": "%CustomerSeq%_cmrr_mbep2d_bold",
  "ReceiveCoilActiveElements": "HC1-7;NC1,2",
  "ReceiveCoilName": "HeadNeck_64",
  "ReconMatrixPE": 104,
  "RepetitionTime": 1.49,
  "SAR": 0.0666961,
  "ScanOptions": "FS",
  "ScanningSequence": "EP",
  "SequenceName": "epfid2d1_104",
  "SequenceVariant": "SK_SS",
  "SeriesDescription": "func_task-mario_run-04",
  "SeriesNumber": 20,
  "ShimSetting": [630, -7156, -8859, 569, 85, 137, -29, -1],
  "SliceThickness": 2,
  "SliceTiming": [0, 0.785, 0.0975, 0.8825, 0.195, 0.98, 0.295, 1.0775, 0.3925, 1.175, 0.49, 1.275, 0.5875, 1.3725, 0.685, 0, 0.785, 0.0975, 0.8825, 0.195, 0.98, 0.295, 1.0775, 0.3925, 1.175, 0.49, 1.275, 0.5875, 1.3725, 0.685, 0, 0.785, 0.0975, 0.8825, 0.195, 0.98, 0.295, 1.0775, 0.3925, 1.175, 0.49, 1.275, 0.5875, 1.3725, 0.685, 0, 0.785, 0.0975, 0.8825, 0.195, 0.98, 0.295, 1.0775, 0.3925, 1.175, 0.49, 1.275, 0.5875, 1.3725, 0.685],
  "SoftwareVersions": "syngo_MR_E11",
  "SpacingBetweenSlices": 2,
  "StationName": "MRC35049",
  "TaskName": "mario",
  "TotalReadoutTime": 0.0576811,
  "TxRefAmp": 312.859,
  "WipMemBlock": "773cf2a0-f7ea-40d1-b40b-8bc8a9732a40||Sequence: R016 ve11c/master r/e634e98; Dec 19 2017 11:00:25 by eja",
  "dcmmeta_affine": [
    [-1.998468041419983, -0.019184459000825882, 0.0758785605430603, 106.32184600830078],
    [-0.049031294882297516, 1.8182191848754883, -0.8316699862480164, -53.595394134521484],
    [0.06100435554981232, 0.8328931927680969, 1.8172967433929443, -74.7378158569336],
    [0.0, 0.0, 0.0, 1.0]
],
  "dcmmeta_reorient_transform": [
    [0.0, -1.0, 0.0, 103.0],
    [1.0, 0.0, 0.0, 0.0],
    [0.0, 0.0, 1.0, 0.0],
    [0.0, 0.0, 0.0, 1.0]
],
  "dcmmeta_shape": [104, 104, 60, 452],
  "dcmmeta_slice_dim": 2,
  "dcmmeta_version": 0.6,
  "global": {
    "const": {
      "AcquisitionMatrix": [104, 0, 0, 104],
      "AngioFlag": "N",
      "BitsAllocated": 16,
      "BitsStored": 16,
      "BodyPartExamined": "BRAIN",
      "Columns": 832,
      "EchoNumbers": 1,
      "EchoTime": 37.0,
      "EchoTrainLength": 104,
      "FlipAngle": 52.0,
      "HighBit": 15,
      "ImageOrientationPatient": [0.99923400673003, 0.02451564756669, 0.03050217727715, -0.0095922299258, 0.90910957927351, -0.4164465896105],
      "ImagePositionPatient": [-824.80505746134, -813.36034476742, 292.01771547782],
      "ImageType": [
        "ORIGINAL",
        "PRIMARY",
        "P",
        "MB",
        "ND",
        "MOSAIC"
],
      "ImagedNucleus": "1H",
      "ImagingFrequency": 123.258945,
      "InPlanePhaseEncodingDirection": "COL",
      "LargestImagePixelValue": 4095,
      "MRAcquisitionType": "2D",
      "MagneticFieldStrength": 3.0,
      "Manufacturer": "SIEMENS",
      "ManufacturerModelName": "Prisma_fit",
      "Modality": "MR",
      "NumberOfAverages": 1.0,
      "NumberOfPhaseEncodingSteps": 104,
      "PercentPhaseFieldOfView": 100.0,
      "PercentSampling": 100.0,
      "PerformedProcedureStepStartTime": "103329.064000",
      "PhotometricInterpretation": "MONOCHROME2",
      "PixelBandwidth": 2290.0,
      "PixelRepresentation": 0,
      "PixelSpacing": [2.0, 2.0],
      "ProtocolName": "func_task-mario_run-04",
      "RepetitionTime": 1490.0,
      "RescaleIntercept": -4096.0,
      "RescaleSlope": 2.0,
      "RescaleType": "US",
      "Rows": 832,
      "SAR": 0.06669614822407,
      "SamplesPerPixel": 1,
      "ScanOptions": "FS",
      "ScanningSequence": "EP",
      "SequenceName": "epfid2d1_104",
      "SequenceVariant": [
        "SK",
        "SS"
],
      "SeriesDescription": "func_task-mario_run-04",
      "SeriesNumber": 20,
      "SeriesTime": "115347.686000",
      "SliceLocation": -41.589777587753,
      "SliceThickness": 2.0,
      "SmallestImagePixelValue": 0,
      "SoftwareVersions": "syngo MR E11",
      "SpacingBetweenSlices": 1.9999999793726,
      "SpecificCharacterSet": "ISO_IR 100",
      "StudyID": "1",
      "StudyTime": "103328.991000",
      "TransmitCoilName": "Body",
      "VariableFlipAngleFlag": "N",
      "WindowCenterWidthExplanation": "Algo1",
      "dBdt": 0.0},
    "slices": {}
  },
  "time": {
    "samples": {
      "AcquisitionNumber": [1, 2, 3, 4, 5, 6, 7, 8, 9, 10, 11, 12, 13, 14, 15, 16, 17, 18, 19, 20, 21, 22, 23, 24, 25, 26, 27, 28, 29, 30, 31, 32, 33, 34, 35, 36, 37, 38, 39, 40, 41, 42, 43, 44, 45, 46, 47, 48, 49, 50, 51, 52, 53, 54, 55, 56, 57, 58, 59, 60, 61, 62, 63, 64, 65, 66, 67, 68, 69, 70, 71, 72, 73, 74, 75, 76, 77, 78, 79, 80, 81, 82, 83, 84, 85, 86, 87, 88, 89, 90, 91, 92, 93, 94, 95, 96, 97, 98, 99, 100, 101, 102, 103, 104, 105, 106, 107, 108, 109, 110, 111, 112, 113, 114, 115, 116, 117, 118, 119, 120, 121, 122, 123, 124, 125, 126, 127, 128, 129, 130, 131, 132, 133, 134, 135, 136, 137, 138, 139, 140, 141, 142, 143, 144, 145, 146, 147, 148, 149, 150, 151, 152, 153, 154, 155, 156, 157, 158, 159, 160, 161, 162, 163, 164, 165, 166, 167, 168, 169, 170, 171, 172, 173, 174, 175, 176, 177, 178, 179, 180, 181, 182, 183, 184, 185, 186, 187, 188, 189, 190, 191, 192, 193, 194, 195, 196, 197, 198, 199, 200, 201, 202, 203, 204, 205, 206, 207, 208, 209, 210, 211, 212, 213, 214, 215, 216, 217, 218, 219, 220, 221, 222, 223, 224, 225, 226, 227, 228, 229, 230, 231, 232, 233, 234, 235, 236, 237, 238, 239, 240, 241, 242, 243, 244, 245, 246, 247, 248, 249, 250, 251, 252, 253, 254, 255, 256, 257, 258, 259, 260, 261, 262, 263, 264, 265, 266, 267, 268, 269, 270, 271, 272, 273, 274, 275, 276, 277, 278, 279, 280, 281, 282, 283, 284, 285, 286, 287, 288, 289, 290, 291, 292, 293, 294, 295, 296, 297, 298, 299, 300, 301, 302, 303, 304, 305, 306, 307, 308, 309, 310, 311, 312, 313, 314, 315, 316, 317, 318, 319, 320, 321, 322, 323, 324, 325, 326, 327, 328, 329, 330, 331, 332, 333, 334, 335, 336, 337, 338, 339, 340, 341, 342, 343, 344, 345, 346, 347, 348, 349, 350, 351, 352, 353, 354, 355, 356, 357, 358, 359, 360, 361, 362, 363, 364, 365, 366, 367, 368, 369, 370, 371, 372, 373, 374, 375, 376, 377, 378, 379, 380, 381, 382, 383, 384, 385, 386, 387, 388, 389, 390, 391, 392, 393, 394, 395, 396, 397, 398, 399, 400, 401, 402, 403, 404, 405, 406, 407, 408, 409, 410, 411, 412, 413, 414, 415, 416, 417, 418, 419, 420, 421, 422, 423, 424, 425, 426, 427, 428, 429, 430, 431, 432, 433, 434, 435, 436, 437, 438, 439, 440, 441, 442, 443, 444, 445, 446, 447, 448, 449, 450, 451, 452],
      "AcquisitionTime": ["115241.192500", "115242.682500", "115244.172500", "115245.662500", "115247.152500", "115248.642500", "115250.132500", "115251.622500", "115253.112500", "115254.602500", "115256.092500", "115257.582500", "115259.072500", "115300.562500", "115302.052500", "115303.542500", "115305.032500", "115306.522500", "115308.012500", "115309.502500", "115310.992500", "115312.482500", "115313.972500", "115315.462500", "115316.952500", "115318.442500", "115319.932500", "115321.422500", "115322.912500", "115324.402500", "115325.892500", "115327.382500", "115328.872500", "115330.362500", "115331.852500", "115333.342500", "115334.832500", "115336.322500", "115337.812500", "115339.302500", "115340.792500", "115342.282500", "115343.772500", "115345.262500", "115346.752500", "115348.242500", "115349.732500", "115351.222500", "115352.712500", "115354.202500", "115355.692500", "115357.182500", "115358.672500", "115400.162500", "115401.652500", "115403.142500", "115404.632500", "115406.122500", "115407.612500", "115409.102500", "115410.592500", "115412.082500", "115413.572500", "115415.062500", "115416.552500", "115418.042500", "115419.532500", "115421.022500", "115422.512500", "115424.002500", "115425.492500", "115426.982500", "115428.472500", "115429.962500", "115431.452500", "115432.942500", "115434.432500", "115435.922500", "115437.412500", "115438.902500", "115440.392500", "115441.882500", "115443.372500", "115444.862500", "115446.352500", "115447.842500", "115449.332500", "115450.822500", "115452.312500", "115453.802500", "115455.292500", "115456.782500", "115458.272500", "115459.762500", "115501.252500", "115502.742500", "115504.232500", "115505.722500", "115507.212500", "115508.702500", "115510.192500", "115511.682500", "115513.172500", "115514.662500", "115516.152500", "115517.642500", "115519.132500", "115520.622500", "115522.112500", "115523.602500", "115525.092500", "115526.582500", "115528.072500", "115529.562500", "115531.052500", "115532.542500", "115534.032500", "115535.522500", "115537.012500", "115538.502500", "115539.992500", "115541.482500", "115542.972500", "115544.462500", "115545.952500", "115547.442500", "115548.932500", "115550.422500", "115551.912500", "115553.402500", "115554.892500", "115556.382500", "115557.872500", "115559.362500", "115600.852500", "115602.342500", "115603.832500", "115605.322500", "115606.812500", "115608.302500", "115609.792500", "115611.282500", "115612.772500", "115614.262500", "115615.752500", "115617.242500", "115618.732500", "115620.222500", "115621.712500", "115623.202500", "115624.692500", "115626.182500", "115627.672500", "115629.162500", "115630.652500", "115632.142500", "115633.632500", "115635.122500", "115636.612500", "115638.102500", "115639.592500", "115641.082500", "115642.572500", "115644.062500", "115645.552500", "115647.042500", "115648.532500", "115650.022500", "115651.512500", "115653.002500", "115654.492500", "115655.982500", "115657.472500", "115658.962500", "115700.452500", "115701.942500", "115703.432500", "115704.922500", "115706.412500", "115707.902500", "115709.392500", "115710.882500", "115712.372500", "115713.862500", "115715.352500", "115716.842500", "115718.332500", "115719.822500", "115721.312500", "115722.802500", "115724.292500", "115725.782500", "115727.272500", "115728.762500", "115730.252500", "115731.742500", "115733.232500", "115734.722500", "115736.212500", "115737.702500", "115739.192500", "115740.682500", "115742.172500", "115743.662500", "115745.152500", "115746.642500", "115748.132500", "115749.622500", "115751.112500", "115752.602500", "115754.092500", "115755.582500", "115757.072500", "115758.562500", "115800.052500", "115801.542500", "115803.032500", "115804.522500", "115806.012500", "115807.502500", "115808.992500", "115810.482500", "115811.972500", "115813.462500", "115814.952500", "115816.442500", "115817.932500", "115819.422500", "115820.912500", "115822.402500", "115823.892500", "115825.382500", "115826.872500", "115828.362500", "115829.852500", "115831.342500", "115832.832500", "115834.322500", "115835.812500", "115837.302500", "115838.792500", "115840.282500", "115841.772500", "115843.262500", "115844.752500", "115846.242500", "115847.732500", "115849.222500", "115850.712500", "115852.202500", "115853.692500", "115855.182500", "115856.672500", "115858.162500", "115859.652500", "115901.142500", "115902.632500", "115904.122500", "115905.612500", "115907.102500", "115908.592500", "115910.082500", "115911.572500", "115913.062500", "115914.552500", "115916.042500", "115917.532500", "115919.022500", "115920.512500", "115922.002500", "115923.492500", "115924.982500", "115926.472500", "115927.962500", "115929.452500", "115930.942500", "115932.432500", "115933.922500", "115935.412500", "115936.902500", "115938.392500", "115939.882500", "115941.372500", "115942.862500", "115944.352500", "115945.842500", "115947.332500", "115948.822500", "115950.312500", "115951.802500", "115953.292500", "115954.782500", "115956.272500", "115957.762500", "115959.252500", "120000.742500", "120002.232500", "120003.722500", "120005.212500", "120006.702500", "120008.192500", "120009.682500", "120011.172500", "120012.662500", "120014.152500", "120015.642500", "120017.132500", "120018.622500", "120020.112500", "120021.602500", "120023.092500", "120024.582500", "120026.072500", "120027.562500", "120029.052500", "120030.542500", "120032.032500", "120033.522500", "120035.012500", "120036.502500", "120037.992500", "120039.482500", "120040.972500", "120042.462500", "120043.952500", "120045.442500", "120046.932500", "120048.422500", "120049.912500", "120051.402500", "120052.892500", "120054.382500", "120055.872500", "120057.362500", "120058.852500", "120100.342500", "120101.832500", "120103.322500", "120104.812500", "120106.302500", "120107.792500", "120109.282500", "120110.772500", "120112.262500", "120113.752500", "120115.242500", "120116.732500", "120118.222500", "120119.712500", "120121.202500", "120122.692500", "120124.182500", "120125.672500", "120127.162500", "120128.652500", "120130.142500", "120131.632500", "120133.122500", "120134.612500", "120136.102500", "120137.592500", "120139.082500", "120140.572500", "120142.062500", "120143.552500", "120145.042500", "120146.532500", "120148.022500", "120149.512500", "120151.002500", "120152.492500", "120153.982500", "120155.472500", "120156.962500", "120158.452500", "120159.942500", "120201.432500", "120202.922500", "120204.412500", "120205.902500", "120207.392500", "120208.882500", "120210.372500", "120211.862500", "120213.352500", "120214.842500", "120216.332500", "120217.822500", "120219.312500", "120220.802500", "120222.292500", "120223.782500", "120225.272500", "120226.762500", "120228.252500", "120229.742500", "120231.232500", "120232.722500", "120234.212500", "120235.702500", "120237.192500", "120238.682500", "120240.172500", "120241.662500", "120243.152500", "120244.642500", "120246.132500", "120247.622500", "120249.112500", "120250.602500", "120252.092500", "120253.582500", "120255.072500", "120256.562500", "120258.052500", "120259.542500", "120301.032500", "120302.522500", "120304.012500", "120305.502500", "120306.992500", "120308.482500", "120309.972500", "120311.462500", "120312.952500", "120314.442500", "120315.932500", "120317.422500", "120318.912500", "120320.402500", "120321.892500", "120323.382500", "120324.872500", "120326.362500", "120327.852500", "120329.342500", "120330.832500", "120332.322500", "120333.812500", "120335.302500", "120336.792500", "120338.282500", "120339.772500", "120341.262500", "120342.752500", "120344.242500", "120345.732500", "120347.222500", "120348.712500", "120350.202500", "120351.692500", "120353.182500"],
      "ContentTime": ["115347.688000", "115347.691000", "115347.694000", "115347.697000", "115347.700000", "115347.703000", "115347.705000", "115347.708000", "115347.710000", "115347.713000", "115347.715000", "115408.146000", "115408.149000", "115408.151000", "115408.154000", "115408.156000", "115408.159000", "115408.161000", "115408.164000", "115408.166000", "115408.169000", "115408.181000", "115408.183000", "115408.186000", "115408.188000", "115408.191000", "115408.193000", "115408.196000", "115408.199000", "115408.202000", "115408.205000", "115408.207000", "115427.655000", "115427.658000", "115427.660000", "115427.663000", "115427.665000", "115427.668000", "115427.671000", "115427.673000", "115427.676000", "115427.678000", "115427.681000", "115427.683000", "115427.686000", "115427.688000", "115427.691000", "115427.694000", "115427.696000", "115427.699000", "115427.701000", "115427.704000", "115447.659000", "115447.662000", "115447.664000", "115447.667000", "115447.669000", "115447.672000", "115447.675000", "115447.677000", "115447.680000", "115447.682000", "115447.685000", "115447.687000", "115447.690000", "115447.692000", "115447.695000", "115447.697000", "115447.700000", "115447.702000", "115447.705000", "115447.707000", "115507.668000", "115507.671000", "115507.673000", "115507.676000", "115507.678000", "115507.681000", "115507.683000", "115507.686000", "115507.688000", "115507.691000", "115507.693000", "115507.696000", "115507.699000", "115507.701000", "115507.704000", "115507.706000", "115507.709000", "115507.711000", "115507.713000", "115507.716000", "115547.728000", "115547.731000", "115547.733000", "115547.736000", "115547.738000", "115547.741000", "115547.743000", "115547.746000", "115547.748000", "115547.751000", "115547.753000", "115547.756000", "115547.758000", "115547.761000", "115547.763000", "115547.766000", "115547.773000", "115547.775000", "115547.778000", "115547.780000", "115547.783000", "115547.786000", "115547.788000", "115547.791000", "115547.793000", "115547.796000", "115547.798000", "115547.801000", "115547.803000", "115547.805000", "115547.808000", "115547.811000", "115627.691000", "115627.694000", "115627.696000", "115627.699000", "115627.701000", "115627.704000", "115627.706000", "115627.709000", "115627.712000", "115627.714000", "115627.717000", "115627.719000", "115627.722000", "115627.724000", "115627.727000", "115627.729000", "115627.732000", "115627.734000", "115627.737000", "115627.740000", "115627.750000", "115627.752000", "115627.755000", "115627.757000", "115627.760000", "115627.762000", "115627.765000", "115707.686000", "115707.689000", "115707.692000", "115707.694000", "115707.697000", "115707.699000", "115707.702000", "115707.705000", "115707.707000", "115707.710000", "115707.712000", "115707.715000", "115707.717000", "115707.720000", "115707.722000", "115707.725000", "115707.727000", "115707.730000", "115707.732000", "115707.735000", "115707.737000", "115707.740000", "115707.742000", "115707.745000", "115707.747000", "115707.750000", "115707.752000", "115747.695000", "115747.698000", "115747.700000", "115747.703000", "115747.705000", "115747.708000", "115747.710000", "115747.713000", "115747.716000", "115747.718000", "115747.721000", "115747.723000", "115747.726000", "115747.728000", "115747.731000", "115747.737000", "115747.739000", "115747.742000", "115747.744000", "115747.747000", "115747.750000", "115747.752000", "115747.755000", "115747.757000", "115747.760000", "115747.762000", "115747.765000", "115827.686000", "115827.689000", "115827.691000", "115827.694000", "115827.696000", "115827.699000", "115827.701000", "115827.704000", "115827.706000", "115827.709000", "115827.711000", "115827.714000", "115827.717000", "115827.719000", "115827.722000", "115827.724000", "115827.727000", "115827.729000", "115827.732000", "115827.734000", "115827.737000", "115827.739000", "115827.742000", "115827.744000", "115827.747000", "115827.750000", "115827.752000", "115907.688000", "115907.691000", "115907.693000", "115907.696000", "115907.698000", "115907.701000", "115907.703000", "115907.706000", "115907.708000", "115907.711000", "115907.713000", "115907.716000", "115907.718000", "115907.721000", "115907.724000", "115907.726000", "115907.729000", "115907.731000", "115907.734000", "115907.736000", "115907.739000", "115907.741000", "115907.744000", "115907.746000", "115907.749000", "115907.752000", "115907.754000", "115947.701000", "115947.704000", "115947.707000", "115947.709000", "115947.712000", "115947.715000", "115947.718000", "115947.721000", "115947.723000", "115947.726000", "115947.728000", "115947.731000", "115947.733000", "115947.736000", "115947.738000", "115947.741000", "115947.744000", "115947.746000", "115947.749000", "115947.751000", "115947.754000", "115947.756000", "115947.759000", "115947.761000", "115947.764000", "115947.766000", "115947.769000", "120027.692000", "120027.695000", "120027.698000", "120027.701000", "120027.705000", "120027.708000", "120027.711000", "120027.714000", "120027.717000", "120027.719000", "120027.722000", "120027.725000", "120027.727000", "120027.730000", "120027.732000", "120027.735000", "120027.737000", "120027.740000", "120027.742000", "120027.745000", "120027.747000", "120027.750000", "120027.753000", "120027.755000", "120027.758000", "120027.760000", "120107.695000", "120107.698000", "120107.700000", "120107.703000", "120107.706000", "120107.708000", "120107.711000", "120107.713000", "120107.716000", "120107.718000", "120107.721000", "120107.723000", "120107.726000", "120107.728000", "120107.731000", "120107.734000", "120107.736000", "120107.739000", "120107.741000", "120107.744000", "120107.746000", "120107.749000", "120107.751000", "120107.754000", "120107.756000", "120107.759000", "120107.762000", "120147.703000", "120147.706000", "120147.709000", "120147.711000", "120147.714000", "120147.716000", "120147.719000", "120147.722000", "120147.724000", "120147.727000", "120147.729000", "120147.732000", "120147.734000", "120147.737000", "120147.739000", "120147.742000", "120147.744000", "120147.747000", "120147.749000", "120147.753000", "120147.755000", "120147.758000", "120147.761000", "120147.764000", "120147.766000", "120147.769000", "120147.772000", "120227.705000", "120227.707000", "120227.710000", "120227.713000", "120227.715000", "120227.718000", "120227.720000", "120227.723000", "120227.726000", "120227.728000", "120227.731000", "120227.733000", "120227.736000", "120227.738000", "120227.741000", "120227.743000", "120227.746000", "120227.749000", "120227.751000", "120227.754000", "120227.756000", "120227.759000", "120227.761000", "120227.764000", "120227.767000", "120227.821000", "120227.824000", "120307.708000", "120307.711000", "120307.713000", "120307.716000", "120307.719000", "120307.721000", "120307.724000", "120307.726000", "120307.729000", "120307.732000", "120307.734000", "120307.737000", "120307.739000", "120307.742000", "120307.744000", "120307.747000", "120307.749000", "120307.752000", "120307.755000", "120307.757000", "120307.760000", "120307.762000", "120307.765000", "120307.768000", "120307.770000", "120307.773000", "120307.838000", "120347.711000", "120347.714000", "120347.716000", "120347.719000", "120347.721000", "120347.724000", "120347.727000", "120347.729000", "120347.732000", "120347.734000", "120347.737000", "120347.739000", "120347.742000", "120347.744000", "120347.747000", "120347.750000", "120347.752000", "120347.755000", "120347.757000", "120347.760000", "120347.762000", "120347.765000", "120347.768000", "120347.857000", "120347.860000", "120347.862000", "120347.865000", "120356.222000", "120356.225000", "120356.227000", "120356.230000", "120356.233000"],
