{
  "AcquisitionMatrixPE": 104,
  "AcquisitionNumber": 1,
  "AcquisitionTime": "11:21:8.677500",
  "BandwidthPerPixelPhaseEncode": 17.17,
  "BaseResolution": 104,
  "BodyPartExamined": "BRAIN",
  "CoilString": "HC1-7;NC1_2",
  "ConsistencyInfo": "N4_VE11C_LATEST_20160120",
  "ConversionSoftware": "dcm2niix",
  "ConversionSoftwareVersion": "v1.0.20190902",
  "DerivedVendorReportedEchoSpacing": 0.000560011,
  "DeviceSerialNumber": "167006",
  "DwellTime": 2.1e-06,
  "EchoTime": 0.037,
  "EchoTrainLength": 104,
  "EffectiveEchoSpacing": 0.000560011,
  "FlipAngle": 52,
  "HeudiconvVersion": "0.10.0",
  "ImageComments": "Unaliased_MB4_PE3_LB",
  "ImageOrientationPatientDICOM": [0.999234, 0.0245156, 0.0305022, -0.00959223, 0.90911, -0.416447],
  "ImageType": [
    "ORIGINAL",
    "PRIMARY",
    "P",
    "MB",
    "ND",
    "MOSAIC"
],
  "ImagingFrequency": 123.259,
  "InPlanePhaseEncodingDirectionDICOM": "COL",
  "InstitutionAddress": "Chemin_Queen-Mary_4565_Montreal_District_CA_H3W_1W5",
  "InstitutionName": "IUGM",
  "InstitutionalDepartmentName": "Department",
  "MRAcquisitionType": "2D",
  "MagneticFieldStrength": 3,
  "Manufacturer": "Siemens",
  "ManufacturersModelName": "Prisma_fit",
  "Modality": "MR",
  "MultibandAccelerationFactor": 4,
  "PartialFourier": 1,
  "PatientPosition": "HFS",
  "PercentPhaseFOV": 100,
  "PhaseEncodingDirection": "j",
  "PhaseEncodingSteps": 104,
  "PhaseResolution": 1,
  "PixelBandwidth": 2290,
  "ProcedureStepDescription": "games_mario",
  "ProtocolName": "func_task-mario_run-02",
  "PulseSequenceDetails": "%CustomerSeq%_cmrr_mbep2d_bold",
  "ReceiveCoilActiveElements": "HC1-7;NC1,2",
  "ReceiveCoilName": "HeadNeck_64",
  "ReconMatrixPE": 104,
  "RepetitionTime": 1.49,
  "SAR": 0.0666961,
  "ScanOptions": "FS",
  "ScanningSequence": "EP",
  "SequenceName": "epfid2d1_104",
  "SequenceVariant": "SK_SS",
  "SeriesDescription": "func_task-mario_run-02",
  "SeriesNumber": 14,
  "ShimSetting": [630, -7156, -8859, 569, 85, 137, -29, -1],
  "SliceThickness": 2,
  "SliceTiming": [0, 0.7825, 0.0975, 0.88, 0.195, 0.98, 0.2925, 1.0775, 0.39, 1.175, 0.49, 1.2725, 0.5875, 1.37, 0.685, 0, 0.7825, 0.0975, 0.88, 0.195, 0.98, 0.2925, 1.0775, 0.39, 1.175, 0.49, 1.2725, 0.5875, 1.37, 0.685, 0, 0.7825, 0.0975, 0.88, 0.195, 0.98, 0.2925, 1.0775, 0.39, 1.175, 0.49, 1.2725, 0.5875, 1.37, 0.685, 0, 0.7825, 0.0975, 0.88, 0.195, 0.98, 0.2925, 1.0775, 0.39, 1.175, 0.49, 1.2725, 0.5875, 1.37, 0.685],
  "SoftwareVersions": "syngo_MR_E11",
  "SpacingBetweenSlices": 2,
  "StationName": "MRC35049",
  "TaskName": "mario",
  "TotalReadoutTime": 0.0576811,
  "TxRefAmp": 312.859,
  "WipMemBlock": "fdab456a-aa6b-4756-857e-dbd8b897fa6e||Sequence: R016 ve11c/master r/e634e98; Dec 19 2017 11:00:25 by eja",
  "dcmmeta_affine": [
    [-1.998468041419983, -0.019184459000825882, 0.0758785605430603, 106.32184600830078],
    [-0.049031294882297516, 1.8182191848754883, -0.8316699862480164, -53.595394134521484],
    [0.06100435554981232, 0.8328931927680969, 1.8172967433929443, -74.7378158569336],
    [0.0, 0.0, 0.0, 1.0]
],
  "dcmmeta_reorient_transform": [
    [0.0, -1.0, 0.0, 103.0],
    [1.0, 0.0, 0.0, 0.0],
    [0.0, 0.0, 1.0, 0.0],
    [0.0, 0.0, 0.0, 1.0]
],
  "dcmmeta_shape": [104, 104, 60, 438],
  "dcmmeta_slice_dim": 2,
  "dcmmeta_version": 0.6,
  "global": {
    "const": {
      "AcquisitionMatrix": [104, 0, 0, 104],
      "AngioFlag": "N",
      "BitsAllocated": 16,
      "BitsStored": 16,
      "BodyPartExamined": "BRAIN",
      "Columns": 832,
      "EchoNumbers": 1,
      "EchoTime": 37.0,
      "EchoTrainLength": 104,
      "FlipAngle": 52.0,
      "HighBit": 15,
      "ImageOrientationPatient": [0.99923400673003, 0.02451564756669, 0.03050217727715, -0.0095922299258, 0.90910957927351, -0.4164465896105],
      "ImagePositionPatient": [-824.80505746134, -813.36034476742, 292.01771547782],
      "ImageType": [
        "ORIGINAL",
        "PRIMARY",
        "P",
        "MB",
        "ND",
        "MOSAIC"
],
      "ImagedNucleus": "1H",
      "ImagingFrequency": 123.258934,
      "InPlanePhaseEncodingDirection": "COL",
      "LargestImagePixelValue": 4095,
      "MRAcquisitionType": "2D",
      "MagneticFieldStrength": 3.0,
      "Manufacturer": "SIEMENS",
      "ManufacturerModelName": "Prisma_fit",
      "Modality": "MR",
      "NumberOfAverages": 1.0,
      "NumberOfPhaseEncodingSteps": 104,
      "PercentPhaseFieldOfView": 100.0,
      "PercentSampling": 100.0,
      "PerformedProcedureStepStartTime": "103329.064000",
      "PhotometricInterpretation": "MONOCHROME2",
      "PixelBandwidth": 2290.0,
      "PixelRepresentation": 0,
      "PixelSpacing": [2.0, 2.0],
      "ProtocolName": "func_task-mario_run-02",
      "RepetitionTime": 1490.0,
      "RescaleIntercept": -4096.0,
      "RescaleSlope": 2.0,
      "RescaleType": "US",
      "Rows": 832,
      "SAR": 0.06669614822407,
      "SamplesPerPixel": 1,
      "ScanOptions": "FS",
      "ScanningSequence": "EP",
      "SequenceName": "epfid2d1_104",
      "SequenceVariant": [
        "SK",
        "SS"
],
      "SeriesDescription": "func_task-mario_run-02",
      "SeriesNumber": 14,
      "SeriesTime": "112224.979000",
      "SliceLocation": -41.589777587753,
      "SliceThickness": 2.0,
      "SmallestImagePixelValue": 0,
      "SoftwareVersions": "syngo MR E11",
      "SpacingBetweenSlices": 1.9999999793726,
      "SpecificCharacterSet": "ISO_IR 100",
      "StudyID": "1",
      "StudyTime": "103328.991000",
      "TransmitCoilName": "Body",
      "VariableFlipAngleFlag": "N",
      "WindowCenterWidthExplanation": "Algo1",
      "dBdt": 0.0},
    "slices": {}
  },
  "time": {
    "samples": {
      "AcquisitionNumber": [1, 2, 3, 4, 5, 6, 7, 8, 9, 10, 11, 12, 13, 14, 15, 16, 17, 18, 19, 20, 21, 22, 23, 24, 25, 26, 27, 28, 29, 30, 31, 32, 33, 34, 35, 36, 37, 38, 39, 40, 41, 42, 43, 44, 45, 46, 47, 48, 49, 50, 51, 52, 53, 54, 55, 56, 57, 58, 59, 60, 61, 62, 63, 64, 65, 66, 67, 68, 69, 70, 71, 72, 73, 74, 75, 76, 77, 78, 79, 80, 81, 82, 83, 84, 85, 86, 87, 88, 89, 90, 91, 92, 93, 94, 95, 96, 97, 98, 99, 100, 101, 102, 103, 104, 105, 106, 107, 108, 109, 110, 111, 112, 113, 114, 115, 116, 117, 118, 119, 120, 121, 122, 123, 124, 125, 126, 127, 128, 129, 130, 131, 132, 133, 134, 135, 136, 137, 138, 139, 140, 141, 142, 143, 144, 145, 146, 147, 148, 149, 150, 151, 152, 153, 154, 155, 156, 157, 158, 159, 160, 161, 162, 163, 164, 165, 166, 167, 168, 169, 170, 171, 172, 173, 174, 175, 176, 177, 178, 179, 180, 181, 182, 183, 184, 185, 186, 187, 188, 189, 190, 191, 192, 193, 194, 195, 196, 197, 198, 199, 200, 201, 202, 203, 204, 205, 206, 207, 208, 209, 210, 211, 212, 213, 214, 215, 216, 217, 218, 219, 220, 221, 222, 223, 224, 225, 226, 227, 228, 229, 230, 231, 232, 233, 234, 235, 236, 237, 238, 239, 240, 241, 242, 243, 244, 245, 246, 247, 248, 249, 250, 251, 252, 253, 254, 255, 256, 257, 258, 259, 260, 261, 262, 263, 264, 265, 266, 267, 268, 269, 270, 271, 272, 273, 274, 275, 276, 277, 278, 279, 280, 281, 282, 283, 284, 285, 286, 287, 288, 289, 290, 291, 292, 293, 294, 295, 296, 297, 298, 299, 300, 301, 302, 303, 304, 305, 306, 307, 308, 309, 310, 311, 312, 313, 314, 315, 316, 317, 318, 319, 320, 321, 322, 323, 324, 325, 326, 327, 328, 329, 330, 331, 332, 333, 334, 335, 336, 337, 338, 339, 340, 341, 342, 343, 344, 345, 346, 347, 348, 349, 350, 351, 352, 353, 354, 355, 356, 357, 358, 359, 360, 361, 362, 363, 364, 365, 366, 367, 368, 369, 370, 371, 372, 373, 374, 375, 376, 377, 378, 379, 380, 381, 382, 383, 384, 385, 386, 387, 388, 389, 390, 391, 392, 393, 394, 395, 396, 397, 398, 399, 400, 401, 402, 403, 404, 405, 406, 407, 408, 409, 410, 411, 412, 413, 414, 415, 416, 417, 418, 419, 420, 421, 422, 423, 424, 425, 426, 427, 428, 429, 430, 431, 432, 433, 434, 435, 436, 437, 438],
      "AcquisitionTime": ["112108.677500", "112110.167500", "112111.657500", "112113.147500", "112114.637500", "112116.127500", "112117.617500", "112119.107500", "112120.597500", "112122.087500", "112123.577500", "112125.067500", "112126.557500", "112128.047500", "112129.537500", "112131.027500", "112132.517500", "112134.007500", "112135.497500", "112136.987500", "112138.477500", "112139.967500", "112141.457500", "112142.947500", "112144.437500", "112145.927500", "112147.417500", "112148.907500", "112150.397500", "112151.887500", "112153.377500", "112154.867500", "112156.357500", "112157.847500", "112159.337500", "112200.827500", "112202.317500", "112203.807500", "112205.297500", "112206.787500", "112208.277500", "112209.767500", "112211.257500", "112212.747500", "112214.237500", "112215.727500", "112217.217500", "112218.707500", "112220.197500", "112221.687500", "112223.177500", "112224.667500", "112226.157500", "112227.647500", "112229.137500", "112230.627500", "112232.117500", "112233.607500", "112235.097500", "112236.587500", "112238.077500", "112239.567500", "112241.057500", "112242.547500", "112244.037500", "112245.527500", "112247.017500", "112248.507500", "112249.997500", "112251.487500", "112252.977500", "112254.467500", "112255.957500", "112257.447500", "112258.937500", "112300.427500", "112301.917500", "112303.407500", "112304.897500", "112306.387500", "112307.877500", "112309.367500", "112310.857500", "112312.347500", "112313.837500", "112315.327500", "112316.817500", "112318.307500", "112319.797500", "112321.287500", "112322.777500", "112324.267500", "112325.757500", "112327.247500", "112328.737500", "112330.227500", "112331.717500", "112333.207500", "112334.697500", "112336.187500", "112337.677500", "112339.167500", "112340.657500", "112342.147500", "112343.637500", "112345.127500", "112346.617500", "112348.107500", "112349.597500", "112351.087500", "112352.577500", "112354.067500", "112355.557500", "112357.047500", "112358.537500", "112400.027500", "112401.517500", "112403.007500", "112404.497500", "112405.987500", "112407.477500", "112408.967500", "112410.457500", "112411.947500", "112413.437500", "112414.927500", "112416.417500", "112417.907500", "112419.397500", "112420.887500", "112422.377500", "112423.867500", "112425.357500", "112426.847500", "112428.337500", "112429.827500", "112431.317500", "112432.807500", "112434.297500", "112435.787500", "112437.277500", "112438.767500", "112440.257500", "112441.747500", "112443.237500", "112444.727500", "112446.217500", "112447.707500", "112449.197500", "112450.687500", "112452.177500", "112453.667500", "112455.157500", "112456.647500", "112458.137500", "112459.627500", "112501.117500", "112502.607500", "112504.097500", "112505.587500", "112507.077500", "112508.567500", "112510.057500", "112511.547500", "112513.037500", "112514.527500", "112516.017500", "112517.507500", "112518.997500", "112520.487500", "112521.977500", "112523.467500", "112524.957500", "112526.447500", "112527.937500", "112529.427500", "112530.917500", "112532.407500", "112533.897500", "112535.387500", "112536.877500", "112538.367500", "112539.857500", "112541.347500", "112542.837500", "112544.327500", "112545.817500", "112547.307500", "112548.797500", "112550.287500", "112551.777500", "112553.267500", "112554.757500", "112556.247500", "112557.737500", "112559.227500", "112600.717500", "112602.207500", "112603.697500", "112605.187500", "112606.677500", "112608.167500", "112609.657500", "112611.147500", "112612.637500", "112614.127500", "112615.617500", "112617.107500", "112618.597500", "112620.087500", "112621.577500", "112623.067500", "112624.557500", "112626.047500", "112627.537500", "112629.027500", "112630.517500", "112632.007500", "112633.497500", "112634.987500", "112636.477500", "112637.967500", "112639.457500", "112640.947500", "112642.437500", "112643.927500", "112645.417500", "112646.907500", "112648.397500", "112649.887500", "112651.377500", "112652.867500", "112654.357500", "112655.847500", "112657.337500", "112658.827500", "112700.317500", "112701.807500", "112703.297500", "112704.787500", "112706.277500", "112707.767500", "112709.257500", "112710.747500", "112712.237500", "112713.727500", "112715.217500", "112716.707500", "112718.197500", "112719.687500", "112721.177500", "112722.667500", "112724.157500", "112725.647500", "112727.137500", "112728.627500", "112730.117500", "112731.607500", "112733.097500", "112734.587500", "112736.077500", "112737.567500", "112739.057500", "112740.547500", "112742.037500", "112743.527500", "112745.017500", "112746.507500", "112747.997500", "112749.487500", "112750.977500", "112752.467500", "112753.957500", "112755.447500", "112756.937500", "112758.427500", "112759.917500", "112801.407500", "112802.897500", "112804.387500", "112805.877500", "112807.367500", "112808.857500", "112810.347500", "112811.837500", "112813.327500", "112814.817500", "112816.307500", "112817.797500", "112819.287500", "112820.777500", "112822.267500", "112823.757500", "112825.247500", "112826.737500", "112828.227500", "112829.717500", "112831.207500", "112832.697500", "112834.187500", "112835.677500", "112837.167500", "112838.657500", "112840.147500", "112841.637500", "112843.127500", "112844.617500", "112846.107500", "112847.597500", "112849.087500", "112850.577500", "112852.067500", "112853.557500", "112855.047500", "112856.537500", "112858.027500", "112859.517500", "112901.007500", "112902.497500", "112903.987500", "112905.477500", "112906.967500", "112908.457500", "112909.947500", "112911.437500", "112912.927500", "112914.417500", "112915.907500", "112917.397500", "112918.887500", "112920.377500", "112921.867500", "112923.357500", "112924.847500", "112926.337500", "112927.827500", "112929.317500", "112930.807500", "112932.297500", "112933.787500", "112935.277500", "112936.767500", "112938.257500", "112939.747500", "112941.237500", "112942.727500", "112944.217500", "112945.707500", "112947.197500", "112948.687500", "112950.177500", "112951.667500", "112953.157500", "112954.647500", "112956.137500", "112957.627500", "112959.117500", "113000.607500", "113002.097500", "113003.587500", "113005.077500", "113006.567500", "113008.057500", "113009.547500", "113011.037500", "113012.527500", "113014.017500", "113015.507500", "113016.997500", "113018.487500", "113019.977500", "113021.467500", "113022.957500", "113024.447500", "113025.937500", "113027.427500", "113028.917500", "113030.407500", "113031.897500", "113033.387500", "113034.877500", "113036.367500", "113037.857500", "113039.347500", "113040.837500", "113042.327500", "113043.817500", "113045.307500", "113046.797500", "113048.287500", "113049.777500", "113051.267500", "113052.757500", "113054.247500", "113055.737500", "113057.227500", "113058.717500", "113100.207500", "113101.697500", "113103.187500", "113104.677500", "113106.167500", "113107.657500", "113109.147500", "113110.637500", "113112.127500", "113113.617500", "113115.107500", "113116.597500", "113118.087500", "113119.577500", "113121.067500", "113122.557500", "113124.047500", "113125.537500", "113127.027500", "113128.517500", "113130.007500", "113131.497500", "113132.987500", "113134.477500", "113135.967500", "113137.457500", "113138.947500", "113140.437500", "113141.927500", "113143.417500", "113144.907500", "113146.397500", "113147.887500", "113149.377500", "113150.867500", "113152.357500", "113153.847500", "113155.337500", "113156.827500", "113158.317500", "113159.807500"],
      "ContentTime": ["112224.981000", "112224.984000", "112224.986000", "112224.989000", "112224.991000", "112224.994000", "112224.996000", "112225.000000", "112225.002000", "112225.005000", "112225.007000", "112225.010000", "112225.012000", "112225.015000", "112225.017000", "112225.020000", "112225.022000", "112225.025000", "112225.027000", "112225.030000", "112244.905000", "112244.907000", "112244.910000", "112244.912000", "112244.915000", "112244.918000", "112244.920000", "112244.923000", "112244.925000", "112244.928000", "112244.930000", "112244.933000", "112244.935000", "112244.937000", "112244.940000", "112244.943000", "112244.945000", "112244.948000", "112244.950000", "112244.953000", "112244.955000", "112304.904000", "112304.906000", "112304.909000", "112304.911000", "112304.914000", "112304.916000", "112304.919000", "112304.921000", "112304.924000", "112304.926000", "112304.929000", "112304.931000", "112304.934000", "112304.936000", "112304.939000", "112304.941000", "112304.944000", "112304.946000", "112304.949000", "112304.951000", "112324.907000", "112324.910000", "112324.912000", "112324.915000", "112324.917000", "112324.920000", "112324.922000", "112324.925000", "112324.927000", "112324.930000", "112324.932000", "112324.935000", "112324.937000", "112324.940000", "112324.942000", "112324.945000", "112324.947000", "112324.950000", "112324.952000", "112324.955000", "112344.917000", "112344.920000", "112344.923000", "112344.925000", "112344.928000", "112344.930000", "112344.933000", "112344.935000", "112344.938000", "112344.940000", "112344.943000", "112344.945000", "112344.948000", "112344.950000", "112344.953000", "112344.955000", "112344.958000", "112344.960000", "112344.963000", "112344.966000", "112424.949000", "112424.952000", "112424.955000", "112424.957000", "112424.960000", "112424.962000", "112424.965000", "112424.967000", "112424.970000", "112424.979000", "112424.981000", "112424.984000", "112424.986000", "112424.989000", "112424.992000", "112424.994000", "112424.997000", "112425.000000", "112425.003000", "112425.005000", "112425.008000", "112425.010000", "112425.013000", "112425.016000", "112425.018000", "112425.021000", "112425.023000", "112425.026000", "112425.028000", "112425.031000", "112504.940000", "112504.942000", "112504.945000", "112504.947000", "112504.950000", "112504.952000", "112504.955000", "112504.957000", "112504.960000", "112504.962000", "112504.965000", "112504.968000", "112504.970000", "112504.973000", "112504.975000", "112504.978000", "112504.980000", "112504.983000", "112504.985000", "112504.988000", "112504.990000", "112504.993000", "112504.995000", "112504.998000", "112505.002000", "112505.004000", "112505.007000", "112544.941000", "112544.944000", "112544.947000", "112544.949000", "112544.952000", "112544.954000", "112544.957000", "112544.959000", "112544.962000", "112544.964000", "112544.967000", "112544.969000", "112544.972000", "112544.975000", "112544.977000", "112544.980000", "112544.982000", "112544.985000", "112544.987000", "112544.990000", "112544.992000", "112544.995000", "112544.997000", "112545.001000", "112545.003000", "112545.006000", "112545.009000", "112624.973000", "112624.975000", "112624.978000", "112624.980000", "112624.983000", "112624.985000", "112624.988000", "112624.991000", "112624.993000", "112624.996000", "112624.998000", "112625.002000", "112625.004000", "112625.007000", "112625.009000", "112625.012000", "112625.014000", "112625.017000", "112625.019000", "112625.022000", "112625.024000", "112625.027000", "112625.030000", "112625.032000", "112625.035000", "112625.037000", "112704.941000", "112704.943000", "112704.946000", "112704.949000", "112704.951000", "112704.954000", "112704.956000", "112704.959000", "112704.961000", "112704.964000", "112704.966000", "112704.969000", "112704.971000", "112704.974000", "112704.976000", "112704.979000", "112704.982000", "112704.984000", "112704.987000", "112704.989000", "112704.992000", "112705.002000", "112705.004000", "112705.007000", "112705.009000", "112705.012000", "112705.014000", "112744.937000", "112744.939000", "112744.942000", "112744.945000", "112744.947000", "112744.950000", "112744.952000", "112744.955000", "112744.957000", "112744.960000", "112744.962000", "112744.965000", "112744.967000", "112744.970000", "112744.972000", "112744.975000", "112744.977000", "112744.980000", "112744.982000", "112744.985000", "112744.988000", "112744.990000", "112744.993000", "112744.995000", "112744.998000", "112745.001000", "112745.004000", "112824.939000", "112824.942000", "112824.944000", "112824.947000", "112824.949000", "112824.952000", "112824.954000", "112824.957000", "112824.960000", "112824.962000", "112824.965000", "112824.967000", "112824.970000", "112824.973000", "112824.975000", "112824.978000", "112824.980000", "112824.983000", "112824.985000", "112824.988000", "112824.990000", "112824.993000", "112824.996000", "112824.998000", "112825.002000", "112825.004000", "112825.007000", "112904.948000", "112904.951000", "112904.953000", "112904.956000", "112904.958000", "112904.961000", "112904.963000", "112904.966000", "112904.969000", "112904.971000", "112904.974000", "112904.976000", "112904.979000", "112904.981000", "112904.984000", "112904.986000", "112904.989000", "112904.991000", "112904.994000", "112904.996000", "112905.000000", "112905.003000", "112905.005000", "112905.008000", "112905.010000", "112905.013000", "112905.015000", "112944.950000", "112944.953000", "112944.956000", "112944.958000", "112944.961000", "112944.963000", "112944.966000", "112944.968000", "112944.971000", "112944.973000", "112944.976000", "112944.978000", "112944.981000", "112944.983000", "112944.986000", "112944.988000", "112944.991000", "112944.994000", "112944.996000", "112945.000000", "112945.002000", "112945.005000", "112945.007000", "112945.010000", "112945.012000", "112945.015000", "112945.017000", "113024.941000", "113024.944000", "113024.946000", "113024.949000", "113024.951000", "113024.954000", "113024.956000", "113024.959000", "113024.961000", "113024.964000", "113024.966000", "113024.969000", "113024.972000", "113024.974000", "113024.977000", "113024.979000", "113024.982000", "113024.984000", "113024.987000", "113024.989000", "113024.992000", "113024.994000", "113024.997000", "113025.000000", "113025.003000", "113025.005000", "113025.008000", "113104.945000", "113104.950000", "113104.953000", "113104.956000", "113104.959000", "113104.962000", "113104.965000", "113104.967000", "113104.970000", "113104.973000", "113104.975000", "113104.978000", "113104.980000", "113104.983000", "113104.985000", "113104.988000", "113104.990000", "113104.993000", "113104.996000", "113104.998000", "113105.002000", "113105.004000", "113105.007000", "113105.009000", "113105.012000", "113105.014000", "113144.941000", "113144.944000", "113144.946000", "113144.949000", "113144.951000", "113144.954000", "113144.957000", "113144.959000", "113144.962000", "113144.964000", "113144.967000", "113144.969000", "113144.972000", "113144.974000", "113144.977000", "113144.979000", "113144.982000", "113144.984000", "113144.987000", "113144.989000", "113144.992000", "113144.994000", "113144.997000", "113145.000000", "113145.003000", "113145.006000", "113145.008000", "113202.544000", "113202.547000", "113202.550000", "113202.552000", "113202.555000", "113202.557000", "113202.560000", "113202.563000", "113202.565000", "113202.568000", "113202.570000", "113202.573000"],
