{
  "AcquisitionMatrixPE": 104,
  "AcquisitionNumber": 1,
  "AcquisitionTime": "11:33:34.212500",
  "BandwidthPerPixelPhaseEncode": 17.17,
  "BaseResolution": 104,
  "BodyPartExamined": "BRAIN",
  "CoilString": "HC1-7;NC1_2",
  "ConsistencyInfo": "N4_VE11C_LATEST_20160120",
  "ConversionSoftware": "dcm2niix",
  "ConversionSoftwareVersion": "v1.0.20190902",
  "DerivedVendorReportedEchoSpacing": 0.000560011,
  "DeviceSerialNumber": "167006",
  "DwellTime": 2.1e-06,
  "EchoTime": 0.037,
  "EchoTrainLength": 104,
  "EffectiveEchoSpacing": 0.000560011,
  "FlipAngle": 52,
  "HeudiconvVersion": "0.10.0",
  "ImageComments": "Unaliased_MB4_PE3_LB",
  "ImageOrientationPatientDICOM": [0.999234, 0.0245156, 0.0305022, -0.00959223, 0.90911, -0.416447],
  "ImageType": [
    "ORIGINAL",
    "PRIMARY",
    "M",
    "MB",
    "ND",
    "MOSAIC"
],
  "ImagingFrequency": 123.259,
  "InPlanePhaseEncodingDirectionDICOM": "COL",
  "InstitutionAddress": "Chemin_Queen-Mary_4565_Montreal_District_CA_H3W_1W5",
  "InstitutionName": "IUGM",
  "InstitutionalDepartmentName": "Department",
  "MRAcquisitionType": "2D",
  "MagneticFieldStrength": 3,
  "Manufacturer": "Siemens",
  "ManufacturersModelName": "Prisma_fit",
  "Modality": "MR",
  "MultibandAccelerationFactor": 4,
  "PartialFourier": 1,
  "PatientPosition": "HFS",
  "PercentPhaseFOV": 100,
  "PhaseEncodingDirection": "j",
  "PhaseEncodingSteps": 104,
  "PhaseResolution": 1,
  "PixelBandwidth": 2290,
  "ProcedureStepDescription": "games_mario",
  "ProtocolName": "func_task-mario_run-03",
  "PulseSequenceDetails": "%CustomerSeq%_cmrr_mbep2d_bold",
  "ReceiveCoilActiveElements": "HC1-7;NC1,2",
  "ReceiveCoilName": "HeadNeck_64",
  "ReconMatrixPE": 104,
  "RepetitionTime": 1.49,
  "SAR": 0.0666961,
  "ScanOptions": "FS",
  "ScanningSequence": "EP",
  "SequenceName": "epfid2d1_104",
  "SequenceVariant": "SK_SS",
  "SeriesDescription": "func_task-mario_run-03",
  "SeriesNumber": 16,
  "ShimSetting": [630, -7156, -8859, 569, 85, 137, -29, -1],
  "SliceThickness": 2,
  "SliceTiming": [0, 0.7825, 0.0975, 0.8825, 0.195, 0.98, 0.2925, 1.0775, 0.3925, 1.175, 0.49, 1.2725, 0.5875, 1.3725, 0.685, 0, 0.7825, 0.0975, 0.8825, 0.195, 0.98, 0.2925, 1.0775, 0.3925, 1.175, 0.49, 1.2725, 0.5875, 1.3725, 0.685, 0, 0.7825, 0.0975, 0.8825, 0.195, 0.98, 0.2925, 1.0775, 0.3925, 1.175, 0.49, 1.2725, 0.5875, 1.3725, 0.685, 0, 0.7825, 0.0975, 0.8825, 0.195, 0.98, 0.2925, 1.0775, 0.3925, 1.175, 0.49, 1.2725, 0.5875, 1.3725, 0.685],
  "SoftwareVersions": "syngo_MR_E11",
  "SpacingBetweenSlices": 2,
  "StationName": "MRC35049",
  "TaskName": "mario",
  "TotalReadoutTime": 0.0576811,
  "TxRefAmp": 312.859,
  "WipMemBlock": "57f06fae-174e-46c9-8885-9942d8e3a6e9||Sequence: R016 ve11c/master r/e634e98; Dec 19 2017 11:00:25 by eja",
  "dcmmeta_affine": [
    [-1.998468041419983, -0.019184459000825882, 0.0758785605430603, 106.32184600830078],
    [-0.049031294882297516, 1.8182191848754883, -0.8316699862480164, -53.595394134521484],
    [0.06100435554981232, 0.8328931927680969, 1.8172967433929443, -74.7378158569336],
    [0.0, 0.0, 0.0, 1.0]
],
  "dcmmeta_reorient_transform": [
    [0.0, -1.0, 0.0, 103.0],
    [1.0, 0.0, 0.0, 0.0],
    [0.0, 0.0, 1.0, 0.0],
    [0.0, 0.0, 0.0, 1.0]
],
  "dcmmeta_shape": [104, 104, 60, 418],
  "dcmmeta_slice_dim": 2,
  "dcmmeta_version": 0.6,
  "global": {
    "const": {
      "AcquisitionMatrix": [104, 0, 0, 104],
      "AngioFlag": "N",
      "BitsAllocated": 16,
      "BitsStored": 16,
      "BodyPartExamined": "BRAIN",
      "Columns": 832,
      "EchoNumbers": 1,
      "EchoTime": 37.0,
      "EchoTrainLength": 104,
      "FlipAngle": 52.0,
      "HighBit": 15,
      "ImageOrientationPatient": [0.99923400673003, 0.02451564756669, 0.03050217727715, -0.0095922299258, 0.90910957927351, -0.4164465896105],
      "ImagePositionPatient": [-824.80505746134, -813.36034476742, 292.01771547782],
      "ImageType": [
        "ORIGINAL",
        "PRIMARY",
        "M",
        "MB",
        "ND",
        "MOSAIC"
],
      "ImagedNucleus": "1H",
      "ImagingFrequency": 123.25894,
      "InPlanePhaseEncodingDirection": "COL",
      "MRAcquisitionType": "2D",
      "MagneticFieldStrength": 3.0,
      "Manufacturer": "SIEMENS",
      "ManufacturerModelName": "Prisma_fit",
      "Modality": "MR",
      "NumberOfAverages": 1.0,
      "NumberOfPhaseEncodingSteps": 104,
      "PercentPhaseFieldOfView": 100.0,
      "PercentSampling": 100.0,
      "PerformedProcedureStepStartTime": "103329.064000",
      "PhotometricInterpretation": "MONOCHROME2",
      "PixelBandwidth": 2290.0,
      "PixelRepresentation": 0,
      "PixelSpacing": [2.0, 2.0],
      "ProtocolName": "func_task-mario_run-03",
      "RepetitionTime": 1490.0,
      "Rows": 832,
      "SAR": 0.06669614822407,
      "SamplesPerPixel": 1,
      "ScanOptions": "FS",
      "ScanningSequence": "EP",
      "SequenceName": "epfid2d1_104",
      "SequenceVariant": [
        "SK",
        "SS"
],
      "SeriesDescription": "func_task-mario_run-03",
      "SeriesNumber": 16,
      "SeriesTime": "113504.750000",
      "SliceLocation": -41.589777587753,
      "SliceThickness": 2.0,
      "SmallestImagePixelValue": 0,
      "SoftwareVersions": "syngo MR E11",
      "SpacingBetweenSlices": 1.9999999793726,
      "SpecificCharacterSet": "ISO_IR 100",
      "StudyID": "1",
      "StudyTime": "103328.991000",
      "TransmitCoilName": "Body",
      "VariableFlipAngleFlag": "N",
      "WindowCenterWidthExplanation": "Algo1",
      "dBdt": 0.0},
    "slices": {}
  },
  "time": {
    "samples": {
      "AcquisitionNumber": [1, 2, 3, 4, 5, 6, 7, 8, 9, 10, 11, 12, 13, 14, 15, 16, 17, 18, 19, 20, 21, 22, 23, 24, 25, 26, 27, 28, 29, 30, 31, 32, 33, 34, 35, 36, 37, 38, 39, 40, 41, 42, 43, 44, 45, 46, 47, 48, 49, 50, 51, 52, 53, 54, 55, 56, 57, 58, 59, 60, 61, 62, 63, 64, 65, 66, 67, 68, 69, 70, 71, 72, 73, 74, 75, 76, 77, 78, 79, 80, 81, 82, 83, 84, 85, 86, 87, 88, 89, 90, 91, 92, 93, 94, 95, 96, 97, 98, 99, 100, 101, 102, 103, 104, 105, 106, 107, 108, 109, 110, 111, 112, 113, 114, 115, 116, 117, 118, 119, 120, 121, 122, 123, 124, 125, 126, 127, 128, 129, 130, 131, 132, 133, 134, 135, 136, 137, 138, 139, 140, 141, 142, 143, 144, 145, 146, 147, 148, 149, 150, 151, 152, 153, 154, 155, 156, 157, 158, 159, 160, 161, 162, 163, 164, 165, 166, 167, 168, 169, 170, 171, 172, 173, 174, 175, 176, 177, 178, 179, 180, 181, 182, 183, 184, 185, 186, 187, 188, 189, 190, 191, 192, 193, 194, 195, 196, 197, 198, 199, 200, 201, 202, 203, 204, 205, 206, 207, 208, 209, 210, 211, 212, 213, 214, 215, 216, 217, 218, 219, 220, 221, 222, 223, 224, 225, 226, 227, 228, 229, 230, 231, 232, 233, 234, 235, 236, 237, 238, 239, 240, 241, 242, 243, 244, 245, 246, 247, 248, 249, 250, 251, 252, 253, 254, 255, 256, 257, 258, 259, 260, 261, 262, 263, 264, 265, 266, 267, 268, 269, 270, 271, 272, 273, 274, 275, 276, 277, 278, 279, 280, 281, 282, 283, 284, 285, 286, 287, 288, 289, 290, 291, 292, 293, 294, 295, 296, 297, 298, 299, 300, 301, 302, 303, 304, 305, 306, 307, 308, 309, 310, 311, 312, 313, 314, 315, 316, 317, 318, 319, 320, 321, 322, 323, 324, 325, 326, 327, 328, 329, 330, 331, 332, 333, 334, 335, 336, 337, 338, 339, 340, 341, 342, 343, 344, 345, 346, 347, 348, 349, 350, 351, 352, 353, 354, 355, 356, 357, 358, 359, 360, 361, 362, 363, 364, 365, 366, 367, 368, 369, 370, 371, 372, 373, 374, 375, 376, 377, 378, 379, 380, 381, 382, 383, 384, 385, 386, 387, 388, 389, 390, 391, 392, 393, 394, 395, 396, 397, 398, 399, 400, 401, 402, 403, 404, 405, 406, 407, 408, 409, 410, 411, 412, 413, 414, 415, 416, 417, 418],
      "AcquisitionTime": ["113334.212500", "113335.702500", "113337.192500", "113338.682500", "113340.172500", "113341.662500", "113343.152500", "113344.642500", "113346.132500", "113347.622500", "113349.112500", "113350.602500", "113352.092500", "113353.582500", "113355.072500", "113356.562500", "113358.052500", "113359.542500", "113401.032500", "113402.522500", "113404.012500", "113405.502500", "113406.992500", "113408.482500", "113409.972500", "113411.462500", "113412.952500", "113414.442500", "113415.932500", "113417.422500", "113418.912500", "113420.402500", "113421.892500", "113423.382500", "113424.872500", "113426.362500", "113427.852500", "113429.342500", "113430.832500", "113432.322500", "113433.812500", "113435.302500", "113436.792500", "113438.282500", "113439.772500", "113441.262500", "113442.752500", "113444.242500", "113445.732500", "113447.222500", "113448.712500", "113450.202500", "113451.692500", "113453.182500", "113454.672500", "113456.162500", "113457.652500", "113459.142500", "113500.632500", "113502.122500", "113503.612500", "113505.102500", "113506.592500", "113508.082500", "113509.572500", "113511.062500", "113512.552500", "113514.042500", "113515.532500", "113517.022500", "113518.512500", "113520.002500", "113521.492500", "113522.982500", "113524.472500", "113525.962500", "113527.452500", "113528.942500", "113530.432500", "113531.922500", "113533.412500", "113534.902500", "113536.392500", "113537.882500", "113539.372500", "113540.862500", "113542.352500", "113543.842500", "113545.332500", "113546.822500", "113548.312500", "113549.802500", "113551.292500", "113552.782500", "113554.272500", "113555.762500", "113557.252500", "113558.742500", "113600.232500", "113601.722500", "113603.212500", "113604.702500", "113606.192500", "113607.682500", "113609.172500", "113610.662500", "113612.152500", "113613.642500", "113615.132500", "113616.622500", "113618.112500", "113619.602500", "113621.092500", "113622.582500", "113624.072500", "113625.562500", "113627.052500", "113628.542500", "113630.032500", "113631.522500", "113633.012500", "113634.502500", "113635.992500", "113637.482500", "113638.972500", "113640.462500", "113641.952500", "113643.442500", "113644.932500", "113646.422500", "113647.912500", "113649.402500", "113650.892500", "113652.382500", "113653.872500", "113655.362500", "113656.852500", "113658.342500", "113659.832500", "113701.322500", "113702.812500", "113704.302500", "113705.792500", "113707.282500", "113708.772500", "113710.262500", "113711.752500", "113713.242500", "113714.732500", "113716.222500", "113717.712500", "113719.202500", "113720.692500", "113722.182500", "113723.672500", "113725.162500", "113726.652500", "113728.142500", "113729.632500", "113731.122500", "113732.612500", "113734.102500", "113735.592500", "113737.082500", "113738.572500", "113740.062500", "113741.552500", "113743.042500", "113744.532500", "113746.022500", "113747.512500", "113749.002500", "113750.492500", "113751.982500", "113753.472500", "113754.962500", "113756.452500", "113757.942500", "113759.432500", "113800.922500", "113802.412500", "113803.902500", "113805.392500", "113806.882500", "113808.372500", "113809.862500", "113811.352500", "113812.842500", "113814.332500", "113815.822500", "113817.312500", "113818.802500", "113820.292500", "113821.782500", "113823.272500", "113824.762500", "113826.252500", "113827.742500", "113829.232500", "113830.722500", "113832.212500", "113833.702500", "113835.192500", "113836.682500", "113838.172500", "113839.662500", "113841.152500", "113842.642500", "113844.132500", "113845.622500", "113847.112500", "113848.602500", "113850.092500", "113851.582500", "113853.072500", "113854.562500", "113856.052500", "113857.542500", "113859.032500", "113900.522500", "113902.012500", "113903.502500", "113904.992500", "113906.482500", "113907.972500", "113909.462500", "113910.952500", "113912.442500", "113913.932500", "113915.422500", "113916.912500", "113918.402500", "113919.892500", "113921.382500", "113922.872500", "113924.362500", "113925.852500", "113927.342500", "113928.832500", "113930.322500", "113931.812500", "113933.302500", "113934.792500", "113936.282500", "113937.772500", "113939.262500", "113940.752500", "113942.242500", "113943.732500", "113945.222500", "113946.712500", "113948.202500", "113949.692500", "113951.182500", "113952.672500", "113954.162500", "113955.652500", "113957.142500", "113958.632500", "114000.122500", "114001.612500", "114003.102500", "114004.592500", "114006.082500", "114007.572500", "114009.062500", "114010.552500", "114012.042500", "114013.532500", "114015.022500", "114016.512500", "114018.002500", "114019.492500", "114020.982500", "114022.472500", "114023.962500", "114025.452500", "114026.942500", "114028.432500", "114029.922500", "114031.412500", "114032.902500", "114034.392500", "114035.882500", "114037.372500", "114038.862500", "114040.352500", "114041.842500", "114043.332500", "114044.822500", "114046.312500", "114047.802500", "114049.292500", "114050.782500", "114052.272500", "114053.762500", "114055.252500", "114056.742500", "114058.232500", "114059.722500", "114101.212500", "114102.702500", "114104.192500", "114105.682500", "114107.172500", "114108.662500", "114110.152500", "114111.642500", "114113.132500", "114114.622500", "114116.112500", "114117.602500", "114119.092500", "114120.582500", "114122.072500", "114123.562500", "114125.052500", "114126.542500", "114128.032500", "114129.522500", "114131.012500", "114132.502500", "114133.992500", "114135.482500", "114136.972500", "114138.462500", "114139.952500", "114141.442500", "114142.932500", "114144.422500", "114145.912500", "114147.402500", "114148.892500", "114150.382500", "114151.872500", "114153.362500", "114154.852500", "114156.342500", "114157.832500", "114159.322500", "114200.812500", "114202.302500", "114203.792500", "114205.282500", "114206.772500", "114208.262500", "114209.752500", "114211.242500", "114212.732500", "114214.222500", "114215.712500", "114217.202500", "114218.692500", "114220.182500", "114221.672500", "114223.162500", "114224.652500", "114226.142500", "114227.632500", "114229.122500", "114230.612500", "114232.102500", "114233.592500", "114235.082500", "114236.572500", "114238.062500", "114239.552500", "114241.042500", "114242.532500", "114244.022500", "114245.512500", "114247.002500", "114248.492500", "114249.982500", "114251.472500", "114252.962500", "114254.452500", "114255.942500", "114257.432500", "114258.922500", "114300.412500", "114301.902500", "114303.392500", "114304.882500", "114306.372500", "114307.862500", "114309.352500", "114310.842500", "114312.332500", "114313.822500", "114315.312500", "114316.802500", "114318.292500", "114319.782500", "114321.272500", "114322.762500", "114324.252500", "114325.742500", "114327.232500", "114328.722500", "114330.212500", "114331.702500", "114333.192500", "114334.682500", "114336.172500", "114337.662500", "114339.152500", "114340.642500", "114342.132500", "114343.622500", "114345.112500", "114346.602500", "114348.092500", "114349.582500", "114351.072500", "114352.562500", "114354.052500", "114355.542500"],
      "ContentTime": ["113504.754000", "113504.757000", "113504.761000", "113504.764000", "113504.768000", "113504.771000", "113504.774000", "113504.778000", "113504.781000", "113504.784000", "113504.788000", "113504.795000", "113504.799000", "113504.802000", "113504.806000", "113504.809000", "113504.812000", "113504.816000", "113504.819000", "113504.822000", "113504.826000", "113504.829000", "113504.832000", "113504.836000", "113504.839000", "113504.842000", "113504.846000", "113504.849000", "113504.852000", "113504.856000", "113504.859000", "113504.866000", "113504.869000", "113504.873000", "113504.876000", "113504.879000", "113504.883000", "113504.886000", "113524.717000", "113524.721000", "113524.724000", "113524.728000", "113524.731000", "113524.734000", "113524.738000", "113524.741000", "113524.744000", "113524.748000", "113524.751000", "113524.754000", "113524.758000", "113524.761000", "113524.765000", "113524.768000", "113524.771000", "113524.775000", "113524.778000", "113524.781000", "113544.718000", "113544.722000", "113544.725000", "113544.729000", "113544.732000", "113544.735000", "113544.739000", "113544.742000", "113544.745000", "113544.749000", "113544.752000", "113544.755000", "113544.759000", "113544.762000", "113544.766000", "113544.769000", "113544.772000", "113544.776000", "113544.779000", "113544.782000", "113604.718000", "113604.722000", "113604.725000", "113604.729000", "113604.732000", "113604.735000", "113604.739000", "113604.742000", "113604.745000", "113604.749000", "113604.752000", "113604.755000", "113604.759000", "113604.762000", "113604.766000", "113604.769000", "113604.773000", "113604.776000", "113604.780000", "113604.783000", "113624.718000", "113624.722000", "113624.725000", "113624.729000", "113624.732000", "113624.736000", "113624.739000", "113624.742000", "113624.746000", "113624.749000", "113624.752000", "113624.756000", "113624.759000", "113624.763000", "113624.766000", "113704.717000", "113704.721000", "113704.724000", "113704.728000", "113704.731000", "113704.734000", "113704.738000", "113704.741000", "113704.745000", "113704.748000", "113704.751000", "113704.755000", "113704.758000", "113704.762000", "113704.765000", "113704.768000", "113704.772000", "113704.775000", "113704.779000", "113704.782000", "113704.785000", "113704.789000", "113704.792000", "113704.795000", "113704.799000", "113704.814000", "113704.818000", "113744.717000", "113744.721000", "113744.725000", "113744.728000", "113744.731000", "113744.735000", "113744.738000", "113744.742000", "113744.745000", "113744.748000", "113744.752000", "113744.755000", "113744.759000", "113744.762000", "113744.765000", "113744.769000", "113744.772000", "113744.776000", "113744.779000", "113744.782000", "113744.786000", "113744.789000", "113744.792000", "113744.796000", "113744.799000", "113744.802000", "113744.806000", "113824.718000", "113824.722000", "113824.725000", "113824.729000", "113824.732000", "113824.735000", "113824.739000", "113824.742000", "113824.746000", "113824.749000", "113824.752000", "113824.756000", "113824.759000", "113824.762000", "113824.766000", "113824.769000", "113824.773000", "113824.776000", "113824.779000", "113824.783000", "113824.786000", "113824.790000", "113824.793000", "113824.796000", "113824.800000", "113824.803000", "113824.806000", "113904.717000", "113904.721000", "113904.724000", "113904.728000", "113904.731000", "113904.735000", "113904.738000", "113904.742000", "113904.745000", "113904.748000", "113904.752000", "113904.755000", "113904.758000", "113904.762000", "113904.765000", "113904.768000", "113904.772000", "113904.775000", "113904.779000", "113904.782000", "113904.785000", "113904.789000", "113904.792000", "113904.795000", "113904.799000", "113904.802000", "113904.805000", "113944.717000", "113944.721000", "113944.724000", "113944.728000", "113944.731000", "113944.734000", "113944.738000", "113944.741000", "113944.744000", "113944.748000", "113944.751000", "113944.755000", "113944.758000", "113944.761000", "113944.780000", "113944.783000", "113944.786000", "113944.790000", "113944.793000", "113944.796000", "113944.800000", "113944.803000", "113944.807000", "113944.810000", "113944.813000", "113944.817000", "113944.820000", "114024.719000", "114024.723000", "114024.726000", "114024.730000", "114024.733000", "114024.737000", "114024.741000", "114024.744000", "114024.748000", "114024.751000", "114024.754000", "114024.758000", "114024.761000", "114024.764000", "114024.768000", "114024.771000", "114024.775000", "114024.778000", "114024.781000", "114024.785000", "114024.788000", "114024.791000", "114024.795000", "114024.798000", "114024.802000", "114024.805000", "114104.718000", "114104.722000", "114104.725000", "114104.729000", "114104.732000", "114104.736000", "114104.739000", "114104.742000", "114104.746000", "114104.749000", "114104.752000", "114104.756000", "114104.759000", "114104.763000", "114104.766000", "114104.769000", "114104.773000", "114104.776000", "114104.780000", "114104.783000", "114104.786000", "114104.790000", "114104.793000", "114104.797000", "114104.800000", "114104.803000", "114104.807000", "114144.717000", "114144.721000", "114144.724000", "114144.728000", "114144.731000", "114144.735000", "114144.738000", "114144.741000", "114144.745000", "114144.748000", "114144.751000", "114144.755000", "114144.758000", "114144.762000", "114144.765000", "114144.768000", "114144.788000", "114144.791000", "114144.794000", "114144.798000", "114144.801000", "114144.805000", "114144.808000", "114144.811000", "114144.815000", "114144.818000", "114144.841000", "114224.717000", "114224.721000", "114224.724000", "114224.728000", "114224.731000", "114224.735000", "114224.738000", "114224.741000", "114224.745000", "114224.748000", "114224.752000", "114224.755000", "114224.758000", "114224.762000", "114224.765000", "114224.768000", "114224.772000", "114224.775000", "114224.779000", "114224.782000", "114224.785000", "114224.789000", "114224.792000", "114224.795000", "114224.799000", "114224.802000", "114224.806000", "114304.719000", "114304.723000", "114304.727000", "114304.730000", "114304.733000", "114304.737000", "114304.740000", "114304.743000", "114304.747000", "114304.752000", "114304.755000", "114304.759000", "114304.762000", "114304.765000", "114304.769000", "114304.779000", "114304.782000", "114304.786000", "114304.789000", "114304.793000", "114304.796000", "114304.799000", "114304.803000", "114304.806000", "114304.809000", "114304.813000", "114304.816000", "114344.717000", "114344.721000", "114344.724000", "114344.728000", "114344.731000", "114344.735000", "114344.738000", "114344.741000", "114344.745000", "114344.748000", "114344.751000", "114344.755000", "114344.758000", "114344.762000", "114344.765000", "114344.768000", "114344.772000", "114344.805000", "114344.809000", "114344.812000", "114344.816000", "114344.820000", "114344.823000", "114344.827000", "114344.830000", "114344.834000", "114344.837000", "114358.894000", "114358.898000", "114358.901000", "114358.904000", "114358.908000", "114358.911000", "114358.914000", "114358.930000", "114358.934000"],
      "InstanceCreationTime": ["113504.754000", "113504.757000", "113504.761000", "113504.764000", "113504.768000", "113504.771000", "113504.774000", "113504.778000", "113504.781000", "113504.784000", "113504.788000", "113504.795000", "113504.799000", "113504.802000", "113504.806000", "113504.809000", "113504.812000", "113504.816000", "113504.819000", "113504.822000", "113504.826000", "113504.829000", "113504.832000", "113504.836000", "113504.839000", "113504.842000", "113504.846000", "113504.849000", "113504.852000", "113504.856000", "113504.859000", "113504.866000", "113504.869000", "113504.873000", "113504.876000", "113504.879000", "113504.883000", "113504.886000", "113524.717000", "113524.721000", "113524.724000", "113524.728000", "113524.731000", "113524.734000", "113524.738000", "113524.741000", "113524.744000", "113524.748000", "113524.751000", "113524.754000", "113524.758000", "113524.761000", "113524.765000", "113524.768000", "113524.771000", "113524.775000", "113524.778000", "113524.781000", "113544.718000", "113544.722000", "113544.725000", "113544.729000", "113544.732000", "113544.735000", "113544.739000", "113544.742000", "113544.745000", "113544.749000", "113544.752000", "113544.755000", "113544.759000", "113544.762000", "113544.766000", "113544.769000", "113544.772000", "113544.776000", "113544.779000", "113544.782000", "113604.718000", "113604.722000", "113604.725000", "113604.729000", "113604.732000", "113604.735000", "113604.739000", "113604.742000", "113604.745000", "113604.749000", "113604.752000", "113604.755000", "113604.759000", "113604.762000", "113604.766000", "113604.769000", "113604.773000", "113604.776000", "113604.780000", "113604.783000", "113624.718000", "113624.722000", "113624.725000", "113624.729000", "113624.732000", "113624.736000", "113624.739000", "113624.742000", "113624.746000", "113624.749000", "113624.752000", "113624.756000", "113624.759000", "113624.763000", "113624.766000", "113704.717000", "113704.721000", "113704.724000", "113704.728000", "113704.731000", "113704.734000", "113704.738000", "113704.741000", "113704.745000", "113704.748000", "113704.751000", "113704.755000", "113704.758000", "113704.762000", "113704.765000", "113704.768000", "113704.772000", "113704.775000", "113704.779000", "113704.782000", "113704.785000", "113704.789000", "113704.792000", "113704.795000", "113704.799000", "113704.814000", "113704.818000", "113744.717000", "113744.721000", "113744.725000", "113744.728000", "113744.731000", "113744.735000", "113744.738000", "113744.742000", "113744.745000", "113744.748000", "113744.752000", "113744.755000", "113744.759000", "113744.762000", "113744.765000", "113744.769000", "113744.772000", "113744.776000", "113744.779000", "113744.782000", "113744.786000", "113744.789000", "113744.792000", "113744.796000", "113744.799000", "113744.802000", "113744.806000", "113824.718000", "113824.722000", "113824.725000", "113824.729000", "113824.732000", "113824.735000", "113824.739000", "113824.742000", "113824.746000", "113824.749000", "113824.752000", "113824.756000", "113824.759000", "113824.762000", "113824.766000", "113824.769000", "113824.773000", "113824.776000", "113824.779000", "113824.783000", "113824.786000", "113824.790000", "113824.793000", "113824.796000", "113824.800000", "113824.803000", "113824.806000", "113904.717000", "113904.721000", "113904.724000", "113904.728000", "113904.731000", "113904.735000", "113904.738000", "113904.742000", "113904.745000", "113904.748000", "113904.752000", "113904.755000", "113904.758000", "113904.762000", "113904.765000", "113904.768000", "113904.772000", "113904.775000", "113904.779000", "113904.782000", "113904.785000", "113904.789000", "113904.792000", "113904.795000", "113904.799000", "113904.802000", "113904.805000", "113944.717000", "113944.721000", "113944.724000", "113944.728000", "113944.731000", "113944.734000", "113944.738000", "113944.741000", "113944.744000", "113944.748000", "113944.751000", "113944.755000", "113944.758000", "113944.761000", "113944.780000", "113944.783000", "113944.786000", "113944.790000", "113944.793000", "113944.796000", "113944.800000", "113944.803000", "113944.807000", "113944.810000", "113944.813000", "113944.817000", "113944.820000", "114024.719000", "114024.723000", "114024.726000", "114024.730000", "114024.733000", "114024.737000", "114024.741000", "114024.744000", "114024.748000", "114024.751000", "114024.754000", "114024.758000", "114024.761000", "114024.764000", "114024.768000", "114024.771000", "114024.775000", "114024.778000", "114024.781000", "114024.785000", "114024.788000", "114024.791000", "114024.795000", "114024.798000", "114024.802000", "114024.805000", "114104.718000", "114104.722000", "114104.725000", "114104.729000", "114104.732000", "114104.736000", "114104.739000", "114104.742000", "114104.746000", "114104.749000", "114104.752000", "114104.756000", "114104.759000", "114104.763000", "114104.766000", "114104.769000", "114104.773000", "114104.776000", "114104.780000", "114104.783000", "114104.786000", "114104.790000", "114104.793000", "114104.797000", "114104.800000", "114104.803000", "114104.807000", "114144.717000", "114144.721000", "114144.724000", "114144.728000", "114144.731000", "114144.735000", "114144.738000", "114144.741000", "114144.745000", "114144.748000", "114144.751000", "114144.755000", "114144.758000", "114144.762000", "114144.765000", "114144.768000", "114144.788000", "114144.791000", "114144.794000", "114144.798000", "114144.801000", "114144.805000", "114144.808000", "114144.811000", "114144.815000", "114144.818000", "114144.841000", "114224.717000", "114224.721000", "114224.724000", "114224.728000", "114224.731000", "114224.735000", "114224.738000", "114224.741000", "114224.745000", "114224.748000", "114224.752000", "114224.755000", "114224.758000", "114224.762000", "114224.765000", "114224.768000", "114224.772000", "114224.775000", "114224.779000", "114224.782000", "114224.785000", "114224.789000", "114224.792000", "114224.795000", "114224.799000", "114224.802000", "114224.806000", "114304.719000", "114304.723000", "114304.727000", "114304.730000", "114304.733000", "114304.737000", "114304.740000", "114304.743000", "114304.747000", "114304.752000", "114304.755000", "114304.759000", "114304.762000", "114304.765000", "114304.769000", "114304.779000", "114304.782000", "114304.786000", "114304.789000", "114304.793000", "114304.796000", "114304.799000", "114304.803000", "114304.806000", "114304.809000", "114304.813000", "114304.816000", "114344.717000", "114344.721000", "114344.724000", "114344.728000", "114344.731000", "114344.735000", "114344.738000", "114344.741000", "114344.745000", "114344.748000", "114344.751000", "114344.755000", "114344.758000", "114344.762000", "114344.765000", "114344.768000", "114344.772000", "114344.805000", "114344.809000", "114344.812000", "114344.816000", "114344.820000", "114344.823000", "114344.827000", "114344.830000", "114344.834000", "114344.837000", "114358.894000", "114358.898000", "114358.901000", "114358.904000", "114358.908000", "114358.911000", "114358.914000", "114358.930000", "114358.934000"],
