{
  "AcquisitionMatrixPE": 104,
  "AcquisitionNumber": 1,
  "AcquisitionTime": "11:33:34.212500",
  "BandwidthPerPixelPhaseEncode": 17.17,
  "BaseResolution": 104,
  "BodyPartExamined": "BRAIN",
  "CoilString": "HC1-7;NC1_2",
  "ConsistencyInfo": "N4_VE11C_LATEST_20160120",
  "ConversionSoftware": "dcm2niix",
  "ConversionSoftwareVersion": "v1.0.20190902",
  "DerivedVendorReportedEchoSpacing": 0.000560011,
  "DeviceSerialNumber": "167006",
  "DwellTime": 2.1e-06,
  "EchoTime": 0.037,
  "EchoTrainLength": 104,
  "EffectiveEchoSpacing": 0.000560011,
  "FlipAngle": 52,
  "HeudiconvVersion": "0.10.0",
  "ImageComments": "Unaliased_MB4_PE3_LB",
  "ImageOrientationPatientDICOM": [0.999234, 0.0245156, 0.0305022, -0.00959223, 0.90911, -0.416447],
  "ImageType": [
    "ORIGINAL",
    "PRIMARY",
    "P",
    "MB",
    "ND",
    "MOSAIC"
],
  "ImagingFrequency": 123.259,
  "InPlanePhaseEncodingDirectionDICOM": "COL",
  "InstitutionAddress": "Chemin_Queen-Mary_4565_Montreal_District_CA_H3W_1W5",
  "InstitutionName": "IUGM",
  "InstitutionalDepartmentName": "Department",
  "MRAcquisitionType": "2D",
  "MagneticFieldStrength": 3,
  "Manufacturer": "Siemens",
  "ManufacturersModelName": "Prisma_fit",
  "Modality": "MR",
  "MultibandAccelerationFactor": 4,
  "PartialFourier": 1,
  "PatientPosition": "HFS",
  "PercentPhaseFOV": 100,
  "PhaseEncodingDirection": "j",
  "PhaseEncodingSteps": 104,
  "PhaseResolution": 1,
  "PixelBandwidth": 2290,
  "ProcedureStepDescription": "games_mario",
  "ProtocolName": "func_task-mario_run-03",
  "PulseSequenceDetails": "%CustomerSeq%_cmrr_mbep2d_bold",
  "ReceiveCoilActiveElements": "HC1-7;NC1,2",
  "ReceiveCoilName": "HeadNeck_64",
  "ReconMatrixPE": 104,
  "RepetitionTime": 1.49,
  "SAR": 0.0666961,
  "ScanOptions": "FS",
  "ScanningSequence": "EP",
  "SequenceName": "epfid2d1_104",
  "SequenceVariant": "SK_SS",
  "SeriesDescription": "func_task-mario_run-03",
  "SeriesNumber": 17,
  "ShimSetting": [630, -7156, -8859, 569, 85, 137, -29, -1],
  "SliceThickness": 2,
  "SliceTiming": [0, 0.7825, 0.0975, 0.8825, 0.195, 0.98, 0.2925, 1.0775, 0.3925, 1.175, 0.49, 1.2725, 0.5875, 1.3725, 0.685, 0, 0.7825, 0.0975, 0.8825, 0.195, 0.98, 0.2925, 1.0775, 0.3925, 1.175, 0.49, 1.2725, 0.5875, 1.3725, 0.685, 0, 0.7825, 0.0975, 0.8825, 0.195, 0.98, 0.2925, 1.0775, 0.3925, 1.175, 0.49, 1.2725, 0.5875, 1.3725, 0.685, 0, 0.7825, 0.0975, 0.8825, 0.195, 0.98, 0.2925, 1.0775, 0.3925, 1.175, 0.49, 1.2725, 0.5875, 1.3725, 0.685],
  "SoftwareVersions": "syngo_MR_E11",
  "SpacingBetweenSlices": 2,
  "StationName": "MRC35049",
  "TaskName": "mario",
  "TotalReadoutTime": 0.0576811,
  "TxRefAmp": 312.859,
  "WipMemBlock": "57f06fae-174e-46c9-8885-9942d8e3a6e9||Sequence: R016 ve11c/master r/e634e98; Dec 19 2017 11:00:25 by eja",
  "dcmmeta_affine": [
    [-1.998468041419983, -0.019184459000825882, 0.0758785605430603, 106.32184600830078],
    [-0.049031294882297516, 1.8182191848754883, -0.8316699862480164, -53.595394134521484],
    [0.06100435554981232, 0.8328931927680969, 1.8172967433929443, -74.7378158569336],
    [0.0, 0.0, 0.0, 1.0]
],
  "dcmmeta_reorient_transform": [
    [0.0, -1.0, 0.0, 103.0],
    [1.0, 0.0, 0.0, 0.0],
    [0.0, 0.0, 1.0, 0.0],
    [0.0, 0.0, 0.0, 1.0]
],
  "dcmmeta_shape": [104, 104, 60, 418],
  "dcmmeta_slice_dim": 2,
  "dcmmeta_version": 0.6,
  "global": {
    "const": {
      "AcquisitionMatrix": [104, 0, 0, 104],
      "AngioFlag": "N",
      "BitsAllocated": 16,
      "BitsStored": 16,
      "BodyPartExamined": "BRAIN",
      "Columns": 832,
      "EchoNumbers": 1,
      "EchoTime": 37.0,
      "EchoTrainLength": 104,
      "FlipAngle": 52.0,
      "HighBit": 15,
      "ImageOrientationPatient": [0.99923400673003, 0.02451564756669, 0.03050217727715, -0.0095922299258, 0.90910957927351, -0.4164465896105],
      "ImagePositionPatient": [-824.80505746134, -813.36034476742, 292.01771547782],
      "ImageType": [
        "ORIGINAL",
        "PRIMARY",
        "P",
        "MB",
        "ND",
        "MOSAIC"
],
      "ImagedNucleus": "1H",
      "ImagingFrequency": 123.25894,
      "InPlanePhaseEncodingDirection": "COL",
      "LargestImagePixelValue": 4095,
      "MRAcquisitionType": "2D",
      "MagneticFieldStrength": 3.0,
      "Manufacturer": "SIEMENS",
      "ManufacturerModelName": "Prisma_fit",
      "Modality": "MR",
      "NumberOfAverages": 1.0,
      "NumberOfPhaseEncodingSteps": 104,
      "PercentPhaseFieldOfView": 100.0,
      "PercentSampling": 100.0,
      "PerformedProcedureStepStartTime": "103329.064000",
      "PhotometricInterpretation": "MONOCHROME2",
      "PixelBandwidth": 2290.0,
      "PixelRepresentation": 0,
      "PixelSpacing": [2.0, 2.0],
      "ProtocolName": "func_task-mario_run-03",
      "RepetitionTime": 1490.0,
      "RescaleIntercept": -4096.0,
      "RescaleSlope": 2.0,
      "RescaleType": "US",
      "Rows": 832,
      "SAR": 0.06669614822407,
      "SamplesPerPixel": 1,
      "ScanOptions": "FS",
      "ScanningSequence": "EP",
      "SequenceName": "epfid2d1_104",
      "SequenceVariant": [
        "SK",
        "SS"
],
      "SeriesDescription": "func_task-mario_run-03",
      "SeriesNumber": 17,
      "SeriesTime": "113505.384000",
      "SliceLocation": -41.589777587753,
      "SliceThickness": 2.0,
      "SmallestImagePixelValue": 0,
      "SoftwareVersions": "syngo MR E11",
      "SpacingBetweenSlices": 1.9999999793726,
      "SpecificCharacterSet": "ISO_IR 100",
      "StudyID": "1",
      "StudyTime": "103328.991000",
      "TransmitCoilName": "Body",
      "VariableFlipAngleFlag": "N",
      "WindowCenterWidthExplanation": "Algo1",
      "dBdt": 0.0},
    "slices": {}
  },
  "time": {
    "samples": {
      "AcquisitionNumber": [1, 2, 3, 4, 5, 6, 7, 8, 9, 10, 11, 12, 13, 14, 15, 16, 17, 18, 19, 20, 21, 22, 23, 24, 25, 26, 27, 28, 29, 30, 31, 32, 33, 34, 35, 36, 37, 38, 39, 40, 41, 42, 43, 44, 45, 46, 47, 48, 49, 50, 51, 52, 53, 54, 55, 56, 57, 58, 59, 60, 61, 62, 63, 64, 65, 66, 67, 68, 69, 70, 71, 72, 73, 74, 75, 76, 77, 78, 79, 80, 81, 82, 83, 84, 85, 86, 87, 88, 89, 90, 91, 92, 93, 94, 95, 96, 97, 98, 99, 100, 101, 102, 103, 104, 105, 106, 107, 108, 109, 110, 111, 112, 113, 114, 115, 116, 117, 118, 119, 120, 121, 122, 123, 124, 125, 126, 127, 128, 129, 130, 131, 132, 133, 134, 135, 136, 137, 138, 139, 140, 141, 142, 143, 144, 145, 146, 147, 148, 149, 150, 151, 152, 153, 154, 155, 156, 157, 158, 159, 160, 161, 162, 163, 164, 165, 166, 167, 168, 169, 170, 171, 172, 173, 174, 175, 176, 177, 178, 179, 180, 181, 182, 183, 184, 185, 186, 187, 188, 189, 190, 191, 192, 193, 194, 195, 196, 197, 198, 199, 200, 201, 202, 203, 204, 205, 206, 207, 208, 209, 210, 211, 212, 213, 214, 215, 216, 217, 218, 219, 220, 221, 222, 223, 224, 225, 226, 227, 228, 229, 230, 231, 232, 233, 234, 235, 236, 237, 238, 239, 240, 241, 242, 243, 244, 245, 246, 247, 248, 249, 250, 251, 252, 253, 254, 255, 256, 257, 258, 259, 260, 261, 262, 263, 264, 265, 266, 267, 268, 269, 270, 271, 272, 273, 274, 275, 276, 277, 278, 279, 280, 281, 282, 283, 284, 285, 286, 287, 288, 289, 290, 291, 292, 293, 294, 295, 296, 297, 298, 299, 300, 301, 302, 303, 304, 305, 306, 307, 308, 309, 310, 311, 312, 313, 314, 315, 316, 317, 318, 319, 320, 321, 322, 323, 324, 325, 326, 327, 328, 329, 330, 331, 332, 333, 334, 335, 336, 337, 338, 339, 340, 341, 342, 343, 344, 345, 346, 347, 348, 349, 350, 351, 352, 353, 354, 355, 356, 357, 358, 359, 360, 361, 362, 363, 364, 365, 366, 367, 368, 369, 370, 371, 372, 373, 374, 375, 376, 377, 378, 379, 380, 381, 382, 383, 384, 385, 386, 387, 388, 389, 390, 391, 392, 393, 394, 395, 396, 397, 398, 399, 400, 401, 402, 403, 404, 405, 406, 407, 408, 409, 410, 411, 412, 413, 414, 415, 416, 417, 418],
      "AcquisitionTime": ["113334.212500", "113335.702500", "113337.192500", "113338.682500", "113340.172500", "113341.662500", "113343.152500", "113344.642500", "113346.132500", "113347.622500", "113349.112500", "113350.602500", "113352.092500", "113353.582500", "113355.072500", "113356.562500", "113358.052500", "113359.542500", "113401.032500", "113402.522500", "113404.012500", "113405.502500", "113406.992500", "113408.482500", "113409.972500", "113411.462500", "113412.952500", "113414.442500", "113415.932500", "113417.422500", "113418.912500", "113420.402500", "113421.892500", "113423.382500", "113424.872500", "113426.362500", "113427.852500", "113429.342500", "113430.832500", "113432.322500", "113433.812500", "113435.302500", "113436.792500", "113438.282500", "113439.772500", "113441.262500", "113442.752500", "113444.242500", "113445.732500", "113447.222500", "113448.712500", "113450.202500", "113451.692500", "113453.182500", "113454.672500", "113456.162500", "113457.652500", "113459.142500", "113500.632500", "113502.122500", "113503.612500", "113505.102500", "113506.592500", "113508.082500", "113509.572500", "113511.062500", "113512.552500", "113514.042500", "113515.532500", "113517.022500", "113518.512500", "113520.002500", "113521.492500", "113522.982500", "113524.472500", "113525.962500", "113527.452500", "113528.942500", "113530.432500", "113531.922500", "113533.412500", "113534.902500", "113536.392500", "113537.882500", "113539.372500", "113540.862500", "113542.352500", "113543.842500", "113545.332500", "113546.822500", "113548.312500", "113549.802500", "113551.292500", "113552.782500", "113554.272500", "113555.762500", "113557.252500", "113558.742500", "113600.232500", "113601.722500", "113603.212500", "113604.702500", "113606.192500", "113607.682500", "113609.172500", "113610.662500", "113612.152500", "113613.642500", "113615.132500", "113616.622500", "113618.112500", "113619.602500", "113621.092500", "113622.582500", "113624.072500", "113625.562500", "113627.052500", "113628.542500", "113630.032500", "113631.522500", "113633.012500", "113634.502500", "113635.992500", "113637.482500", "113638.972500", "113640.462500", "113641.952500", "113643.442500", "113644.932500", "113646.422500", "113647.912500", "113649.402500", "113650.892500", "113652.382500", "113653.872500", "113655.362500", "113656.852500", "113658.342500", "113659.832500", "113701.322500", "113702.812500", "113704.302500", "113705.792500", "113707.282500", "113708.772500", "113710.262500", "113711.752500", "113713.242500", "113714.732500", "113716.222500", "113717.712500", "113719.202500", "113720.692500", "113722.182500", "113723.672500", "113725.162500", "113726.652500", "113728.142500", "113729.632500", "113731.122500", "113732.612500", "113734.102500", "113735.592500", "113737.082500", "113738.572500", "113740.062500", "113741.552500", "113743.042500", "113744.532500", "113746.022500", "113747.512500", "113749.002500", "113750.492500", "113751.982500", "113753.472500", "113754.962500", "113756.452500", "113757.942500", "113759.432500", "113800.922500", "113802.412500", "113803.902500", "113805.392500", "113806.882500", "113808.372500", "113809.862500", "113811.352500", "113812.842500", "113814.332500", "113815.822500", "113817.312500", "113818.802500", "113820.292500", "113821.782500", "113823.272500", "113824.762500", "113826.252500", "113827.742500", "113829.232500", "113830.722500", "113832.212500", "113833.702500", "113835.192500", "113836.682500", "113838.172500", "113839.662500", "113841.152500", "113842.642500", "113844.132500", "113845.622500", "113847.112500", "113848.602500", "113850.092500", "113851.582500", "113853.072500", "113854.562500", "113856.052500", "113857.542500", "113859.032500", "113900.522500", "113902.012500", "113903.502500", "113904.992500", "113906.482500", "113907.972500", "113909.462500", "113910.952500", "113912.442500", "113913.932500", "113915.422500", "113916.912500", "113918.402500", "113919.892500", "113921.382500", "113922.872500", "113924.362500", "113925.852500", "113927.342500", "113928.832500", "113930.322500", "113931.812500", "113933.302500", "113934.792500", "113936.282500", "113937.772500", "113939.262500", "113940.752500", "113942.242500", "113943.732500", "113945.222500", "113946.712500", "113948.202500", "113949.692500", "113951.182500", "113952.672500", "113954.162500", "113955.652500", "113957.142500", "113958.632500", "114000.122500", "114001.612500", "114003.102500", "114004.592500", "114006.082500", "114007.572500", "114009.062500", "114010.552500", "114012.042500", "114013.532500", "114015.022500", "114016.512500", "114018.002500", "114019.492500", "114020.982500", "114022.472500", "114023.962500", "114025.452500", "114026.942500", "114028.432500", "114029.922500", "114031.412500", "114032.902500", "114034.392500", "114035.882500", "114037.372500", "114038.862500", "114040.352500", "114041.842500", "114043.332500", "114044.822500", "114046.312500", "114047.802500", "114049.292500", "114050.782500", "114052.272500", "114053.762500", "114055.252500", "114056.742500", "114058.232500", "114059.722500", "114101.212500", "114102.702500", "114104.192500", "114105.682500", "114107.172500", "114108.662500", "114110.152500", "114111.642500", "114113.132500", "114114.622500", "114116.112500", "114117.602500", "114119.092500", "114120.582500", "114122.072500", "114123.562500", "114125.052500", "114126.542500", "114128.032500", "114129.522500", "114131.012500", "114132.502500", "114133.992500", "114135.482500", "114136.972500", "114138.462500", "114139.952500", "114141.442500", "114142.932500", "114144.422500", "114145.912500", "114147.402500", "114148.892500", "114150.382500", "114151.872500", "114153.362500", "114154.852500", "114156.342500", "114157.832500", "114159.322500", "114200.812500", "114202.302500", "114203.792500", "114205.282500", "114206.772500", "114208.262500", "114209.752500", "114211.242500", "114212.732500", "114214.222500", "114215.712500", "114217.202500", "114218.692500", "114220.182500", "114221.672500", "114223.162500", "114224.652500", "114226.142500", "114227.632500", "114229.122500", "114230.612500", "114232.102500", "114233.592500", "114235.082500", "114236.572500", "114238.062500", "114239.552500", "114241.042500", "114242.532500", "114244.022500", "114245.512500", "114247.002500", "114248.492500", "114249.982500", "114251.472500", "114252.962500", "114254.452500", "114255.942500", "114257.432500", "114258.922500", "114300.412500", "114301.902500", "114303.392500", "114304.882500", "114306.372500", "114307.862500", "114309.352500", "114310.842500", "114312.332500", "114313.822500", "114315.312500", "114316.802500", "114318.292500", "114319.782500", "114321.272500", "114322.762500", "114324.252500", "114325.742500", "114327.232500", "114328.722500", "114330.212500", "114331.702500", "114333.192500", "114334.682500", "114336.172500", "114337.662500", "114339.152500", "114340.642500", "114342.132500", "114343.622500", "114345.112500", "114346.602500", "114348.092500", "114349.582500", "114351.072500", "114352.562500", "114354.052500", "114355.542500"],
      "ContentTime": ["113505.386000", "113505.389000", "113505.391000", "113505.394000", "113505.396000", "113505.399000", "113505.401000", "113505.404000", "113505.406000", "113505.409000", "113505.411000", "113505.414000", "113505.417000", "113505.419000", "113505.422000", "113505.424000", "113505.427000", "113505.429000", "113505.432000", "113505.434000", "113505.437000", "113505.439000", "113505.442000", "113505.444000", "113505.447000", "113505.449000", "113505.452000", "113505.454000", "113505.457000", "113505.459000", "113505.462000", "113505.464000", "113505.467000", "113505.469000", "113505.472000", "113505.474000", "113505.477000", "113505.489000", "113524.829000", "113524.832000", "113524.834000", "113524.837000", "113524.840000", "113524.842000", "113524.845000", "113524.847000", "113524.850000", "113524.852000", "113524.854000", "113524.857000", "113524.859000", "113524.862000", "113524.865000", "113524.867000", "113524.870000", "113524.872000", "113524.875000", "113524.877000", "113544.834000", "113544.836000", "113544.839000", "113544.841000", "113544.844000", "113544.846000", "113544.849000", "113544.851000", "113544.854000", "113544.856000", "113544.859000", "113544.862000", "113544.864000", "113544.867000", "113544.869000", "113544.872000", "113544.874000", "113544.877000", "113544.879000", "113544.882000", "113604.828000", "113604.831000", "113604.833000", "113604.836000", "113604.838000", "113604.841000", "113604.843000", "113604.846000", "113604.849000", "113604.851000", "113604.854000", "113604.856000", "113604.859000", "113604.862000", "113604.864000", "113604.867000", "113604.869000", "113604.872000", "113604.874000", "113604.877000", "113624.797000", "113624.799000", "113624.802000", "113624.805000", "113624.807000", "113624.810000", "113624.812000", "113624.815000", "113624.817000", "113624.820000", "113624.822000", "113624.825000", "113624.827000", "113624.830000", "113624.832000", "113704.862000", "113704.865000", "113704.867000", "113704.870000", "113704.872000", "113704.875000", "113704.877000", "113704.880000", "113704.882000", "113704.885000", "113704.887000", "113704.890000", "113704.892000", "113704.895000", "113704.897000", "113704.900000", "113704.902000", "113704.905000", "113704.907000", "113704.910000", "113704.913000", "113704.915000", "113704.918000", "113704.920000", "113704.923000", "113704.925000", "113704.929000", "113744.852000", "113744.855000", "113744.857000", "113744.860000", "113744.863000", "113744.865000", "113744.868000", "113744.870000", "113744.873000", "113744.875000", "113744.878000", "113744.880000", "113744.883000", "113744.885000", "113744.888000", "113744.890000", "113744.893000", "113744.895000", "113744.898000", "113744.906000", "113744.909000", "113744.911000", "113744.914000", "113744.916000", "113744.919000", "113744.921000", "113744.924000", "113824.855000", "113824.858000", "113824.860000", "113824.863000", "113824.865000", "113824.868000", "113824.870000", "113824.873000", "113824.875000", "113824.878000", "113824.880000", "113824.883000", "113824.885000", "113824.888000", "113824.891000", "113824.893000", "113824.896000", "113824.898000", "113824.901000", "113824.903000", "113824.906000", "113824.908000", "113824.911000", "113824.913000", "113824.916000", "113824.918000", "113824.921000", "113904.845000", "113904.848000", "113904.851000", "113904.853000", "113904.856000", "113904.858000", "113904.861000", "113904.863000", "113904.866000", "113904.868000", "113904.871000", "113904.873000", "113904.876000", "113904.879000", "113904.881000", "113904.884000", "113904.886000", "113904.889000", "113904.891000", "113904.894000", "113904.897000", "113904.899000", "113904.902000", "113904.904000", "113904.907000", "113904.909000", "113904.912000", "113944.870000", "113944.873000", "113944.875000", "113944.878000", "113944.881000", "113944.883000", "113944.886000", "113944.888000", "113944.891000", "113944.893000", "113944.896000", "113944.898000", "113944.901000", "113944.903000", "113944.906000", "113944.908000", "113944.911000", "113944.914000", "113944.916000", "113944.919000", "113944.921000", "113944.924000", "113944.926000", "113944.929000", "113944.931000", "113944.934000", "113944.936000", "114024.862000", "114024.865000", "114024.867000", "114024.870000", "114024.872000", "114024.875000", "114024.877000", "114024.880000", "114024.882000", "114024.885000", "114024.887000", "114024.890000", "114024.893000", "114024.895000", "114024.898000", "114024.900000", "114024.903000", "114024.905000", "114024.908000", "114024.910000", "114024.913000", "114024.915000", "114024.918000", "114024.920000", "114024.923000", "114024.925000", "114104.858000", "114104.861000", "114104.864000", "114104.866000", "114104.869000", "114104.871000", "114104.874000", "114104.877000", "114104.879000", "114104.882000", "114104.884000", "114104.887000", "114104.889000", "114104.892000", "114104.894000", "114104.897000", "114104.899000", "114104.902000", "114104.904000", "114104.907000", "114104.909000", "114104.912000", "114104.914000", "114104.917000", "114104.919000", "114104.922000", "114104.924000", "114144.900000", "114144.903000", "114144.906000", "114144.908000", "114144.911000", "114144.913000", "114144.916000", "114144.918000", "114144.921000", "114144.923000", "114144.926000", "114144.928000", "114144.931000", "114144.933000", "114144.936000", "114144.938000", "114144.941000", "114144.943000", "114144.946000", "114144.949000", "114144.951000", "114144.954000", "114144.956000", "114144.959000", "114144.961000", "114144.964000", "114144.966000", "114224.846000", "114224.849000", "114224.851000", "114224.854000", "114224.856000", "114224.859000", "114224.861000", "114224.864000", "114224.866000", "114224.869000", "114224.872000", "114224.874000", "114224.877000", "114224.879000", "114224.882000", "114224.884000", "114224.887000", "114224.889000", "114224.892000", "114224.894000", "114224.897000", "114224.899000", "114224.902000", "114224.904000", "114224.907000", "114224.909000", "114224.912000", "114304.860000", "114304.863000", "114304.866000", "114304.868000", "114304.871000", "114304.873000", "114304.876000", "114304.878000", "114304.881000", "114304.883000", "114304.886000", "114304.888000", "114304.891000", "114304.893000", "114304.896000", "114304.898000", "114304.901000", "114304.904000", "114304.906000", "114304.909000", "114304.911000", "114304.914000", "114304.916000", "114304.919000", "114304.921000", "114304.924000", "114304.926000", "114344.886000", "114344.888000", "114344.891000", "114344.893000", "114344.896000", "114344.899000", "114344.901000", "114344.904000", "114344.906000", "114344.909000", "114344.911000", "114344.914000", "114344.916000", "114344.919000", "114344.921000", "114344.924000", "114344.926000", "114344.929000", "114344.932000", "114344.934000", "114344.937000", "114344.939000", "114344.942000", "114344.944000", "114344.947000", "114344.949000", "114344.952000", "114358.967000", "114358.970000", "114358.973000", "114358.975000", "114358.978000", "114358.980000", "114358.983000", "114358.985000", "114358.988000"],
      "InstanceCreationTime": ["113505.386000", "113505.389000", "113505.391000", "113505.394000", "113505.396000", "113505.399000", "113505.401000", "113505.404000", "113505.406000", "113505.409000", "113505.411000", "113505.414000", "113505.417000", "113505.419000", "113505.422000", "113505.424000", "113505.427000", "113505.429000", "113505.432000", "113505.434000", "113505.437000", "113505.439000", "113505.442000", "113505.444000", "113505.447000", "113505.449000", "113505.452000", "113505.454000", "113505.457000", "113505.459000", "113505.462000", "113505.464000", "113505.467000", "113505.469000", "113505.472000", "113505.474000", "113505.477000", "113505.489000", "113524.829000", "113524.832000", "113524.834000", "113524.837000", "113524.840000", "113524.842000", "113524.845000", "113524.847000", "113524.850000", "113524.852000", "113524.854000", "113524.857000", "113524.859000", "113524.862000", "113524.865000", "113524.867000", "113524.870000", "113524.872000", "113524.875000", "113524.877000", "113544.834000", "113544.836000", "113544.839000", "113544.841000", "113544.844000", "113544.846000", "113544.849000", "113544.851000", "113544.854000", "113544.856000", "113544.859000", "113544.862000", "113544.864000", "113544.867000", "113544.869000", "113544.872000", "113544.874000", "113544.877000", "113544.879000", "113544.882000", "113604.828000", "113604.831000", "113604.833000", "113604.836000", "113604.838000", "113604.841000", "113604.843000", "113604.846000", "113604.849000", "113604.851000", "113604.854000", "113604.856000", "113604.859000", "113604.862000", "113604.864000", "113604.867000", "113604.869000", "113604.872000", "113604.874000", "113604.877000", "113624.797000", "113624.799000", "113624.802000", "113624.805000", "113624.807000", "113624.810000", "113624.812000", "113624.815000", "113624.817000", "113624.820000", "113624.822000", "113624.825000", "113624.827000", "113624.830000", "113624.832000", "113704.862000", "113704.865000", "113704.867000", "113704.870000", "113704.872000", "113704.875000", "113704.877000", "113704.880000", "113704.882000", "113704.885000", "113704.887000", "113704.890000", "113704.892000", "113704.895000", "113704.897000", "113704.900000", "113704.902000", "113704.905000", "113704.907000", "113704.910000", "113704.913000", "113704.915000", "113704.918000", "113704.920000", "113704.923000", "113704.925000", "113704.929000", "113744.852000", "113744.855000", "113744.857000", "113744.860000", "113744.863000", "113744.865000", "113744.868000", "113744.870000", "113744.873000", "113744.875000", "113744.878000", "113744.880000", "113744.883000", "113744.885000", "113744.888000", "113744.890000", "113744.893000", "113744.895000", "113744.898000", "113744.906000", "113744.909000", "113744.911000", "113744.914000", "113744.916000", "113744.919000", "113744.921000", "113744.924000", "113824.855000", "113824.858000", "113824.860000", "113824.863000", "113824.865000", "113824.868000", "113824.870000", "113824.873000", "113824.875000", "113824.878000", "113824.880000", "113824.883000", "113824.885000", "113824.888000", "113824.891000", "113824.893000", "113824.896000", "113824.898000", "113824.901000", "113824.903000", "113824.906000", "113824.908000", "113824.911000", "113824.913000", "113824.916000", "113824.918000", "113824.921000", "113904.845000", "113904.848000", "113904.851000", "113904.853000", "113904.856000", "113904.858000", "113904.861000", "113904.863000", "113904.866000", "113904.868000", "113904.871000", "113904.873000", "113904.876000", "113904.879000", "113904.881000", "113904.884000", "113904.886000", "113904.889000", "113904.891000", "113904.894000", "113904.897000", "113904.899000", "113904.902000", "113904.904000", "113904.907000", "113904.909000", "113904.912000", "113944.870000", "113944.873000", "113944.875000", "113944.878000", "113944.881000", "113944.883000", "113944.886000", "113944.888000", "113944.891000", "113944.893000", "113944.896000", "113944.898000", "113944.901000", "113944.903000", "113944.906000", "113944.908000", "113944.911000", "113944.914000", "113944.916000", "113944.919000", "113944.921000", "113944.924000", "113944.926000", "113944.929000", "113944.931000", "113944.934000", "113944.936000", "114024.862000", "114024.865000", "114024.867000", "114024.870000", "114024.872000", "114024.875000", "114024.877000", "114024.880000", "114024.882000", "114024.885000", "114024.887000", "114024.890000", "114024.893000", "114024.895000", "114024.898000", "114024.900000", "114024.903000", "114024.905000", "114024.908000", "114024.910000", "114024.913000", "114024.915000", "114024.918000", "114024.920000", "114024.923000", "114024.925000", "114104.858000", "114104.861000", "114104.864000", "114104.866000", "114104.869000", "114104.871000", "114104.874000", "114104.877000", "114104.879000", "114104.882000", "114104.884000", "114104.887000", "114104.889000", "114104.892000", "114104.894000", "114104.897000", "114104.899000", "114104.902000", "114104.904000", "114104.907000", "114104.909000", "114104.912000", "114104.914000", "114104.917000", "114104.919000", "114104.922000", "114104.924000", "114144.900000", "114144.903000", "114144.906000", "114144.908000", "114144.911000", "114144.913000", "114144.916000", "114144.918000", "114144.921000", "114144.923000", "114144.926000", "114144.928000", "114144.931000", "114144.933000", "114144.936000", "114144.938000", "114144.941000", "114144.943000", "114144.946000", "114144.949000", "114144.951000", "114144.954000", "114144.956000", "114144.959000", "114144.961000", "114144.964000", "114144.966000", "114224.846000", "114224.849000", "114224.851000", "114224.854000", "114224.856000", "114224.859000", "114224.861000", "114224.864000", "114224.866000", "114224.869000", "114224.872000", "114224.874000", "114224.877000", "114224.879000", "114224.882000", "114224.884000", "114224.887000", "114224.889000", "114224.892000", "114224.894000", "114224.897000", "114224.899000", "114224.902000", "114224.904000", "114224.907000", "114224.909000", "114224.912000", "114304.860000", "114304.863000", "114304.866000", "114304.868000", "114304.871000", "114304.873000", "114304.876000", "114304.878000", "114304.881000", "114304.883000", "114304.886000", "114304.888000", "114304.891000", "114304.893000", "114304.896000", "114304.898000", "114304.901000", "114304.904000", "114304.906000", "114304.909000", "114304.911000", "114304.914000", "114304.916000", "114304.919000", "114304.921000", "114304.924000", "114304.926000", "114344.886000", "114344.888000", "114344.891000", "114344.893000", "114344.896000", "114344.899000", "114344.901000", "114344.904000", "114344.906000", "114344.909000", "114344.911000", "114344.914000", "114344.916000", "114344.919000", "114344.921000", "114344.924000", "114344.926000", "114344.929000", "114344.932000", "114344.934000", "114344.937000", "114344.939000", "114344.942000", "114344.944000", "114344.947000", "114344.949000", "114344.952000", "114358.967000", "114358.970000", "114358.973000", "114358.975000", "114358.978000", "114358.980000", "114358.983000", "114358.985000", "114358.988000"],
