{
  "AcquisitionMatrixPE": 104,
  "AcquisitionNumber": 1,
  "AcquisitionTime": "16:03:24.512500",
  "BandwidthPerPixelPhaseEncode": 17.17,
  "BaseResolution": 104,
  "BodyPartExamined": "BRAIN",
  "CoilCombinationMethod": "Sum of Squares",
  "ConsistencyInfo": "N4_VE11C_LATEST_20160120",
  "ConversionSoftware": "dcm2niix",
  "ConversionSoftwareVersion": "v1.0.20211006",
  "DerivedVendorReportedEchoSpacing": 0.000560011,
  "DeviceSerialNumber": "167006",
  "DwellTime": 2.1e-06,
  "EchoTime": 0.037,
  "EchoTime1": 0.037,
  "EchoTime2": 0.001,
  "EchoTrainLength": 104,
  "EffectiveEchoSpacing": 0.000560011,
  "FlipAngle": 52,
  "HeudiconvVersion": "0.11.3.post9+gc939bf8",
  "ImageComments": "Unaliased MB4/PE3/LB",
  "ImageOrientationPatientDICOM": [0.999371, 0.0126271, 0.0331514, -0.00383733, 0.967502, -0.252833],
  "ImageOrientationText": "Tra>Cor(-14.6)>Sag(2.0)",
  "ImageType": [
    "ORIGINAL",
    "PRIMARY",
    "P",
    "MB",
    "ND",
    "MOSAIC",
    "PHASE"
],
  "ImagingFrequency": 123.259,
  "InPlanePhaseEncodingDirectionDICOM": "COL",
  "InstitutionAddress": "Chemin Queen-Mary 4565,Montreal,District,CA,H3W 1W5",
  "InstitutionName": "IUGM",
  "InstitutionalDepartmentName": "Department",
  "MRAcquisitionType": "2D",
  "MagneticFieldStrength": 3,
  "Manufacturer": "Siemens",
  "ManufacturersModelName": "Prisma_fit",
  "MatrixCoilMode": "SENSE",
  "Modality": "MR",
  "MultibandAccelerationFactor": 4,
  "PartialFourier": 1,
  "PatientPosition": "HFS",
  "PercentPhaseFOV": 100,
  "PercentSampling": 100,
  "PhaseEncodingDirection": "j",
  "PhaseEncodingSteps": 104,
  "PhaseResolution": 1,
  "PixelBandwidth": 2290,
  "ProcedureStepDescription": "games^mario",
  "ProtocolName": "func_task-mario_run-01",
  "PulseSequenceDetails": "%CustomerSeq%\\cmrr_mbep2d_bold",
  "ReceiveCoilActiveElements": "HC1-7;NC1,2",
  "ReceiveCoilName": "HeadNeck_64",
  "ReconMatrixPE": 104,
  "RepetitionTime": 1.49,
  "SAR": 0.0599455,
  "ScanOptions": "FS",
  "ScanningSequence": "EP",
  "SequenceName": "epfid2d1_104",
  "SequenceVariant": "SK\\SS",
  "SeriesDescription": "func_task-mario_run-01",
  "SeriesNumber": 11,
  "ShimSetting": [633, -7214, -8806, 729, 38, -1, 72, 3],
  "SliceThickness": 2,
  "SliceTiming": [0, 0.7825, 0.0975, 0.88, 0.195, 0.98, 0.2925, 1.0775, 0.39, 1.175, 0.49, 1.2725, 0.5875, 1.37, 0.685, 0, 0.7825, 0.0975, 0.88, 0.195, 0.98, 0.2925, 1.0775, 0.39, 1.175, 0.49, 1.2725, 0.5875, 1.37, 0.685, 0, 0.7825, 0.0975, 0.88, 0.195, 0.98, 0.2925, 1.0775, 0.39, 1.175, 0.49, 1.2725, 0.5875, 1.37, 0.685, 0, 0.7825, 0.0975, 0.88, 0.195, 0.98, 0.2925, 1.0775, 0.39, 1.175, 0.49, 1.2725, 0.5875, 1.37, 0.685],
  "SoftwareVersions": "syngo MR E11",
  "SpacingBetweenSlices": 2,
  "StationName": "MRC35049",
  "TaskName": "mario",
  "TotalReadoutTime": 0.0576811,
  "TxRefAmp": 248.769,
  "WipMemBlock": "b71cfd7f-559d-43ef-9d61-3cee6b8ba978||Sequence: R016 ve11c/master r/e634e98; Dec 19 2017 11:00:25 by eja",
  "dcmmeta_affine": [
    [-1.9987411499023438, -0.007674664258956909, 0.07053324580192566, 107.27093505859375],
    [-0.02525411732494831, 1.9350043535232544, -0.5050942301750183, -72.61847686767578],
    [0.06630285829305649, 0.5056669116020203, 1.9338833093643188, -69.51419830322266],
    [0.0, 0.0, 0.0, 1.0]
],
  "dcmmeta_reorient_transform": [
    [0.0, -1.0, 0.0, 103.0],
    [1.0, 0.0, 0.0, 0.0],
    [0.0, 0.0, 1.0, 0.0],
    [0.0, 0.0, 0.0, 1.0]
],
  "dcmmeta_shape": [104, 104, 60, 431],
  "dcmmeta_slice_dim": 2,
  "dcmmeta_version": 0.6,
  "global": {
    "const": {
      "AcquisitionMatrix": [104, 0, 0, 104],
      "AngioFlag": "N",
      "BitsAllocated": 16,
      "BitsStored": 16,
      "BodyPartExamined": "BRAIN",
      "Columns": 832,
      "EchoNumbers": 1,
      "EchoTime": 37.0,
      "EchoTrainLength": 104,
      "FlipAngle": 52.0,
      "HighBit": 15,
      "ImageOrientationPatient": [0.99937057200674, 0.01262705888392, 0.03315142818742, -0.0038373321147, 0.96750220321431, -0.2528334662534],
      "ImagePositionPatient": [-831.22864288725, -840.22108038274, 142.49801655344],
      "ImageType": [
        "ORIGINAL",
        "PRIMARY",
        "P",
        "MB",
        "ND",
        "MOSAIC"
],
      "ImagedNucleus": "1H",
      "ImagingFrequency": 123.258868,
      "InPlanePhaseEncodingDirection": "COL",
      "LargestImagePixelValue": 4095,
      "MRAcquisitionType": "2D",
      "MagneticFieldStrength": 3.0,
      "Manufacturer": "SIEMENS",
      "ManufacturerModelName": "Prisma_fit",
      "Modality": "MR",
      "NumberOfAverages": 1.0,
      "NumberOfPhaseEncodingSteps": 104,
      "PercentPhaseFieldOfView": 100.0,
      "PercentSampling": 100.0,
      "PerformedProcedureStepStartTime": "142035.720000",
      "PhotometricInterpretation": "MONOCHROME2",
      "PixelBandwidth": 2290.0,
      "PixelRepresentation": 0,
      "PixelSpacing": [2.0, 2.0],
      "ProtocolName": "func_task-mario_run-01",
      "RepetitionTime": 1490.0,
      "RescaleIntercept": -4096.0,
      "RescaleSlope": 2.0,
      "RescaleType": "US",
      "Rows": 832,
      "SAR": 0.05994550935677,
      "SamplesPerPixel": 1,
      "ScanOptions": "FS",
      "ScanningSequence": "EP",
      "SequenceName": "epfid2d1_104",
      "SequenceVariant": [
        "SK",
        "SS"
],
      "SeriesDescription": "func_task-mario_run-01",
      "SeriesNumber": 11,
      "SeriesTime": "160446.161000",
      "SliceLocation": -45.093508691838,
      "SliceThickness": 2.0,
      "SmallestImagePixelValue": 0,
      "SoftwareVersions": "syngo MR E11",
      "SpacingBetweenSlices": 1.9999999779291,
      "SpecificCharacterSet": "ISO_IR 100",
      "StudyID": "1",
      "StudyTime": "142035.612000",
      "TransmitCoilName": "Body",
      "VariableFlipAngleFlag": "N",
      "WindowCenterWidthExplanation": "Algo1",
      "dBdt": 0.0},
    "slices": {}
  },
  "time": {
    "samples": {
      "AcquisitionNumber": [1, 2, 3, 4, 5, 6, 7, 8, 9, 10, 11, 12, 13, 14, 15, 16, 17, 18, 19, 20, 21, 22, 23, 24, 25, 26, 27, 28, 29, 30, 31, 32, 33, 34, 35, 36, 37, 38, 39, 40, 41, 42, 43, 44, 45, 46, 47, 48, 49, 50, 51, 52, 53, 54, 55, 56, 57, 58, 59, 60, 61, 62, 63, 64, 65, 66, 67, 68, 69, 70, 71, 72, 73, 74, 75, 76, 77, 78, 79, 80, 81, 82, 83, 84, 85, 86, 87, 88, 89, 90, 91, 92, 93, 94, 95, 96, 97, 98, 99, 100, 101, 102, 103, 104, 105, 106, 107, 108, 109, 110, 111, 112, 113, 114, 115, 116, 117, 118, 119, 120, 121, 122, 123, 124, 125, 126, 127, 128, 129, 130, 131, 132, 133, 134, 135, 136, 137, 138, 139, 140, 141, 142, 143, 144, 145, 146, 147, 148, 149, 150, 151, 152, 153, 154, 155, 156, 157, 158, 159, 160, 161, 162, 163, 164, 165, 166, 167, 168, 169, 170, 171, 172, 173, 174, 175, 176, 177, 178, 179, 180, 181, 182, 183, 184, 185, 186, 187, 188, 189, 190, 191, 192, 193, 194, 195, 196, 197, 198, 199, 200, 201, 202, 203, 204, 205, 206, 207, 208, 209, 210, 211, 212, 213, 214, 215, 216, 217, 218, 219, 220, 221, 222, 223, 224, 225, 226, 227, 228, 229, 230, 231, 232, 233, 234, 235, 236, 237, 238, 239, 240, 241, 242, 243, 244, 245, 246, 247, 248, 249, 250, 251, 252, 253, 254, 255, 256, 257, 258, 259, 260, 261, 262, 263, 264, 265, 266, 267, 268, 269, 270, 271, 272, 273, 274, 275, 276, 277, 278, 279, 280, 281, 282, 283, 284, 285, 286, 287, 288, 289, 290, 291, 292, 293, 294, 295, 296, 297, 298, 299, 300, 301, 302, 303, 304, 305, 306, 307, 308, 309, 310, 311, 312, 313, 314, 315, 316, 317, 318, 319, 320, 321, 322, 323, 324, 325, 326, 327, 328, 329, 330, 331, 332, 333, 334, 335, 336, 337, 338, 339, 340, 341, 342, 343, 344, 345, 346, 347, 348, 349, 350, 351, 352, 353, 354, 355, 356, 357, 358, 359, 360, 361, 362, 363, 364, 365, 366, 367, 368, 369, 370, 371, 372, 373, 374, 375, 376, 377, 378, 379, 380, 381, 382, 383, 384, 385, 386, 387, 388, 389, 390, 391, 392, 393, 394, 395, 396, 397, 398, 399, 400, 401, 402, 403, 404, 405, 406, 407, 408, 409, 410, 411, 412, 413, 414, 415, 416, 417, 418, 419, 420, 421, 422, 423, 424, 425, 426, 427, 428, 429, 430, 431],
      "AcquisitionTime": ["160324.512500", "160326.002500", "160327.492500", "160328.982500", "160330.472500", "160331.962500", "160333.452500", "160334.942500", "160336.432500", "160337.922500", "160339.412500", "160340.902500", "160342.392500", "160343.882500", "160345.372500", "160346.862500", "160348.352500", "160349.842500", "160351.332500", "160352.822500", "160354.312500", "160355.802500", "160357.292500", "160358.782500", "160400.272500", "160401.762500", "160403.252500", "160404.742500", "160406.232500", "160407.722500", "160409.212500", "160410.702500", "160412.192500", "160413.682500", "160415.172500", "160416.662500", "160418.152500", "160419.642500", "160421.132500", "160422.622500", "160424.112500", "160425.602500", "160427.092500", "160428.582500", "160430.072500", "160431.562500", "160433.052500", "160434.542500", "160436.032500", "160437.522500", "160439.012500", "160440.502500", "160441.992500", "160443.482500", "160444.972500", "160446.462500", "160447.952500", "160449.442500", "160450.932500", "160452.422500", "160453.912500", "160455.402500", "160456.892500", "160458.382500", "160459.872500", "160501.362500", "160502.852500", "160504.342500", "160505.832500", "160507.322500", "160508.812500", "160510.302500", "160511.792500", "160513.282500", "160514.772500", "160516.262500", "160517.752500", "160519.242500", "160520.732500", "160522.222500", "160523.712500", "160525.202500", "160526.692500", "160528.182500", "160529.672500", "160531.162500", "160532.652500", "160534.142500", "160535.632500", "160537.122500", "160538.612500", "160540.102500", "160541.592500", "160543.082500", "160544.572500", "160546.062500", "160547.552500", "160549.042500", "160550.532500", "160552.022500", "160553.512500", "160555.002500", "160556.492500", "160557.982500", "160559.472500", "160600.962500", "160602.452500", "160603.942500", "160605.432500", "160606.922500", "160608.412500", "160609.902500", "160611.392500", "160612.882500", "160614.372500", "160615.862500", "160617.352500", "160618.842500", "160620.332500", "160621.822500", "160623.312500", "160624.802500", "160626.292500", "160627.782500", "160629.272500", "160630.762500", "160632.252500", "160633.742500", "160635.232500", "160636.722500", "160638.212500", "160639.702500", "160641.192500", "160642.682500", "160644.172500", "160645.662500", "160647.152500", "160648.642500", "160650.132500", "160651.622500", "160653.112500", "160654.602500", "160656.092500", "160657.582500", "160659.072500", "160700.562500", "160702.052500", "160703.542500", "160705.032500", "160706.522500", "160708.012500", "160709.502500", "160710.992500", "160712.482500", "160713.972500", "160715.462500", "160716.952500", "160718.442500", "160719.932500", "160721.422500", "160722.912500", "160724.402500", "160725.892500", "160727.382500", "160728.872500", "160730.362500", "160731.852500", "160733.342500", "160734.832500", "160736.322500", "160737.812500", "160739.302500", "160740.792500", "160742.282500", "160743.772500", "160745.262500", "160746.752500", "160748.242500", "160749.732500", "160751.222500", "160752.712500", "160754.202500", "160755.692500", "160757.182500", "160758.672500", "160800.162500", "160801.652500", "160803.142500", "160804.632500", "160806.122500", "160807.612500", "160809.102500", "160810.592500", "160812.082500", "160813.572500", "160815.062500", "160816.552500", "160818.042500", "160819.532500", "160821.022500", "160822.512500", "160824.002500", "160825.492500", "160826.982500", "160828.472500", "160829.962500", "160831.452500", "160832.942500", "160834.432500", "160835.922500", "160837.412500", "160838.902500", "160840.392500", "160841.882500", "160843.372500", "160844.862500", "160846.352500", "160847.842500", "160849.332500", "160850.822500", "160852.312500", "160853.802500", "160855.292500", "160856.782500", "160858.272500", "160859.762500", "160901.252500", "160902.742500", "160904.232500", "160905.722500", "160907.212500", "160908.702500", "160910.192500", "160911.682500", "160913.172500", "160914.662500", "160916.152500", "160917.642500", "160919.132500", "160920.622500", "160922.112500", "160923.602500", "160925.092500", "160926.582500", "160928.072500", "160929.562500", "160931.052500", "160932.542500", "160934.032500", "160935.522500", "160937.012500", "160938.502500", "160939.992500", "160941.482500", "160942.972500", "160944.462500", "160945.952500", "160947.442500", "160948.932500", "160950.422500", "160951.912500", "160953.402500", "160954.892500", "160956.382500", "160957.872500", "160959.362500", "161000.852500", "161002.342500", "161003.832500", "161005.322500", "161006.812500", "161008.302500", "161009.792500", "161011.282500", "161012.772500", "161014.262500", "161015.752500", "161017.242500", "161018.732500", "161020.222500", "161021.712500", "161023.202500", "161024.692500", "161026.182500", "161027.672500", "161029.162500", "161030.652500", "161032.142500", "161033.632500", "161035.122500", "161036.612500", "161038.102500", "161039.592500", "161041.082500", "161042.572500", "161044.062500", "161045.552500", "161047.042500", "161048.532500", "161050.022500", "161051.512500", "161053.002500", "161054.492500", "161055.982500", "161057.472500", "161058.962500", "161100.452500", "161101.942500", "161103.432500", "161104.922500", "161106.412500", "161107.902500", "161109.392500", "161110.882500", "161112.372500", "161113.862500", "161115.352500", "161116.842500", "161118.332500", "161119.822500", "161121.312500", "161122.802500", "161124.292500", "161125.782500", "161127.272500", "161128.762500", "161130.252500", "161131.742500", "161133.232500", "161134.722500", "161136.212500", "161137.702500", "161139.192500", "161140.682500", "161142.172500", "161143.662500", "161145.152500", "161146.642500", "161148.132500", "161149.622500", "161151.112500", "161152.602500", "161154.092500", "161155.582500", "161157.072500", "161158.562500", "161200.052500", "161201.542500", "161203.032500", "161204.522500", "161206.012500", "161207.502500", "161208.992500", "161210.482500", "161211.972500", "161213.462500", "161214.952500", "161216.442500", "161217.932500", "161219.422500", "161220.912500", "161222.402500", "161223.892500", "161225.382500", "161226.872500", "161228.362500", "161229.852500", "161231.342500", "161232.832500", "161234.322500", "161235.812500", "161237.302500", "161238.792500", "161240.282500", "161241.772500", "161243.262500", "161244.752500", "161246.242500", "161247.732500", "161249.222500", "161250.712500", "161252.202500", "161253.692500", "161255.182500", "161256.672500", "161258.162500", "161259.652500", "161301.142500", "161302.632500", "161304.122500", "161305.612500", "161307.102500", "161308.592500", "161310.082500", "161311.572500", "161313.062500", "161314.552500", "161316.042500", "161317.532500", "161319.022500", "161320.512500", "161322.002500", "161323.492500", "161324.982500", "161326.472500", "161327.962500", "161329.452500", "161330.942500", "161332.432500", "161333.922500", "161335.412500", "161336.902500", "161338.392500", "161339.882500", "161341.372500", "161342.862500", "161344.352500", "161345.842500", "161347.332500", "161348.822500", "161350.312500", "161351.802500", "161353.292500", "161354.782500", "161356.272500", "161357.762500", "161359.252500", "161400.742500", "161402.232500", "161403.722500", "161405.212500"],
      "ContentTime": ["160446.163000", "160446.166000", "160446.169000", "160446.171000", "160446.174000", "160446.176000", "160446.179000", "160446.181000", "160446.184000", "160446.186000", "160446.189000", "160446.191000", "160446.194000", "160446.196000", "160446.199000", "160446.201000", "160446.214000", "160446.216000", "160446.219000", "160446.221000", "160446.224000", "160446.226000", "160446.228000", "160446.231000", "160446.233000", "160446.236000", "160506.111000", "160506.114000", "160506.116000", "160506.119000", "160506.121000", "160506.124000", "160506.126000", "160506.129000", "160506.131000", "160506.134000", "160506.136000", "160506.139000", "160506.141000", "160506.143000", "160506.146000", "160506.148000", "160506.151000", "160506.153000", "160506.156000", "160506.158000", "160526.109000", "160526.111000", "160526.114000", "160526.125000", "160526.127000", "160526.130000", "160526.132000", "160526.135000", "160526.137000", "160526.140000", "160526.142000", "160526.144000", "160526.147000", "160526.149000", "160526.152000", "160526.154000", "160526.157000", "160526.159000", "160526.162000", "160526.164000", "160526.167000", "160546.107000", "160546.110000", "160546.113000", "160546.115000", "160546.118000", "160546.120000", "160546.123000", "160546.125000", "160546.128000", "160546.130000", "160546.133000", "160546.135000", "160546.138000", "160546.140000", "160546.143000", "160546.145000", "160546.148000", "160546.150000", "160546.152000", "160546.155000", "160606.113000", "160606.116000", "160606.119000", "160606.121000", "160606.124000", "160606.126000", "160606.129000", "160606.131000", "160606.134000", "160606.136000", "160606.139000", "160606.141000", "160606.144000", "160606.146000", "160606.149000", "160606.151000", "160606.154000", "160606.156000", "160606.159000", "160606.161000", "160646.138000", "160646.141000", "160646.143000", "160646.146000", "160646.148000", "160646.151000", "160646.153000", "160646.156000", "160646.158000", "160646.161000", "160646.163000", "160646.166000", "160646.168000", "160646.171000", "160646.173000", "160646.183000", "160646.185000", "160646.187000", "160646.190000", "160646.192000", "160646.195000", "160646.197000", "160646.200000", "160646.202000", "160646.205000", "160646.207000", "160646.210000", "160726.140000", "160726.143000", "160726.145000", "160726.148000", "160726.150000", "160726.153000", "160726.155000", "160726.158000", "160726.160000", "160726.163000", "160726.165000", "160726.168000", "160726.170000", "160726.173000", "160726.175000", "160726.178000", "160726.180000", "160726.183000", "160726.185000", "160726.188000", "160726.190000", "160726.193000", "160726.195000", "160726.198000", "160726.200000", "160726.203000", "160726.205000", "160806.125000", "160806.128000", "160806.130000", "160806.133000", "160806.135000", "160806.138000", "160806.140000", "160806.143000", "160806.145000", "160806.148000", "160806.150000", "160806.153000", "160806.155000", "160806.157000", "160806.160000", "160806.162000", "160806.165000", "160806.167000", "160806.170000", "160806.172000", "160806.175000", "160806.177000", "160806.180000", "160806.182000", "160806.191000", "160806.193000", "160806.196000", "160846.140000", "160846.142000", "160846.145000", "160846.147000", "160846.150000", "160846.152000", "160846.155000", "160846.157000", "160846.160000", "160846.162000", "160846.165000", "160846.167000", "160846.170000", "160846.172000", "160846.175000", "160846.177000", "160846.180000", "160846.182000", "160846.185000", "160846.187000", "160846.190000", "160846.192000", "160846.195000", "160846.197000", "160846.200000", "160846.202000", "160846.205000", "160926.141000", "160926.144000", "160926.146000", "160926.149000", "160926.152000", "160926.155000", "160926.157000", "160926.160000", "160926.163000", "160926.166000", "160926.169000", "160926.172000", "160926.174000", "160926.177000", "160926.179000", "160926.182000", "160926.185000", "160926.187000", "160926.190000", "160926.193000", "160926.195000", "160926.197000", "160926.200000", "160926.202000", "160926.205000", "160926.207000", "161006.125000", "161006.128000", "161006.130000", "161006.133000", "161006.135000", "161006.138000", "161006.140000", "161006.143000", "161006.145000", "161006.148000", "161006.150000", "161006.153000", "161006.155000", "161006.158000", "161006.160000", "161006.163000", "161006.165000", "161006.168000", "161006.170000", "161006.173000", "161006.175000", "161006.178000", "161006.180000", "161006.183000", "161006.185000", "161006.188000", "161006.190000", "161046.163000", "161046.165000", "161046.168000", "161046.170000", "161046.173000", "161046.175000", "161046.178000", "161046.180000", "161046.183000", "161046.185000", "161046.188000", "161046.190000", "161046.193000", "161046.195000", "161046.198000", "161046.200000", "161046.203000", "161046.205000", "161046.208000", "161046.210000", "161046.213000", "161046.215000", "161046.218000", "161046.220000", "161046.223000", "161046.225000", "161046.227000", "161126.131000", "161126.133000", "161126.136000", "161126.138000", "161126.141000", "161126.143000", "161126.146000", "161126.148000", "161126.151000", "161126.153000", "161126.156000", "161126.158000", "161126.161000", "161126.163000", "161126.166000", "161126.168000", "161126.171000", "161126.173000", "161126.176000", "161126.178000", "161126.181000", "161126.183000", "161126.186000", "161126.188000", "161126.191000", "161126.193000", "161126.196000", "161206.139000", "161206.142000", "161206.144000", "161206.147000", "161206.149000", "161206.152000", "161206.154000", "161206.157000", "161206.159000", "161206.162000", "161206.164000", "161206.167000", "161206.169000", "161206.172000", "161206.174000", "161206.177000", "161206.179000", "161206.181000", "161206.184000", "161206.186000", "161206.189000", "161206.191000", "161206.194000", "161206.196000", "161206.199000", "161206.201000", "161206.204000", "161246.141000", "161246.144000", "161246.146000", "161246.149000", "161246.151000", "161246.154000", "161246.156000", "161246.159000", "161246.161000", "161246.164000", "161246.166000", "161246.169000", "161246.171000", "161246.174000", "161246.176000", "161246.179000", "161246.181000", "161246.184000", "161246.186000", "161246.189000", "161246.191000", "161246.194000", "161246.196000", "161246.199000", "161246.201000", "161246.204000", "161246.206000", "161326.549000", "161326.552000", "161326.554000", "161326.557000", "161326.559000", "161326.562000", "161326.564000", "161326.567000", "161326.569000", "161326.572000", "161326.575000", "161326.577000", "161326.579000", "161326.582000", "161326.584000", "161326.587000", "161326.589000", "161326.592000", "161326.594000", "161326.597000", "161326.599000", "161326.602000", "161326.604000", "161326.607000", "161326.609000", "161326.612000", "161406.130000", "161406.133000", "161406.135000", "161406.138000", "161406.140000", "161406.143000", "161406.145000", "161406.148000", "161406.150000", "161406.153000", "161406.155000", "161406.158000", "161406.160000", "161406.163000", "161406.165000", "161406.168000", "161406.170000", "161406.173000", "161406.175000", "161406.178000", "161406.180000", "161406.183000", "161406.185000", "161406.188000", "161406.191000", "161406.193000", "161406.196000", "161407.898000", "161407.901000"],
      "InstanceCreationTime": ["160446.163000", "160446.166000", "160446.169000", "160446.171000", "160446.174000", "160446.176000", "160446.179000", "160446.181000", "160446.184000", "160446.186000", "160446.189000", "160446.191000", "160446.194000", "160446.196000", "160446.199000", "160446.201000", "160446.214000", "160446.216000", "160446.219000", "160446.221000", "160446.224000", "160446.226000", "160446.228000", "160446.231000", "160446.233000", "160446.236000", "160506.111000", "160506.114000", "160506.116000", "160506.119000", "160506.121000", "160506.124000", "160506.126000", "160506.129000", "160506.131000", "160506.134000", "160506.136000", "160506.139000", "160506.141000", "160506.143000", "160506.146000", "160506.148000", "160506.151000", "160506.153000", "160506.156000", "160506.158000", "160526.109000", "160526.111000", "160526.114000", "160526.125000", "160526.127000", "160526.130000", "160526.132000", "160526.135000", "160526.137000", "160526.140000", "160526.142000", "160526.144000", "160526.147000", "160526.149000", "160526.152000", "160526.154000", "160526.157000", "160526.159000", "160526.162000", "160526.164000", "160526.167000", "160546.107000", "160546.110000", "160546.113000", "160546.115000", "160546.118000", "160546.120000", "160546.123000", "160546.125000", "160546.128000", "160546.130000", "160546.133000", "160546.135000", "160546.138000", "160546.140000", "160546.143000", "160546.145000", "160546.148000", "160546.150000", "160546.152000", "160546.155000", "160606.113000", "160606.116000", "160606.119000", "160606.121000", "160606.124000", "160606.126000", "160606.129000", "160606.131000", "160606.134000", "160606.136000", "160606.139000", "160606.141000", "160606.144000", "160606.146000", "160606.149000", "160606.151000", "160606.154000", "160606.156000", "160606.159000", "160606.161000", "160646.138000", "160646.141000", "160646.143000", "160646.146000", "160646.148000", "160646.151000", "160646.153000", "160646.156000", "160646.158000", "160646.161000", "160646.163000", "160646.166000", "160646.168000", "160646.171000", "160646.173000", "160646.183000", "160646.185000", "160646.187000", "160646.190000", "160646.192000", "160646.195000", "160646.197000", "160646.200000", "160646.202000", "160646.205000", "160646.207000", "160646.210000", "160726.140000", "160726.143000", "160726.145000", "160726.148000", "160726.150000", "160726.153000", "160726.155000", "160726.158000", "160726.160000", "160726.163000", "160726.165000", "160726.168000", "160726.170000", "160726.173000", "160726.175000", "160726.178000", "160726.180000", "160726.183000", "160726.185000", "160726.188000", "160726.190000", "160726.193000", "160726.195000", "160726.198000", "160726.200000", "160726.203000", "160726.205000", "160806.125000", "160806.128000", "160806.130000", "160806.133000", "160806.135000", "160806.138000", "160806.140000", "160806.143000", "160806.145000", "160806.148000", "160806.150000", "160806.153000", "160806.155000", "160806.157000", "160806.160000", "160806.162000", "160806.165000", "160806.167000", "160806.170000", "160806.172000", "160806.175000", "160806.177000", "160806.180000", "160806.182000", "160806.191000", "160806.193000", "160806.196000", "160846.140000", "160846.142000", "160846.145000", "160846.147000", "160846.150000", "160846.152000", "160846.155000", "160846.157000", "160846.160000", "160846.162000", "160846.165000", "160846.167000", "160846.170000", "160846.172000", "160846.175000", "160846.177000", "160846.180000", "160846.182000", "160846.185000", "160846.187000", "160846.190000", "160846.192000", "160846.195000", "160846.197000", "160846.200000", "160846.202000", "160846.205000", "160926.141000", "160926.144000", "160926.146000", "160926.149000", "160926.152000", "160926.155000", "160926.157000", "160926.160000", "160926.163000", "160926.166000", "160926.169000", "160926.172000", "160926.174000", "160926.177000", "160926.179000", "160926.182000", "160926.185000", "160926.187000", "160926.190000", "160926.193000", "160926.195000", "160926.197000", "160926.200000", "160926.202000", "160926.205000", "160926.207000", "161006.125000", "161006.128000", "161006.130000", "161006.133000", "161006.135000", "161006.138000", "161006.140000", "161006.143000", "161006.145000", "161006.148000", "161006.150000", "161006.153000", "161006.155000", "161006.158000", "161006.160000", "161006.163000", "161006.165000", "161006.168000", "161006.170000", "161006.173000", "161006.175000", "161006.178000", "161006.180000", "161006.183000", "161006.185000", "161006.188000", "161006.190000", "161046.163000", "161046.165000", "161046.168000", "161046.170000", "161046.173000", "161046.175000", "161046.178000", "161046.180000", "161046.183000", "161046.185000", "161046.188000", "161046.190000", "161046.193000", "161046.195000", "161046.198000", "161046.200000", "161046.203000", "161046.205000", "161046.208000", "161046.210000", "161046.213000", "161046.215000", "161046.218000", "161046.220000", "161046.223000", "161046.225000", "161046.227000", "161126.131000", "161126.133000", "161126.136000", "161126.138000", "161126.141000", "161126.143000", "161126.146000", "161126.148000", "161126.151000", "161126.153000", "161126.156000", "161126.158000", "161126.161000", "161126.163000", "161126.166000", "161126.168000", "161126.171000", "161126.173000", "161126.176000", "161126.178000", "161126.181000", "161126.183000", "161126.186000", "161126.188000", "161126.191000", "161126.193000", "161126.196000", "161206.139000", "161206.142000", "161206.144000", "161206.147000", "161206.149000", "161206.152000", "161206.154000", "161206.157000", "161206.159000", "161206.162000", "161206.164000", "161206.167000", "161206.169000", "161206.172000", "161206.174000", "161206.177000", "161206.179000", "161206.181000", "161206.184000", "161206.186000", "161206.189000", "161206.191000", "161206.194000", "161206.196000", "161206.199000", "161206.201000", "161206.204000", "161246.141000", "161246.144000", "161246.146000", "161246.149000", "161246.151000", "161246.154000", "161246.156000", "161246.159000", "161246.161000", "161246.164000", "161246.166000", "161246.169000", "161246.171000", "161246.174000", "161246.176000", "161246.179000", "161246.181000", "161246.184000", "161246.186000", "161246.189000", "161246.191000", "161246.194000", "161246.196000", "161246.199000", "161246.201000", "161246.204000", "161246.206000", "161326.549000", "161326.552000", "161326.554000", "161326.557000", "161326.559000", "161326.562000", "161326.564000", "161326.567000", "161326.569000", "161326.572000", "161326.575000", "161326.577000", "161326.579000", "161326.582000", "161326.584000", "161326.587000", "161326.589000", "161326.592000", "161326.594000", "161326.597000", "161326.599000", "161326.602000", "161326.604000", "161326.607000", "161326.609000", "161326.612000", "161406.130000", "161406.133000", "161406.135000", "161406.138000", "161406.140000", "161406.143000", "161406.145000", "161406.148000", "161406.150000", "161406.153000", "161406.155000", "161406.158000", "161406.160000", "161406.163000", "161406.165000", "161406.168000", "161406.170000", "161406.173000", "161406.175000", "161406.178000", "161406.180000", "161406.183000", "161406.185000", "161406.188000", "161406.191000", "161406.193000", "161406.196000", "161407.898000", "161407.901000"],
