{
  "AcquisitionMatrixPE": 104,
  "AcquisitionNumber": 1,
  "AcquisitionTime": "16:17:11.007500",
  "BandwidthPerPixelPhaseEncode": 17.17,
  "BaseResolution": 104,
  "BodyPartExamined": "BRAIN",
  "CoilCombinationMethod": "Sum of Squares",
  "ConsistencyInfo": "N4_VE11C_LATEST_20160120",
  "ConversionSoftware": "dcm2niix",
  "ConversionSoftwareVersion": "v1.0.20211006",
  "DerivedVendorReportedEchoSpacing": 0.000560011,
  "DeviceSerialNumber": "167006",
  "DwellTime": 2.1e-06,
  "EchoTime": 0.037,
  "EchoTrainLength": 104,
  "EffectiveEchoSpacing": 0.000560011,
  "FlipAngle": 52,
  "HeudiconvVersion": "0.11.3.post9+gc939bf8",
  "ImageComments": "Unaliased MB4/PE3/LB",
  "ImageOrientationPatientDICOM": [0.999371, 0.0126271, 0.0331514, -0.00383733, 0.967502, -0.252833],
  "ImageOrientationText": "Tra>Cor(-14.6)>Sag(2.0)",
  "ImageType": [
    "ORIGINAL",
    "PRIMARY",
    "M",
    "MB",
    "ND",
    "MOSAIC"
],
  "ImagingFrequency": 123.259,
  "InPlanePhaseEncodingDirectionDICOM": "COL",
  "InstitutionAddress": "Chemin Queen-Mary 4565,Montreal,District,CA,H3W 1W5",
  "InstitutionName": "IUGM",
  "InstitutionalDepartmentName": "Department",
  "MRAcquisitionType": "2D",
  "MagneticFieldStrength": 3,
  "Manufacturer": "Siemens",
  "ManufacturersModelName": "Prisma_fit",
  "MatrixCoilMode": "SENSE",
  "Modality": "MR",
  "MultibandAccelerationFactor": 4,
  "PartialFourier": 1,
  "PatientPosition": "HFS",
  "PercentPhaseFOV": 100,
  "PercentSampling": 100,
  "PhaseEncodingDirection": "j",
  "PhaseEncodingSteps": 104,
  "PhaseResolution": 1,
  "PixelBandwidth": 2290,
  "ProcedureStepDescription": "games^mario",
  "ProtocolName": "func_task-mario_run-02",
  "PulseSequenceDetails": "%CustomerSeq%\\cmrr_mbep2d_bold",
  "ReceiveCoilActiveElements": "HC1-7;NC1,2",
  "ReceiveCoilName": "HeadNeck_64",
  "ReconMatrixPE": 104,
  "RepetitionTime": 1.49,
  "SAR": 0.0599455,
  "ScanOptions": "FS",
  "ScanningSequence": "EP",
  "SequenceName": "epfid2d1_104",
  "SequenceVariant": "SK\\SS",
  "SeriesDescription": "func_task-mario_run-02",
  "SeriesNumber": 13,
  "ShimSetting": [633, -7214, -8806, 729, 38, -1, 72, 3],
  "SliceThickness": 2,
  "SliceTiming": [0, 0.7825, 0.0975, 0.8825, 0.195, 0.98, 0.295, 1.0775, 0.3925, 1.175, 0.49, 1.2725, 0.5875, 1.3725, 0.685, 0, 0.7825, 0.0975, 0.8825, 0.195, 0.98, 0.295, 1.0775, 0.3925, 1.175, 0.49, 1.2725, 0.5875, 1.3725, 0.685, 0, 0.7825, 0.0975, 0.8825, 0.195, 0.98, 0.295, 1.0775, 0.3925, 1.175, 0.49, 1.2725, 0.5875, 1.3725, 0.685, 0, 0.7825, 0.0975, 0.8825, 0.195, 0.98, 0.295, 1.0775, 0.3925, 1.175, 0.49, 1.2725, 0.5875, 1.3725, 0.685],
  "SoftwareVersions": "syngo MR E11",
  "SpacingBetweenSlices": 2,
  "StationName": "MRC35049",
  "TaskName": "mario",
  "TotalReadoutTime": 0.0576811,
  "TxRefAmp": 248.769,
  "WipMemBlock": "4b42aa5b-9c6e-4ec1-a3d1-9c0b5c94eaca||Sequence: R016 ve11c/master r/e634e98; Dec 19 2017 11:00:25 by eja",
  "dcmmeta_affine": [
    [-1.9987411499023438, -0.007674664258956909, 0.07053324580192566, 107.27093505859375],
    [-0.02525411732494831, 1.9350043535232544, -0.5050942301750183, -72.61847686767578],
    [0.06630285829305649, 0.5056669116020203, 1.9338833093643188, -69.51419830322266],
    [0.0, 0.0, 0.0, 1.0]
],
  "dcmmeta_reorient_transform": [
    [0.0, -1.0, 0.0, 103.0],
    [1.0, 0.0, 0.0, 0.0],
    [0.0, 0.0, 1.0, 0.0],
    [0.0, 0.0, 0.0, 1.0]
],
  "dcmmeta_shape": [104, 104, 60, 457],
  "dcmmeta_slice_dim": 2,
  "dcmmeta_version": 0.6,
  "global": {
    "const": {
      "AcquisitionMatrix": [104, 0, 0, 104],
      "AngioFlag": "N",
      "BitsAllocated": 16,
      "BitsStored": 16,
      "BodyPartExamined": "BRAIN",
      "Columns": 832,
      "EchoNumbers": 1,
      "EchoTime": 37.0,
      "EchoTrainLength": 104,
      "FlipAngle": 52.0,
      "HighBit": 15,
      "ImageOrientationPatient": [0.99937057200674, 0.01262705888392, 0.03315142818742, -0.0038373321147, 0.96750220321431, -0.2528334662534],
      "ImagePositionPatient": [-831.22864288725, -840.22108038274, 142.49801655344],
      "ImageType": [
        "ORIGINAL",
        "PRIMARY",
        "M",
        "MB",
        "ND",
        "MOSAIC"
],
      "ImagedNucleus": "1H",
      "ImagingFrequency": 123.258881,
      "InPlanePhaseEncodingDirection": "COL",
      "MRAcquisitionType": "2D",
      "MagneticFieldStrength": 3.0,
      "Manufacturer": "SIEMENS",
      "ManufacturerModelName": "Prisma_fit",
      "Modality": "MR",
      "NumberOfAverages": 1.0,
      "NumberOfPhaseEncodingSteps": 104,
      "PercentPhaseFieldOfView": 100.0,
      "PercentSampling": 100.0,
      "PerformedProcedureStepStartTime": "142035.720000",
      "PhotometricInterpretation": "MONOCHROME2",
      "PixelBandwidth": 2290.0,
      "PixelRepresentation": 0,
      "PixelSpacing": [2.0, 2.0],
      "ProtocolName": "func_task-mario_run-02",
      "RepetitionTime": 1490.0,
      "Rows": 832,
      "SAR": 0.05994550935677,
      "SamplesPerPixel": 1,
      "ScanOptions": "FS",
      "ScanningSequence": "EP",
      "SequenceName": "epfid2d1_104",
      "SequenceVariant": [
        "SK",
        "SS"
],
      "SeriesDescription": "func_task-mario_run-02",
      "SeriesNumber": 13,
      "SeriesTime": "161808.696000",
      "SliceLocation": -45.093508691838,
      "SliceThickness": 2.0,
      "SmallestImagePixelValue": 0,
      "SoftwareVersions": "syngo MR E11",
      "SpacingBetweenSlices": 1.9999999779291,
      "SpecificCharacterSet": "ISO_IR 100",
      "StudyID": "1",
      "StudyTime": "142035.612000",
      "TransmitCoilName": "Body",
      "VariableFlipAngleFlag": "N",
      "WindowCenterWidthExplanation": "Algo1",
      "dBdt": 0.0},
    "slices": {}
  },
  "time": {
    "samples": {
      "AcquisitionNumber": [1, 2, 3, 4, 5, 6, 7, 8, 9, 10, 11, 12, 13, 14, 15, 16, 17, 18, 19, 20, 21, 22, 23, 24, 25, 26, 27, 28, 29, 30, 31, 32, 33, 34, 35, 36, 37, 38, 39, 40, 41, 42, 43, 44, 45, 46, 47, 48, 49, 50, 51, 52, 53, 54, 55, 56, 57, 58, 59, 60, 61, 62, 63, 64, 65, 66, 67, 68, 69, 70, 71, 72, 73, 74, 75, 76, 77, 78, 79, 80, 81, 82, 83, 84, 85, 86, 87, 88, 89, 90, 91, 92, 93, 94, 95, 96, 97, 98, 99, 100, 101, 102, 103, 104, 105, 106, 107, 108, 109, 110, 111, 112, 113, 114, 115, 116, 117, 118, 119, 120, 121, 122, 123, 124, 125, 126, 127, 128, 129, 130, 131, 132, 133, 134, 135, 136, 137, 138, 139, 140, 141, 142, 143, 144, 145, 146, 147, 148, 149, 150, 151, 152, 153, 154, 155, 156, 157, 158, 159, 160, 161, 162, 163, 164, 165, 166, 167, 168, 169, 170, 171, 172, 173, 174, 175, 176, 177, 178, 179, 180, 181, 182, 183, 184, 185, 186, 187, 188, 189, 190, 191, 192, 193, 194, 195, 196, 197, 198, 199, 200, 201, 202, 203, 204, 205, 206, 207, 208, 209, 210, 211, 212, 213, 214, 215, 216, 217, 218, 219, 220, 221, 222, 223, 224, 225, 226, 227, 228, 229, 230, 231, 232, 233, 234, 235, 236, 237, 238, 239, 240, 241, 242, 243, 244, 245, 246, 247, 248, 249, 250, 251, 252, 253, 254, 255, 256, 257, 258, 259, 260, 261, 262, 263, 264, 265, 266, 267, 268, 269, 270, 271, 272, 273, 274, 275, 276, 277, 278, 279, 280, 281, 282, 283, 284, 285, 286, 287, 288, 289, 290, 291, 292, 293, 294, 295, 296, 297, 298, 299, 300, 301, 302, 303, 304, 305, 306, 307, 308, 309, 310, 311, 312, 313, 314, 315, 316, 317, 318, 319, 320, 321, 322, 323, 324, 325, 326, 327, 328, 329, 330, 331, 332, 333, 334, 335, 336, 337, 338, 339, 340, 341, 342, 343, 344, 345, 346, 347, 348, 349, 350, 351, 352, 353, 354, 355, 356, 357, 358, 359, 360, 361, 362, 363, 364, 365, 366, 367, 368, 369, 370, 371, 372, 373, 374, 375, 376, 377, 378, 379, 380, 381, 382, 383, 384, 385, 386, 387, 388, 389, 390, 391, 392, 393, 394, 395, 396, 397, 398, 399, 400, 401, 402, 403, 404, 405, 406, 407, 408, 409, 410, 411, 412, 413, 414, 415, 416, 417, 418, 419, 420, 421, 422, 423, 424, 425, 426, 427, 428, 429, 430, 431, 432, 433, 434, 435, 436, 437, 438, 439, 440, 441, 442, 443, 444, 445, 446, 447, 448, 449, 450, 451, 452, 453, 454, 455, 456, 457],
      "AcquisitionTime": ["161711.007500", "161712.497500", "161713.987500", "161715.477500", "161716.967500", "161718.457500", "161719.947500", "161721.437500", "161722.927500", "161724.417500", "161725.907500", "161727.397500", "161728.887500", "161730.377500", "161731.867500", "161733.357500", "161734.847500", "161736.337500", "161737.827500", "161739.317500", "161740.807500", "161742.297500", "161743.787500", "161745.277500", "161746.767500", "161748.257500", "161749.747500", "161751.237500", "161752.727500", "161754.217500", "161755.707500", "161757.197500", "161758.687500", "161800.177500", "161801.667500", "161803.157500", "161804.647500", "161806.137500", "161807.627500", "161809.117500", "161810.607500", "161812.097500", "161813.587500", "161815.077500", "161816.567500", "161818.057500", "161819.547500", "161821.037500", "161822.527500", "161824.017500", "161825.507500", "161826.997500", "161828.487500", "161829.977500", "161831.467500", "161832.957500", "161834.447500", "161835.937500", "161837.427500", "161838.917500", "161840.407500", "161841.897500", "161843.387500", "161844.877500", "161846.367500", "161847.857500", "161849.347500", "161850.837500", "161852.327500", "161853.817500", "161855.307500", "161856.797500", "161858.287500", "161859.777500", "161901.267500", "161902.757500", "161904.247500", "161905.737500", "161907.227500", "161908.717500", "161910.207500", "161911.697500", "161913.187500", "161914.677500", "161916.167500", "161917.657500", "161919.147500", "161920.637500", "161922.127500", "161923.617500", "161925.107500", "161926.597500", "161928.087500", "161929.577500", "161931.067500", "161932.557500", "161934.047500", "161935.537500", "161937.027500", "161938.517500", "161940.007500", "161941.497500", "161942.987500", "161944.477500", "161945.967500", "161947.457500", "161948.947500", "161950.437500", "161951.927500", "161953.417500", "161954.907500", "161956.397500", "161957.887500", "161959.377500", "162000.867500", "162002.357500", "162003.847500", "162005.337500", "162006.827500", "162008.317500", "162009.807500", "162011.297500", "162012.787500", "162014.277500", "162015.767500", "162017.257500", "162018.747500", "162020.237500", "162021.727500", "162023.217500", "162024.707500", "162026.197500", "162027.687500", "162029.177500", "162030.667500", "162032.157500", "162033.647500", "162035.137500", "162036.627500", "162038.117500", "162039.607500", "162041.097500", "162042.587500", "162044.077500", "162045.567500", "162047.057500", "162048.547500", "162050.037500", "162051.527500", "162053.017500", "162054.507500", "162055.997500", "162057.487500", "162058.977500", "162100.467500", "162101.957500", "162103.447500", "162104.937500", "162106.427500", "162107.917500", "162109.407500", "162110.897500", "162112.387500", "162113.877500", "162115.367500", "162116.857500", "162118.347500", "162119.837500", "162121.327500", "162122.817500", "162124.307500", "162125.797500", "162127.287500", "162128.777500", "162130.267500", "162131.757500", "162133.247500", "162134.737500", "162136.227500", "162137.717500", "162139.207500", "162140.697500", "162142.187500", "162143.677500", "162145.167500", "162146.657500", "162148.147500", "162149.637500", "162151.127500", "162152.617500", "162154.107500", "162155.597500", "162157.087500", "162158.577500", "162200.067500", "162201.557500", "162203.047500", "162204.537500", "162206.027500", "162207.517500", "162209.007500", "162210.497500", "162211.987500", "162213.477500", "162214.967500", "162216.457500", "162217.947500", "162219.437500", "162220.927500", "162222.417500", "162223.907500", "162225.397500", "162226.887500", "162228.377500", "162229.867500", "162231.357500", "162232.847500", "162234.337500", "162235.827500", "162237.317500", "162238.807500", "162240.297500", "162241.787500", "162243.277500", "162244.767500", "162246.257500", "162247.747500", "162249.237500", "162250.727500", "162252.217500", "162253.707500", "162255.197500", "162256.687500", "162258.177500", "162259.667500", "162301.157500", "162302.647500", "162304.137500", "162305.627500", "162307.117500", "162308.607500", "162310.097500", "162311.587500", "162313.077500", "162314.567500", "162316.057500", "162317.547500", "162319.037500", "162320.527500", "162322.017500", "162323.507500", "162324.997500", "162326.487500", "162327.977500", "162329.467500", "162330.957500", "162332.447500", "162333.937500", "162335.427500", "162336.917500", "162338.407500", "162339.897500", "162341.387500", "162342.877500", "162344.367500", "162345.857500", "162347.347500", "162348.837500", "162350.327500", "162351.817500", "162353.307500", "162354.797500", "162356.287500", "162357.777500", "162359.267500", "162400.757500", "162402.247500", "162403.737500", "162405.227500", "162406.717500", "162408.207500", "162409.697500", "162411.187500", "162412.677500", "162414.167500", "162415.657500", "162417.147500", "162418.637500", "162420.127500", "162421.617500", "162423.107500", "162424.597500", "162426.087500", "162427.577500", "162429.067500", "162430.557500", "162432.047500", "162433.537500", "162435.027500", "162436.517500", "162438.007500", "162439.497500", "162440.987500", "162442.477500", "162443.967500", "162445.457500", "162446.947500", "162448.437500", "162449.927500", "162451.417500", "162452.907500", "162454.397500", "162455.887500", "162457.377500", "162458.867500", "162500.357500", "162501.847500", "162503.337500", "162504.827500", "162506.317500", "162507.807500", "162509.297500", "162510.787500", "162512.277500", "162513.767500", "162515.257500", "162516.747500", "162518.237500", "162519.727500", "162521.217500", "162522.707500", "162524.197500", "162525.687500", "162527.177500", "162528.667500", "162530.157500", "162531.647500", "162533.137500", "162534.627500", "162536.117500", "162537.607500", "162539.097500", "162540.587500", "162542.077500", "162543.567500", "162545.057500", "162546.547500", "162548.037500", "162549.527500", "162551.017500", "162552.507500", "162553.997500", "162555.487500", "162556.977500", "162558.467500", "162559.957500", "162601.447500", "162602.937500", "162604.427500", "162605.917500", "162607.407500", "162608.897500", "162610.387500", "162611.877500", "162613.367500", "162614.857500", "162616.347500", "162617.837500", "162619.327500", "162620.817500", "162622.307500", "162623.797500", "162625.287500", "162626.777500", "162628.267500", "162629.757500", "162631.247500", "162632.737500", "162634.227500", "162635.717500", "162637.207500", "162638.697500", "162640.187500", "162641.677500", "162643.167500", "162644.657500", "162646.147500", "162647.637500", "162649.127500", "162650.617500", "162652.107500", "162653.597500", "162655.087500", "162656.577500", "162658.067500", "162659.557500", "162701.047500", "162702.537500", "162704.027500", "162705.517500", "162707.007500", "162708.497500", "162709.987500", "162711.477500", "162712.967500", "162714.457500", "162715.947500", "162717.437500", "162718.927500", "162720.417500", "162721.907500", "162723.397500", "162724.887500", "162726.377500", "162727.867500", "162729.357500", "162730.847500", "162732.337500", "162733.827500", "162735.317500", "162736.807500", "162738.297500", "162739.787500", "162741.277500", "162742.767500", "162744.257500", "162745.747500", "162747.237500", "162748.727500", "162750.217500", "162751.707500", "162753.197500", "162754.687500", "162756.177500", "162757.667500", "162759.157500", "162800.647500", "162802.137500", "162803.627500", "162805.117500", "162806.607500", "162808.097500", "162809.587500", "162811.077500", "162812.567500", "162814.057500", "162815.547500", "162817.037500", "162818.527500", "162820.017500", "162821.507500", "162822.997500", "162824.487500", "162825.977500", "162827.467500", "162828.957500", "162830.447500"],
      "ContentTime": ["161808.699000", "161808.702000", "161828.649000", "161828.653000", "161828.661000", "161828.664000", "161828.667000", "161828.671000", "161828.674000", "161828.677000", "161828.681000", "161828.684000", "161828.687000", "161828.706000", "161828.710000", "161828.713000", "161828.716000", "161828.720000", "161828.723000", "161828.726000", "161828.729000", "161828.733000", "161848.649000", "161848.653000", "161848.656000", "161848.659000", "161848.663000", "161848.666000", "161848.669000", "161848.672000", "161848.676000", "161848.679000", "161848.682000", "161848.685000", "161848.689000", "161848.692000", "161848.695000", "161848.698000", "161848.702000", "161848.705000", "161848.708000", "161848.711000", "161908.649000", "161908.653000", "161908.656000", "161908.659000", "161908.669000", "161908.673000", "161908.676000", "161908.679000", "161908.682000", "161908.686000", "161908.689000", "161908.692000", "161908.695000", "161908.699000", "161908.702000", "161908.705000", "161908.708000", "161908.712000", "161908.715000", "161908.718000", "161908.722000", "161928.648000", "161928.652000", "161928.655000", "161928.658000", "161928.662000", "161928.666000", "161928.669000", "161928.672000", "161928.676000", "161928.679000", "161928.682000", "161928.686000", "161928.689000", "161928.692000", "161928.695000", "161928.699000", "161928.702000", "161928.705000", "161928.709000", "161928.712000", "161948.649000", "161948.653000", "161948.656000", "161948.659000", "161948.663000", "161948.666000", "161948.669000", "161948.673000", "161948.676000", "161948.679000", "161948.682000", "161948.686000", "161948.689000", "161948.692000", "161948.696000", "161948.699000", "161948.702000", "161948.705000", "161948.709000", "161948.712000", "162028.649000", "162028.653000", "162028.656000", "162028.659000", "162028.663000", "162028.666000", "162028.669000", "162028.687000", "162028.690000", "162028.693000", "162028.696000", "162028.700000", "162028.703000", "162028.706000", "162028.710000", "162028.713000", "162028.716000", "162028.720000", "162028.723000", "162028.726000", "162028.729000", "162028.733000", "162028.736000", "162028.739000", "162028.752000", "162028.755000", "162028.758000", "162028.762000", "162028.765000", "162108.649000", "162108.653000", "162108.656000", "162108.660000", "162108.663000", "162108.666000", "162108.670000", "162108.673000", "162108.676000", "162108.680000", "162108.683000", "162108.686000", "162108.690000", "162108.693000", "162108.696000", "162108.700000", "162108.703000", "162108.706000", "162108.710000", "162108.713000", "162108.716000", "162108.720000", "162108.723000", "162108.726000", "162108.730000", "162108.733000", "162108.736000", "162148.648000", "162148.652000", "162148.655000", "162148.658000", "162148.662000", "162148.665000", "162148.669000", "162148.673000", "162148.676000", "162148.679000", "162148.683000", "162148.686000", "162148.689000", "162148.692000", "162148.696000", "162148.699000", "162148.702000", "162148.706000", "162148.709000", "162148.712000", "162148.716000", "162148.719000", "162148.722000", "162148.726000", "162148.729000", "162148.732000", "162228.649000", "162228.653000", "162228.656000", "162228.659000", "162228.663000", "162228.666000", "162228.669000", "162228.673000", "162228.676000", "162228.679000", "162228.683000", "162228.686000", "162228.689000", "162228.693000", "162228.696000", "162228.699000", "162228.703000", "162228.706000", "162228.709000", "162228.713000", "162228.716000", "162228.719000", "162228.722000", "162228.726000", "162228.736000", "162228.750000", "162228.754000", "162308.649000", "162308.653000", "162308.656000", "162308.660000", "162308.663000", "162308.666000", "162308.670000", "162308.673000", "162308.676000", "162308.680000", "162308.683000", "162308.686000", "162308.690000", "162308.693000", "162308.697000", "162308.700000", "162308.704000", "162308.707000", "162308.710000", "162308.713000", "162308.717000", "162308.720000", "162308.723000", "162308.727000", "162308.730000", "162308.733000", "162308.737000", "162348.649000", "162348.653000", "162348.656000", "162348.659000", "162348.663000", "162348.666000", "162348.669000", "162348.673000", "162348.676000", "162348.679000", "162348.683000", "162348.686000", "162348.689000", "162348.693000", "162348.696000", "162348.699000", "162348.702000", "162348.706000", "162348.709000", "162348.712000", "162348.716000", "162348.719000", "162348.722000", "162348.726000", "162348.729000", "162348.732000", "162348.735000", "162428.649000", "162428.653000", "162428.656000", "162428.660000", "162428.663000", "162428.666000", "162428.670000", "162428.673000", "162428.676000", "162428.680000", "162428.683000", "162428.686000", "162428.690000", "162428.693000", "162428.696000", "162428.700000", "162428.703000", "162428.706000", "162428.709000", "162428.713000", "162428.716000", "162428.719000", "162428.723000", "162428.726000", "162428.729000", "162428.733000", "162428.736000", "162508.649000", "162508.653000", "162508.656000", "162508.660000", "162508.663000", "162508.666000", "162508.685000", "162508.689000", "162508.692000", "162508.695000", "162508.699000", "162508.702000", "162508.705000", "162508.709000", "162508.712000", "162508.715000", "162508.719000", "162508.722000", "162508.725000", "162508.729000", "162508.732000", "162508.735000", "162508.739000", "162508.742000", "162508.745000", "162508.748000", "162508.752000", "162548.649000", "162548.653000", "162548.656000", "162548.660000", "162548.674000", "162548.678000", "162548.681000", "162548.685000", "162548.688000", "162548.691000", "162548.696000", "162548.699000", "162548.703000", "162548.706000", "162548.710000", "162548.714000", "162548.718000", "162548.721000", "162548.725000", "162548.728000", "162548.732000", "162548.735000", "162548.738000", "162548.742000", "162548.745000", "162548.748000", "162628.648000", "162628.652000", "162628.655000", "162628.659000", "162628.662000", "162628.665000", "162628.669000", "162628.672000", "162628.675000", "162628.679000", "162628.682000", "162628.685000", "162628.689000", "162628.692000", "162628.695000", "162628.699000", "162628.702000", "162628.705000", "162628.709000", "162628.712000", "162628.715000", "162628.719000", "162628.722000", "162628.725000", "162628.729000", "162628.732000", "162628.735000", "162708.649000", "162708.653000", "162708.656000", "162708.660000", "162708.663000", "162708.666000", "162708.670000", "162708.673000", "162708.676000", "162708.679000", "162708.683000", "162708.686000", "162708.690000", "162708.693000", "162708.696000", "162708.700000", "162708.703000", "162708.706000", "162708.720000", "162708.724000", "162708.727000", "162708.731000", "162708.734000", "162708.737000", "162708.740000", "162708.744000", "162708.747000", "162748.649000", "162748.653000", "162748.656000", "162748.660000", "162748.663000", "162748.666000", "162748.670000", "162748.673000", "162748.676000", "162748.680000", "162748.683000", "162748.686000", "162748.690000", "162748.693000", "162748.696000", "162748.700000", "162748.703000", "162748.706000", "162748.710000", "162748.713000", "162748.716000", "162748.720000", "162748.723000", "162748.726000", "162748.730000", "162748.733000", "162748.736000", "162828.649000", "162828.653000", "162828.656000", "162828.660000", "162828.663000", "162828.666000", "162828.670000", "162828.673000", "162828.676000", "162828.680000", "162828.684000", "162828.687000", "162828.691000", "162828.694000", "162828.697000", "162828.701000", "162828.704000", "162828.707000", "162828.711000", "162828.714000", "162828.717000", "162828.721000", "162828.724000", "162828.727000", "162828.731000", "162828.734000", "162828.737000", "162833.787000", "162833.791000", "162833.794000"],
