{
  "AcquisitionMatrixPE": 104,
  "AcquisitionNumber": 1,
  "AcquisitionTime": "16:17:11.007500",
  "BandwidthPerPixelPhaseEncode": 17.17,
  "BaseResolution": 104,
  "BodyPartExamined": "BRAIN",
  "CoilCombinationMethod": "Sum of Squares",
  "ConsistencyInfo": "N4_VE11C_LATEST_20160120",
  "ConversionSoftware": "dcm2niix",
  "ConversionSoftwareVersion": "v1.0.20211006",
  "DerivedVendorReportedEchoSpacing": 0.000560011,
  "DeviceSerialNumber": "167006",
  "DwellTime": 2.1e-06,
  "EchoTime": 0.037,
  "EchoTime1": 0.037,
  "EchoTime2": 0.001,
  "EchoTrainLength": 104,
  "EffectiveEchoSpacing": 0.000560011,
  "FlipAngle": 52,
  "HeudiconvVersion": "0.11.3.post9+gc939bf8",
  "ImageComments": "Unaliased MB4/PE3/LB",
  "ImageOrientationPatientDICOM": [0.999371, 0.0126271, 0.0331514, -0.00383733, 0.967502, -0.252833],
  "ImageOrientationText": "Tra>Cor(-14.6)>Sag(2.0)",
  "ImageType": [
    "ORIGINAL",
    "PRIMARY",
    "P",
    "MB",
    "ND",
    "MOSAIC",
    "PHASE"
],
  "ImagingFrequency": 123.259,
  "InPlanePhaseEncodingDirectionDICOM": "COL",
  "InstitutionAddress": "Chemin Queen-Mary 4565,Montreal,District,CA,H3W 1W5",
  "InstitutionName": "IUGM",
  "InstitutionalDepartmentName": "Department",
  "MRAcquisitionType": "2D",
  "MagneticFieldStrength": 3,
  "Manufacturer": "Siemens",
  "ManufacturersModelName": "Prisma_fit",
  "MatrixCoilMode": "SENSE",
  "Modality": "MR",
  "MultibandAccelerationFactor": 4,
  "PartialFourier": 1,
  "PatientPosition": "HFS",
  "PercentPhaseFOV": 100,
  "PercentSampling": 100,
  "PhaseEncodingDirection": "j",
  "PhaseEncodingSteps": 104,
  "PhaseResolution": 1,
  "PixelBandwidth": 2290,
  "ProcedureStepDescription": "games^mario",
  "ProtocolName": "func_task-mario_run-02",
  "PulseSequenceDetails": "%CustomerSeq%\\cmrr_mbep2d_bold",
  "ReceiveCoilActiveElements": "HC1-7;NC1,2",
  "ReceiveCoilName": "HeadNeck_64",
  "ReconMatrixPE": 104,
  "RepetitionTime": 1.49,
  "SAR": 0.0599455,
  "ScanOptions": "FS",
  "ScanningSequence": "EP",
  "SequenceName": "epfid2d1_104",
  "SequenceVariant": "SK\\SS",
  "SeriesDescription": "func_task-mario_run-02",
  "SeriesNumber": 14,
  "ShimSetting": [633, -7214, -8806, 729, 38, -1, 72, 3],
  "SliceThickness": 2,
  "SliceTiming": [0, 0.7825, 0.0975, 0.8825, 0.195, 0.98, 0.295, 1.0775, 0.3925, 1.175, 0.49, 1.2725, 0.5875, 1.3725, 0.685, 0, 0.7825, 0.0975, 0.8825, 0.195, 0.98, 0.295, 1.0775, 0.3925, 1.175, 0.49, 1.2725, 0.5875, 1.3725, 0.685, 0, 0.7825, 0.0975, 0.8825, 0.195, 0.98, 0.295, 1.0775, 0.3925, 1.175, 0.49, 1.2725, 0.5875, 1.3725, 0.685, 0, 0.7825, 0.0975, 0.8825, 0.195, 0.98, 0.295, 1.0775, 0.3925, 1.175, 0.49, 1.2725, 0.5875, 1.3725, 0.685],
  "SoftwareVersions": "syngo MR E11",
  "SpacingBetweenSlices": 2,
  "StationName": "MRC35049",
  "TaskName": "mario",
  "TotalReadoutTime": 0.0576811,
  "TxRefAmp": 248.769,
  "WipMemBlock": "4b42aa5b-9c6e-4ec1-a3d1-9c0b5c94eaca||Sequence: R016 ve11c/master r/e634e98; Dec 19 2017 11:00:25 by eja",
  "dcmmeta_affine": [
    [-1.9987411499023438, -0.007674664258956909, 0.07053324580192566, 107.27093505859375],
    [-0.02525411732494831, 1.9350043535232544, -0.5050942301750183, -72.61847686767578],
    [0.06630285829305649, 0.5056669116020203, 1.9338833093643188, -69.51419830322266],
    [0.0, 0.0, 0.0, 1.0]
],
  "dcmmeta_reorient_transform": [
    [0.0, -1.0, 0.0, 103.0],
    [1.0, 0.0, 0.0, 0.0],
    [0.0, 0.0, 1.0, 0.0],
    [0.0, 0.0, 0.0, 1.0]
],
  "dcmmeta_shape": [104, 104, 60, 457],
  "dcmmeta_slice_dim": 2,
  "dcmmeta_version": 0.6,
  "global": {
    "const": {
      "AcquisitionMatrix": [104, 0, 0, 104],
      "AngioFlag": "N",
      "BitsAllocated": 16,
      "BitsStored": 16,
      "BodyPartExamined": "BRAIN",
      "Columns": 832,
      "EchoNumbers": 1,
      "EchoTime": 37.0,
      "EchoTrainLength": 104,
      "FlipAngle": 52.0,
      "HighBit": 15,
      "ImageOrientationPatient": [0.99937057200674, 0.01262705888392, 0.03315142818742, -0.0038373321147, 0.96750220321431, -0.2528334662534],
      "ImagePositionPatient": [-831.22864288725, -840.22108038274, 142.49801655344],
      "ImageType": [
        "ORIGINAL",
        "PRIMARY",
        "P",
        "MB",
        "ND",
        "MOSAIC"
],
      "ImagedNucleus": "1H",
      "ImagingFrequency": 123.258881,
      "InPlanePhaseEncodingDirection": "COL",
      "LargestImagePixelValue": 4095,
      "MRAcquisitionType": "2D",
      "MagneticFieldStrength": 3.0,
      "Manufacturer": "SIEMENS",
      "ManufacturerModelName": "Prisma_fit",
      "Modality": "MR",
      "NumberOfAverages": 1.0,
      "NumberOfPhaseEncodingSteps": 104,
      "PercentPhaseFieldOfView": 100.0,
      "PercentSampling": 100.0,
      "PerformedProcedureStepStartTime": "142035.720000",
      "PhotometricInterpretation": "MONOCHROME2",
      "PixelBandwidth": 2290.0,
      "PixelRepresentation": 0,
      "PixelSpacing": [2.0, 2.0],
      "ProtocolName": "func_task-mario_run-02",
      "RepetitionTime": 1490.0,
      "RescaleIntercept": -4096.0,
      "RescaleSlope": 2.0,
      "RescaleType": "US",
      "Rows": 832,
      "SAR": 0.05994550935677,
      "SamplesPerPixel": 1,
      "ScanOptions": "FS",
      "ScanningSequence": "EP",
      "SequenceName": "epfid2d1_104",
      "SequenceVariant": [
        "SK",
        "SS"
],
      "SeriesDescription": "func_task-mario_run-02",
      "SeriesNumber": 14,
      "SeriesTime": "161808.718000",
      "SliceLocation": -45.093508691838,
      "SliceThickness": 2.0,
      "SmallestImagePixelValue": 0,
      "SoftwareVersions": "syngo MR E11",
      "SpacingBetweenSlices": 1.9999999779291,
      "SpecificCharacterSet": "ISO_IR 100",
      "StudyID": "1",
      "StudyTime": "142035.612000",
      "TransmitCoilName": "Body",
      "VariableFlipAngleFlag": "N",
      "WindowCenterWidthExplanation": "Algo1",
      "dBdt": 0.0},
    "slices": {}
  },
  "time": {
    "samples": {
      "AcquisitionNumber": [1, 2, 3, 4, 5, 6, 7, 8, 9, 10, 11, 12, 13, 14, 15, 16, 17, 18, 19, 20, 21, 22, 23, 24, 25, 26, 27, 28, 29, 30, 31, 32, 33, 34, 35, 36, 37, 38, 39, 40, 41, 42, 43, 44, 45, 46, 47, 48, 49, 50, 51, 52, 53, 54, 55, 56, 57, 58, 59, 60, 61, 62, 63, 64, 65, 66, 67, 68, 69, 70, 71, 72, 73, 74, 75, 76, 77, 78, 79, 80, 81, 82, 83, 84, 85, 86, 87, 88, 89, 90, 91, 92, 93, 94, 95, 96, 97, 98, 99, 100, 101, 102, 103, 104, 105, 106, 107, 108, 109, 110, 111, 112, 113, 114, 115, 116, 117, 118, 119, 120, 121, 122, 123, 124, 125, 126, 127, 128, 129, 130, 131, 132, 133, 134, 135, 136, 137, 138, 139, 140, 141, 142, 143, 144, 145, 146, 147, 148, 149, 150, 151, 152, 153, 154, 155, 156, 157, 158, 159, 160, 161, 162, 163, 164, 165, 166, 167, 168, 169, 170, 171, 172, 173, 174, 175, 176, 177, 178, 179, 180, 181, 182, 183, 184, 185, 186, 187, 188, 189, 190, 191, 192, 193, 194, 195, 196, 197, 198, 199, 200, 201, 202, 203, 204, 205, 206, 207, 208, 209, 210, 211, 212, 213, 214, 215, 216, 217, 218, 219, 220, 221, 222, 223, 224, 225, 226, 227, 228, 229, 230, 231, 232, 233, 234, 235, 236, 237, 238, 239, 240, 241, 242, 243, 244, 245, 246, 247, 248, 249, 250, 251, 252, 253, 254, 255, 256, 257, 258, 259, 260, 261, 262, 263, 264, 265, 266, 267, 268, 269, 270, 271, 272, 273, 274, 275, 276, 277, 278, 279, 280, 281, 282, 283, 284, 285, 286, 287, 288, 289, 290, 291, 292, 293, 294, 295, 296, 297, 298, 299, 300, 301, 302, 303, 304, 305, 306, 307, 308, 309, 310, 311, 312, 313, 314, 315, 316, 317, 318, 319, 320, 321, 322, 323, 324, 325, 326, 327, 328, 329, 330, 331, 332, 333, 334, 335, 336, 337, 338, 339, 340, 341, 342, 343, 344, 345, 346, 347, 348, 349, 350, 351, 352, 353, 354, 355, 356, 357, 358, 359, 360, 361, 362, 363, 364, 365, 366, 367, 368, 369, 370, 371, 372, 373, 374, 375, 376, 377, 378, 379, 380, 381, 382, 383, 384, 385, 386, 387, 388, 389, 390, 391, 392, 393, 394, 395, 396, 397, 398, 399, 400, 401, 402, 403, 404, 405, 406, 407, 408, 409, 410, 411, 412, 413, 414, 415, 416, 417, 418, 419, 420, 421, 422, 423, 424, 425, 426, 427, 428, 429, 430, 431, 432, 433, 434, 435, 436, 437, 438, 439, 440, 441, 442, 443, 444, 445, 446, 447, 448, 449, 450, 451, 452, 453, 454, 455, 456, 457],
      "AcquisitionTime": ["161711.007500", "161712.497500", "161713.987500", "161715.477500", "161716.967500", "161718.457500", "161719.947500", "161721.437500", "161722.927500", "161724.417500", "161725.907500", "161727.397500", "161728.887500", "161730.377500", "161731.867500", "161733.357500", "161734.847500", "161736.337500", "161737.827500", "161739.317500", "161740.807500", "161742.297500", "161743.787500", "161745.277500", "161746.767500", "161748.257500", "161749.747500", "161751.237500", "161752.727500", "161754.217500", "161755.707500", "161757.197500", "161758.687500", "161800.177500", "161801.667500", "161803.157500", "161804.647500", "161806.137500", "161807.627500", "161809.117500", "161810.607500", "161812.097500", "161813.587500", "161815.077500", "161816.567500", "161818.057500", "161819.547500", "161821.037500", "161822.527500", "161824.017500", "161825.507500", "161826.997500", "161828.487500", "161829.977500", "161831.467500", "161832.957500", "161834.447500", "161835.937500", "161837.427500", "161838.917500", "161840.407500", "161841.897500", "161843.387500", "161844.877500", "161846.367500", "161847.857500", "161849.347500", "161850.837500", "161852.327500", "161853.817500", "161855.307500", "161856.797500", "161858.287500", "161859.777500", "161901.267500", "161902.757500", "161904.247500", "161905.737500", "161907.227500", "161908.717500", "161910.207500", "161911.697500", "161913.187500", "161914.677500", "161916.167500", "161917.657500", "161919.147500", "161920.637500", "161922.127500", "161923.617500", "161925.107500", "161926.597500", "161928.087500", "161929.577500", "161931.067500", "161932.557500", "161934.047500", "161935.537500", "161937.027500", "161938.517500", "161940.007500", "161941.497500", "161942.987500", "161944.477500", "161945.967500", "161947.457500", "161948.947500", "161950.437500", "161951.927500", "161953.417500", "161954.907500", "161956.397500", "161957.887500", "161959.377500", "162000.867500", "162002.357500", "162003.847500", "162005.337500", "162006.827500", "162008.317500", "162009.807500", "162011.297500", "162012.787500", "162014.277500", "162015.767500", "162017.257500", "162018.747500", "162020.237500", "162021.727500", "162023.217500", "162024.707500", "162026.197500", "162027.687500", "162029.177500", "162030.667500", "162032.157500", "162033.647500", "162035.137500", "162036.627500", "162038.117500", "162039.607500", "162041.097500", "162042.587500", "162044.077500", "162045.567500", "162047.057500", "162048.547500", "162050.037500", "162051.527500", "162053.017500", "162054.507500", "162055.997500", "162057.487500", "162058.977500", "162100.467500", "162101.957500", "162103.447500", "162104.937500", "162106.427500", "162107.917500", "162109.407500", "162110.897500", "162112.387500", "162113.877500", "162115.367500", "162116.857500", "162118.347500", "162119.837500", "162121.327500", "162122.817500", "162124.307500", "162125.797500", "162127.287500", "162128.777500", "162130.267500", "162131.757500", "162133.247500", "162134.737500", "162136.227500", "162137.717500", "162139.207500", "162140.697500", "162142.187500", "162143.677500", "162145.167500", "162146.657500", "162148.147500", "162149.637500", "162151.127500", "162152.617500", "162154.107500", "162155.597500", "162157.087500", "162158.577500", "162200.067500", "162201.557500", "162203.047500", "162204.537500", "162206.027500", "162207.517500", "162209.007500", "162210.497500", "162211.987500", "162213.477500", "162214.967500", "162216.457500", "162217.947500", "162219.437500", "162220.927500", "162222.417500", "162223.907500", "162225.397500", "162226.887500", "162228.377500", "162229.867500", "162231.357500", "162232.847500", "162234.337500", "162235.827500", "162237.317500", "162238.807500", "162240.297500", "162241.787500", "162243.277500", "162244.767500", "162246.257500", "162247.747500", "162249.237500", "162250.727500", "162252.217500", "162253.707500", "162255.197500", "162256.687500", "162258.177500", "162259.667500", "162301.157500", "162302.647500", "162304.137500", "162305.627500", "162307.117500", "162308.607500", "162310.097500", "162311.587500", "162313.077500", "162314.567500", "162316.057500", "162317.547500", "162319.037500", "162320.527500", "162322.017500", "162323.507500", "162324.997500", "162326.487500", "162327.977500", "162329.467500", "162330.957500", "162332.447500", "162333.937500", "162335.427500", "162336.917500", "162338.407500", "162339.897500", "162341.387500", "162342.877500", "162344.367500", "162345.857500", "162347.347500", "162348.837500", "162350.327500", "162351.817500", "162353.307500", "162354.797500", "162356.287500", "162357.777500", "162359.267500", "162400.757500", "162402.247500", "162403.737500", "162405.227500", "162406.717500", "162408.207500", "162409.697500", "162411.187500", "162412.677500", "162414.167500", "162415.657500", "162417.147500", "162418.637500", "162420.127500", "162421.617500", "162423.107500", "162424.597500", "162426.087500", "162427.577500", "162429.067500", "162430.557500", "162432.047500", "162433.537500", "162435.027500", "162436.517500", "162438.007500", "162439.497500", "162440.987500", "162442.477500", "162443.967500", "162445.457500", "162446.947500", "162448.437500", "162449.927500", "162451.417500", "162452.907500", "162454.397500", "162455.887500", "162457.377500", "162458.867500", "162500.357500", "162501.847500", "162503.337500", "162504.827500", "162506.317500", "162507.807500", "162509.297500", "162510.787500", "162512.277500", "162513.767500", "162515.257500", "162516.747500", "162518.237500", "162519.727500", "162521.217500", "162522.707500", "162524.197500", "162525.687500", "162527.177500", "162528.667500", "162530.157500", "162531.647500", "162533.137500", "162534.627500", "162536.117500", "162537.607500", "162539.097500", "162540.587500", "162542.077500", "162543.567500", "162545.057500", "162546.547500", "162548.037500", "162549.527500", "162551.017500", "162552.507500", "162553.997500", "162555.487500", "162556.977500", "162558.467500", "162559.957500", "162601.447500", "162602.937500", "162604.427500", "162605.917500", "162607.407500", "162608.897500", "162610.387500", "162611.877500", "162613.367500", "162614.857500", "162616.347500", "162617.837500", "162619.327500", "162620.817500", "162622.307500", "162623.797500", "162625.287500", "162626.777500", "162628.267500", "162629.757500", "162631.247500", "162632.737500", "162634.227500", "162635.717500", "162637.207500", "162638.697500", "162640.187500", "162641.677500", "162643.167500", "162644.657500", "162646.147500", "162647.637500", "162649.127500", "162650.617500", "162652.107500", "162653.597500", "162655.087500", "162656.577500", "162658.067500", "162659.557500", "162701.047500", "162702.537500", "162704.027500", "162705.517500", "162707.007500", "162708.497500", "162709.987500", "162711.477500", "162712.967500", "162714.457500", "162715.947500", "162717.437500", "162718.927500", "162720.417500", "162721.907500", "162723.397500", "162724.887500", "162726.377500", "162727.867500", "162729.357500", "162730.847500", "162732.337500", "162733.827500", "162735.317500", "162736.807500", "162738.297500", "162739.787500", "162741.277500", "162742.767500", "162744.257500", "162745.747500", "162747.237500", "162748.727500", "162750.217500", "162751.707500", "162753.197500", "162754.687500", "162756.177500", "162757.667500", "162759.157500", "162800.647500", "162802.137500", "162803.627500", "162805.117500", "162806.607500", "162808.097500", "162809.587500", "162811.077500", "162812.567500", "162814.057500", "162815.547500", "162817.037500", "162818.527500", "162820.017500", "162821.507500", "162822.997500", "162824.487500", "162825.977500", "162827.467500", "162828.957500", "162830.447500"],
      "ContentTime": ["161808.720000", "161808.723000", "161828.769000", "161828.772000", "161828.774000", "161828.777000", "161828.779000", "161828.782000", "161828.784000", "161828.787000", "161828.789000", "161828.792000", "161828.794000", "161828.797000", "161828.799000", "161828.806000", "161828.808000", "161828.811000", "161828.813000", "161828.816000", "161828.818000", "161828.821000", "161848.762000", "161848.765000", "161848.768000", "161848.770000", "161848.773000", "161848.775000", "161848.777000", "161848.780000", "161848.782000", "161848.785000", "161848.787000", "161848.790000", "161848.792000", "161848.795000", "161848.797000", "161848.800000", "161848.802000", "161848.805000", "161848.807000", "161848.810000", "161908.767000", "161908.770000", "161908.772000", "161908.775000", "161908.777000", "161908.780000", "161908.782000", "161908.785000", "161908.787000", "161908.789000", "161908.792000", "161908.794000", "161908.797000", "161908.799000", "161908.802000", "161908.804000", "161908.816000", "161908.818000", "161908.821000", "161908.823000", "161908.826000", "161928.749000", "161928.752000", "161928.754000", "161928.757000", "161928.759000", "161928.762000", "161928.764000", "161928.767000", "161928.769000", "161928.772000", "161928.774000", "161928.777000", "161928.779000", "161928.782000", "161928.784000", "161928.787000", "161928.789000", "161928.792000", "161928.794000", "161928.803000", "161948.749000", "161948.751000", "161948.754000", "161948.757000", "161948.759000", "161948.761000", "161948.764000", "161948.767000", "161948.769000", "161948.772000", "161948.774000", "161948.777000", "161948.779000", "161948.781000", "161948.784000", "161948.786000", "161948.789000", "161948.791000", "161948.794000", "161948.796000", "162028.825000", "162028.828000", "162028.831000", "162028.833000", "162028.836000", "162028.838000", "162028.841000", "162028.843000", "162028.846000", "162028.848000", "162028.851000", "162028.853000", "162028.856000", "162028.858000", "162028.861000", "162028.863000", "162028.866000", "162028.868000", "162028.871000", "162028.873000", "162028.876000", "162028.878000", "162028.881000", "162028.883000", "162028.886000", "162028.888000", "162028.891000", "162028.893000", "162028.896000", "162108.799000", "162108.801000", "162108.804000", "162108.806000", "162108.809000", "162108.812000", "162108.814000", "162108.816000", "162108.819000", "162108.821000", "162108.824000", "162108.827000", "162108.829000", "162108.832000", "162108.834000", "162108.837000", "162108.839000", "162108.841000", "162108.844000", "162108.846000", "162108.849000", "162108.851000", "162108.854000", "162108.856000", "162108.859000", "162108.861000", "162108.864000", "162148.783000", "162148.786000", "162148.788000", "162148.791000", "162148.793000", "162148.796000", "162148.799000", "162148.802000", "162148.805000", "162148.808000", "162148.811000", "162148.814000", "162148.816000", "162148.819000", "162148.822000", "162148.825000", "162148.828000", "162148.830000", "162148.833000", "162148.835000", "162148.838000", "162148.841000", "162148.843000", "162148.846000", "162148.848000", "162148.851000", "162228.803000", "162228.806000", "162228.808000", "162228.811000", "162228.813000", "162228.816000", "162228.818000", "162228.821000", "162228.823000", "162228.826000", "162228.828000", "162228.831000", "162228.833000", "162228.836000", "162228.838000", "162228.841000", "162228.843000", "162228.846000", "162228.848000", "162228.851000", "162228.853000", "162228.856000", "162228.858000", "162228.861000", "162228.863000", "162228.866000", "162228.868000", "162308.792000", "162308.795000", "162308.798000", "162308.800000", "162308.803000", "162308.805000", "162308.808000", "162308.810000", "162308.813000", "162308.815000", "162308.818000", "162308.820000", "162308.823000", "162308.825000", "162308.828000", "162308.831000", "162308.833000", "162308.836000", "162308.838000", "162308.841000", "162308.843000", "162308.846000", "162308.848000", "162308.851000", "162308.853000", "162308.856000", "162308.858000", "162348.789000", "162348.792000", "162348.794000", "162348.797000", "162348.799000", "162348.802000", "162348.804000", "162348.807000", "162348.809000", "162348.812000", "162348.814000", "162348.816000", "162348.819000", "162348.821000", "162348.824000", "162348.826000", "162348.829000", "162348.832000", "162348.834000", "162348.837000", "162348.839000", "162348.841000", "162348.844000", "162348.847000", "162348.849000", "162348.852000", "162348.854000", "162428.798000", "162428.801000", "162428.803000", "162428.806000", "162428.808000", "162428.811000", "162428.813000", "162428.816000", "162428.818000", "162428.821000", "162428.823000", "162428.826000", "162428.828000", "162428.831000", "162428.833000", "162428.836000", "162428.838000", "162428.841000", "162428.843000", "162428.846000", "162428.848000", "162428.851000", "162428.853000", "162428.856000", "162428.858000", "162428.861000", "162428.863000", "162508.800000", "162508.803000", "162508.805000", "162508.808000", "162508.810000", "162508.813000", "162508.815000", "162508.818000", "162508.820000", "162508.823000", "162508.825000", "162508.828000", "162508.831000", "162508.833000", "162508.836000", "162508.838000", "162508.841000", "162508.843000", "162508.846000", "162508.848000", "162508.851000", "162508.853000", "162508.856000", "162508.858000", "162508.861000", "162508.863000", "162508.865000", "162548.791000", "162548.794000", "162548.796000", "162548.799000", "162548.801000", "162548.804000", "162548.806000", "162548.809000", "162548.811000", "162548.814000", "162548.816000", "162548.819000", "162548.821000", "162548.824000", "162548.826000", "162548.829000", "162548.831000", "162548.834000", "162548.836000", "162548.839000", "162548.841000", "162548.844000", "162548.846000", "162548.849000", "162548.851000", "162548.854000", "162628.788000", "162628.791000", "162628.793000", "162628.796000", "162628.798000", "162628.801000", "162628.803000", "162628.806000", "162628.808000", "162628.811000", "162628.813000", "162628.816000", "162628.818000", "162628.821000", "162628.823000", "162628.826000", "162628.828000", "162628.831000", "162628.833000", "162628.836000", "162628.839000", "162628.841000", "162628.844000", "162628.846000", "162628.849000", "162628.851000", "162628.854000", "162708.796000", "162708.799000", "162708.802000", "162708.804000", "162708.807000", "162708.809000", "162708.812000", "162708.815000", "162708.817000", "162708.820000", "162708.822000", "162708.825000", "162708.827000", "162708.830000", "162708.832000", "162708.835000", "162708.837000", "162708.840000", "162708.842000", "162708.845000", "162708.847000", "162708.850000", "162708.852000", "162708.855000", "162708.857000", "162708.860000", "162708.862000", "162748.782000", "162748.785000", "162748.787000", "162748.790000", "162748.792000", "162748.795000", "162748.797000", "162748.800000", "162748.802000", "162748.805000", "162748.807000", "162748.810000", "162748.813000", "162748.815000", "162748.818000", "162748.820000", "162748.823000", "162748.825000", "162748.828000", "162748.830000", "162748.833000", "162748.835000", "162748.838000", "162748.840000", "162748.843000", "162748.845000", "162748.848000", "162828.796000", "162828.799000", "162828.801000", "162828.804000", "162828.806000", "162828.809000", "162828.811000", "162828.814000", "162828.816000", "162828.819000", "162828.821000", "162828.824000", "162828.826000", "162828.829000", "162828.831000", "162828.833000", "162828.836000", "162828.838000", "162828.841000", "162828.844000", "162828.846000", "162828.849000", "162828.851000", "162828.854000", "162828.856000", "162828.858000", "162828.861000", "162833.827000", "162833.830000", "162833.832000"],
