{
  "AcquisitionMatrixPE": 104,
  "AcquisitionNumber": 1,
  "AcquisitionTime": "16:29:57.432500",
  "BandwidthPerPixelPhaseEncode": 17.17,
  "BaseResolution": 104,
  "BodyPartExamined": "BRAIN",
  "CoilCombinationMethod": "Sum of Squares",
  "ConsistencyInfo": "N4_VE11C_LATEST_20160120",
  "ConversionSoftware": "dcm2niix",
  "ConversionSoftwareVersion": "v1.0.20211006",
  "DerivedVendorReportedEchoSpacing": 0.000560011,
  "DeviceSerialNumber": "167006",
  "DwellTime": 2.1e-06,
  "EchoTime": 0.037,
  "EchoTrainLength": 104,
  "EffectiveEchoSpacing": 0.000560011,
  "FlipAngle": 52,
  "HeudiconvVersion": "0.11.3.post9+gc939bf8",
  "ImageComments": "Unaliased MB4/PE3/LB",
  "ImageOrientationPatientDICOM": [0.999371, 0.0126271, 0.0331514, -0.00383733, 0.967502, -0.252833],
  "ImageOrientationText": "Tra>Cor(-14.6)>Sag(2.0)",
  "ImageType": [
    "ORIGINAL",
    "PRIMARY",
    "M",
    "MB",
    "ND",
    "MOSAIC"
],
  "ImagingFrequency": 123.259,
  "InPlanePhaseEncodingDirectionDICOM": "COL",
  "InstitutionAddress": "Chemin Queen-Mary 4565,Montreal,District,CA,H3W 1W5",
  "InstitutionName": "IUGM",
  "InstitutionalDepartmentName": "Department",
  "MRAcquisitionType": "2D",
  "MagneticFieldStrength": 3,
  "Manufacturer": "Siemens",
  "ManufacturersModelName": "Prisma_fit",
  "MatrixCoilMode": "SENSE",
  "Modality": "MR",
  "MultibandAccelerationFactor": 4,
  "PartialFourier": 1,
  "PatientPosition": "HFS",
  "PercentPhaseFOV": 100,
  "PercentSampling": 100,
  "PhaseEncodingDirection": "j",
  "PhaseEncodingSteps": 104,
  "PhaseResolution": 1,
  "PixelBandwidth": 2290,
  "ProcedureStepDescription": "games^mario",
  "ProtocolName": "func_task-mario_run-03",
  "PulseSequenceDetails": "%CustomerSeq%\\cmrr_mbep2d_bold",
  "ReceiveCoilActiveElements": "HC1-7;NC1,2",
  "ReceiveCoilName": "HeadNeck_64",
  "ReconMatrixPE": 104,
  "RepetitionTime": 1.49,
  "SAR": 0.0599455,
  "ScanOptions": "FS",
  "ScanningSequence": "EP",
  "SequenceName": "epfid2d1_104",
  "SequenceVariant": "SK\\SS",
  "SeriesDescription": "func_task-mario_run-03",
  "SeriesNumber": 16,
  "ShimSetting": [633, -7214, -8806, 729, 38, -1, 72, 3],
  "SliceThickness": 2,
  "SliceTiming": [0, 0.785, 0.0975, 0.8825, 0.1975, 0.98, 0.295, 1.0775, 0.3925, 1.1775, 0.49, 1.275, 0.5875, 1.3725, 0.6875, 0, 0.785, 0.0975, 0.8825, 0.1975, 0.98, 0.295, 1.0775, 0.3925, 1.1775, 0.49, 1.275, 0.5875, 1.3725, 0.6875, 0, 0.785, 0.0975, 0.8825, 0.1975, 0.98, 0.295, 1.0775, 0.3925, 1.1775, 0.49, 1.275, 0.5875, 1.3725, 0.6875, 0, 0.785, 0.0975, 0.8825, 0.1975, 0.98, 0.295, 1.0775, 0.3925, 1.1775, 0.49, 1.275, 0.5875, 1.3725, 0.6875],
  "SoftwareVersions": "syngo MR E11",
  "SpacingBetweenSlices": 2,
  "StationName": "MRC35049",
  "TaskName": "mario",
  "TotalReadoutTime": 0.0576811,
  "TxRefAmp": 248.769,
  "WipMemBlock": "04a43f92-a2d6-4dfa-821e-5874e46c12dd||Sequence: R016 ve11c/master r/e634e98; Dec 19 2017 11:00:25 by eja",
  "dcmmeta_affine": [
    [-1.9987411499023438, -0.007674664258956909, 0.07053324580192566, 107.27093505859375],
    [-0.02525411732494831, 1.9350043535232544, -0.5050942301750183, -72.61847686767578],
    [0.06630285829305649, 0.5056669116020203, 1.9338833093643188, -69.51419830322266],
    [0.0, 0.0, 0.0, 1.0]
],
  "dcmmeta_reorient_transform": [
    [0.0, -1.0, 0.0, 103.0],
    [1.0, 0.0, 0.0, 0.0],
    [0.0, 0.0, 1.0, 0.0],
    [0.0, 0.0, 0.0, 1.0]
],
  "dcmmeta_shape": [104, 104, 60, 419],
  "dcmmeta_slice_dim": 2,
  "dcmmeta_version": 0.6,
  "global": {
    "const": {
      "AcquisitionMatrix": [104, 0, 0, 104],
      "AngioFlag": "N",
      "BitsAllocated": 16,
      "BitsStored": 16,
      "BodyPartExamined": "BRAIN",
      "Columns": 832,
      "EchoNumbers": 1,
      "EchoTime": 37.0,
      "EchoTrainLength": 104,
      "FlipAngle": 52.0,
      "HighBit": 15,
      "ImageOrientationPatient": [0.99937057200674, 0.01262705888392, 0.03315142818742, -0.0038373321147, 0.96750220321431, -0.2528334662534],
      "ImagePositionPatient": [-831.22864288725, -840.22108038274, 142.49801655344],
      "ImageType": [
        "ORIGINAL",
        "PRIMARY",
        "M",
        "MB",
        "ND",
        "MOSAIC"
],
      "ImagedNucleus": "1H",
      "ImagingFrequency": 123.258887,
      "InPlanePhaseEncodingDirection": "COL",
      "MRAcquisitionType": "2D",
      "MagneticFieldStrength": 3.0,
      "Manufacturer": "SIEMENS",
      "ManufacturerModelName": "Prisma_fit",
      "Modality": "MR",
      "NumberOfAverages": 1.0,
      "NumberOfPhaseEncodingSteps": 104,
      "PercentPhaseFieldOfView": 100.0,
      "PercentSampling": 100.0,
      "PerformedProcedureStepStartTime": "142035.720000",
      "PhotometricInterpretation": "MONOCHROME2",
      "PixelBandwidth": 2290.0,
      "PixelRepresentation": 0,
      "PixelSpacing": [2.0, 2.0],
      "ProtocolName": "func_task-mario_run-03",
      "RepetitionTime": 1490.0,
      "Rows": 832,
      "SAR": 0.05994550935677,
      "SamplesPerPixel": 1,
      "ScanOptions": "FS",
      "ScanningSequence": "EP",
      "SequenceName": "epfid2d1_104",
      "SequenceVariant": [
        "SK",
        "SS"
],
      "SeriesDescription": "func_task-mario_run-03",
      "SeriesNumber": 16,
      "SeriesTime": "163128.751000",
      "SliceLocation": -45.093508691838,
      "SliceThickness": 2.0,
      "SmallestImagePixelValue": 0,
      "SoftwareVersions": "syngo MR E11",
      "SpacingBetweenSlices": 1.9999999779291,
      "SpecificCharacterSet": "ISO_IR 100",
      "StudyID": "1",
      "StudyTime": "142035.612000",
      "TransmitCoilName": "Body",
      "VariableFlipAngleFlag": "N",
      "WindowCenterWidthExplanation": "Algo1",
      "dBdt": 0.0},
    "slices": {}
  },
  "time": {
    "samples": {
      "AcquisitionNumber": [1, 2, 3, 4, 5, 6, 7, 8, 9, 10, 11, 12, 13, 14, 15, 16, 17, 18, 19, 20, 21, 22, 23, 24, 25, 26, 27, 28, 29, 30, 31, 32, 33, 34, 35, 36, 37, 38, 39, 40, 41, 42, 43, 44, 45, 46, 47, 48, 49, 50, 51, 52, 53, 54, 55, 56, 57, 58, 59, 60, 61, 62, 63, 64, 65, 66, 67, 68, 69, 70, 71, 72, 73, 74, 75, 76, 77, 78, 79, 80, 81, 82, 83, 84, 85, 86, 87, 88, 89, 90, 91, 92, 93, 94, 95, 96, 97, 98, 99, 100, 101, 102, 103, 104, 105, 106, 107, 108, 109, 110, 111, 112, 113, 114, 115, 116, 117, 118, 119, 120, 121, 122, 123, 124, 125, 126, 127, 128, 129, 130, 131, 132, 133, 134, 135, 136, 137, 138, 139, 140, 141, 142, 143, 144, 145, 146, 147, 148, 149, 150, 151, 152, 153, 154, 155, 156, 157, 158, 159, 160, 161, 162, 163, 164, 165, 166, 167, 168, 169, 170, 171, 172, 173, 174, 175, 176, 177, 178, 179, 180, 181, 182, 183, 184, 185, 186, 187, 188, 189, 190, 191, 192, 193, 194, 195, 196, 197, 198, 199, 200, 201, 202, 203, 204, 205, 206, 207, 208, 209, 210, 211, 212, 213, 214, 215, 216, 217, 218, 219, 220, 221, 222, 223, 224, 225, 226, 227, 228, 229, 230, 231, 232, 233, 234, 235, 236, 237, 238, 239, 240, 241, 242, 243, 244, 245, 246, 247, 248, 249, 250, 251, 252, 253, 254, 255, 256, 257, 258, 259, 260, 261, 262, 263, 264, 265, 266, 267, 268, 269, 270, 271, 272, 273, 274, 275, 276, 277, 278, 279, 280, 281, 282, 283, 284, 285, 286, 287, 288, 289, 290, 291, 292, 293, 294, 295, 296, 297, 298, 299, 300, 301, 302, 303, 304, 305, 306, 307, 308, 309, 310, 311, 312, 313, 314, 315, 316, 317, 318, 319, 320, 321, 322, 323, 324, 325, 326, 327, 328, 329, 330, 331, 332, 333, 334, 335, 336, 337, 338, 339, 340, 341, 342, 343, 344, 345, 346, 347, 348, 349, 350, 351, 352, 353, 354, 355, 356, 357, 358, 359, 360, 361, 362, 363, 364, 365, 366, 367, 368, 369, 370, 371, 372, 373, 374, 375, 376, 377, 378, 379, 380, 381, 382, 383, 384, 385, 386, 387, 388, 389, 390, 391, 392, 393, 394, 395, 396, 397, 398, 399, 400, 401, 402, 403, 404, 405, 406, 407, 408, 409, 410, 411, 412, 413, 414, 415, 416, 417, 418, 419],
      "AcquisitionTime": ["162957.432500", "162958.922500", "163000.412500", "163001.902500", "163003.392500", "163004.882500", "163006.372500", "163007.862500", "163009.352500", "163010.842500", "163012.332500", "163013.822500", "163015.312500", "163016.802500", "163018.292500", "163019.782500", "163021.272500", "163022.762500", "163024.252500", "163025.742500", "163027.232500", "163028.722500", "163030.212500", "163031.702500", "163033.192500", "163034.682500", "163036.172500", "163037.662500", "163039.152500", "163040.642500", "163042.132500", "163043.622500", "163045.112500", "163046.602500", "163048.092500", "163049.582500", "163051.072500", "163052.562500", "163054.052500", "163055.542500", "163057.032500", "163058.522500", "163100.012500", "163101.502500", "163102.992500", "163104.482500", "163105.972500", "163107.462500", "163108.952500", "163110.442500", "163111.932500", "163113.422500", "163114.912500", "163116.402500", "163117.892500", "163119.382500", "163120.872500", "163122.362500", "163123.852500", "163125.342500", "163126.832500", "163128.322500", "163129.812500", "163131.302500", "163132.792500", "163134.282500", "163135.772500", "163137.262500", "163138.752500", "163140.242500", "163141.732500", "163143.222500", "163144.712500", "163146.202500", "163147.692500", "163149.182500", "163150.672500", "163152.162500", "163153.652500", "163155.142500", "163156.632500", "163158.122500", "163159.612500", "163201.102500", "163202.592500", "163204.082500", "163205.572500", "163207.062500", "163208.552500", "163210.042500", "163211.532500", "163213.022500", "163214.512500", "163216.002500", "163217.492500", "163218.982500", "163220.472500", "163221.962500", "163223.452500", "163224.942500", "163226.432500", "163227.922500", "163229.412500", "163230.902500", "163232.392500", "163233.882500", "163235.372500", "163236.862500", "163238.352500", "163239.842500", "163241.332500", "163242.822500", "163244.312500", "163245.802500", "163247.292500", "163248.782500", "163250.272500", "163251.762500", "163253.252500", "163254.742500", "163256.232500", "163257.722500", "163259.212500", "163300.702500", "163302.192500", "163303.682500", "163305.172500", "163306.662500", "163308.152500", "163309.642500", "163311.132500", "163312.622500", "163314.112500", "163315.602500", "163317.092500", "163318.582500", "163320.072500", "163321.562500", "163323.052500", "163324.542500", "163326.032500", "163327.522500", "163329.012500", "163330.502500", "163331.992500", "163333.482500", "163334.972500", "163336.462500", "163337.952500", "163339.442500", "163340.932500", "163342.422500", "163343.912500", "163345.402500", "163346.892500", "163348.382500", "163349.872500", "163351.362500", "163352.852500", "163354.342500", "163355.832500", "163357.322500", "163358.812500", "163400.302500", "163401.792500", "163403.282500", "163404.772500", "163406.262500", "163407.752500", "163409.242500", "163410.732500", "163412.222500", "163413.712500", "163415.202500", "163416.692500", "163418.182500", "163419.672500", "163421.162500", "163422.652500", "163424.142500", "163425.632500", "163427.122500", "163428.612500", "163430.102500", "163431.592500", "163433.082500", "163434.572500", "163436.062500", "163437.552500", "163439.042500", "163440.532500", "163442.022500", "163443.512500", "163445.002500", "163446.492500", "163447.982500", "163449.472500", "163450.962500", "163452.452500", "163453.942500", "163455.432500", "163456.922500", "163458.412500", "163459.902500", "163501.392500", "163502.882500", "163504.372500", "163505.862500", "163507.352500", "163508.842500", "163510.332500", "163511.822500", "163513.312500", "163514.802500", "163516.292500", "163517.782500", "163519.272500", "163520.762500", "163522.252500", "163523.742500", "163525.232500", "163526.722500", "163528.212500", "163529.702500", "163531.192500", "163532.682500", "163534.172500", "163535.662500", "163537.152500", "163538.642500", "163540.132500", "163541.622500", "163543.112500", "163544.602500", "163546.092500", "163547.582500", "163549.072500", "163550.562500", "163552.052500", "163553.542500", "163555.032500", "163556.522500", "163558.012500", "163559.502500", "163600.992500", "163602.482500", "163603.972500", "163605.462500", "163606.952500", "163608.442500", "163609.932500", "163611.422500", "163612.912500", "163614.402500", "163615.892500", "163617.382500", "163618.872500", "163620.362500", "163621.852500", "163623.342500", "163624.832500", "163626.322500", "163627.812500", "163629.302500", "163630.792500", "163632.282500", "163633.772500", "163635.262500", "163636.752500", "163638.242500", "163639.732500", "163641.222500", "163642.712500", "163644.202500", "163645.692500", "163647.182500", "163648.672500", "163650.162500", "163651.652500", "163653.142500", "163654.632500", "163656.122500", "163657.612500", "163659.102500", "163700.592500", "163702.082500", "163703.572500", "163705.062500", "163706.552500", "163708.042500", "163709.532500", "163711.022500", "163712.512500", "163714.002500", "163715.492500", "163716.982500", "163718.472500", "163719.962500", "163721.452500", "163722.942500", "163724.432500", "163725.922500", "163727.412500", "163728.902500", "163730.392500", "163731.882500", "163733.372500", "163734.862500", "163736.352500", "163737.842500", "163739.332500", "163740.822500", "163742.312500", "163743.802500", "163745.292500", "163746.782500", "163748.272500", "163749.762500", "163751.252500", "163752.742500", "163754.232500", "163755.722500", "163757.212500", "163758.702500", "163800.192500", "163801.682500", "163803.172500", "163804.662500", "163806.152500", "163807.642500", "163809.132500", "163810.622500", "163812.112500", "163813.602500", "163815.092500", "163816.582500", "163818.072500", "163819.562500", "163821.052500", "163822.542500", "163824.032500", "163825.522500", "163827.012500", "163828.502500", "163829.992500", "163831.482500", "163832.972500", "163834.462500", "163835.952500", "163837.442500", "163838.932500", "163840.422500", "163841.912500", "163843.402500", "163844.892500", "163846.382500", "163847.872500", "163849.362500", "163850.852500", "163852.342500", "163853.832500", "163855.322500", "163856.812500", "163858.302500", "163859.792500", "163901.282500", "163902.772500", "163904.262500", "163905.752500", "163907.242500", "163908.732500", "163910.222500", "163911.712500", "163913.202500", "163914.692500", "163916.182500", "163917.672500", "163919.162500", "163920.652500", "163922.142500", "163923.632500", "163925.122500", "163926.612500", "163928.102500", "163929.592500", "163931.082500", "163932.572500", "163934.062500", "163935.552500", "163937.042500", "163938.532500", "163940.022500", "163941.512500", "163943.002500", "163944.492500", "163945.982500", "163947.472500", "163948.962500", "163950.452500", "163951.942500", "163953.432500", "163954.922500", "163956.412500", "163957.902500", "163959.392500", "164000.882500", "164002.372500", "164003.862500", "164005.352500", "164006.842500", "164008.332500", "164009.822500", "164011.312500", "164012.802500", "164014.292500", "164015.782500", "164017.272500", "164018.762500", "164020.252500"],
      "ContentTime": ["163128.754000", "163128.758000", "163128.761000", "163128.764000", "163128.768000", "163128.771000", "163128.782000", "163128.785000", "163128.789000", "163128.792000", "163128.795000", "163128.799000", "163128.802000", "163128.805000", "163128.809000", "163128.812000", "163128.815000", "163128.819000", "163128.822000", "163128.826000", "163128.829000", "163128.834000", "163128.837000", "163128.841000", "163128.844000", "163128.848000", "163128.852000", "163128.856000", "163128.859000", "163128.863000", "163128.866000", "163128.869000", "163128.873000", "163128.876000", "163128.879000", "163148.720000", "163148.724000", "163148.727000", "163148.730000", "163148.734000", "163148.737000", "163148.740000", "163148.744000", "163148.747000", "163148.750000", "163148.754000", "163148.757000", "163148.769000", "163148.772000", "163148.775000", "163148.779000", "163148.782000", "163148.785000", "163148.789000", "163148.792000", "163148.795000", "163208.720000", "163208.724000", "163208.727000", "163208.730000", "163208.734000", "163208.737000", "163208.740000", "163208.744000", "163208.747000", "163208.750000", "163208.754000", "163208.757000", "163208.760000", "163208.763000", "163208.767000", "163208.770000", "163208.773000", "163208.777000", "163208.780000", "163208.783000", "163228.720000", "163228.724000", "163228.727000", "163228.730000", "163228.734000", "163228.737000", "163228.740000", "163228.744000", "163228.747000", "163228.750000", "163228.754000", "163228.757000", "163228.760000", "163228.764000", "163228.767000", "163228.770000", "163228.774000", "163228.778000", "163228.781000", "163228.784000", "163308.720000", "163308.724000", "163308.727000", "163308.730000", "163308.734000", "163308.737000", "163308.740000", "163308.744000", "163308.747000", "163308.750000", "163308.754000", "163308.757000", "163308.760000", "163308.764000", "163308.767000", "163308.788000", "163308.791000", "163308.794000", "163308.798000", "163308.801000", "163308.804000", "163308.808000", "163308.811000", "163308.814000", "163308.818000", "163308.821000", "163308.824000", "163308.828000", "163308.831000", "163308.834000", "163308.838000", "163348.720000", "163348.724000", "163348.727000", "163348.731000", "163348.734000", "163348.737000", "163348.740000", "163348.744000", "163348.747000", "163348.751000", "163348.754000", "163348.757000", "163348.760000", "163348.764000", "163348.767000", "163348.770000", "163348.774000", "163348.777000", "163348.780000", "163348.784000", "163348.787000", "163348.790000", "163348.793000", "163348.797000", "163348.800000", "163348.804000", "163348.807000", "163428.720000", "163428.724000", "163428.727000", "163428.731000", "163428.734000", "163428.737000", "163428.741000", "163428.744000", "163428.747000", "163428.751000", "163428.754000", "163428.757000", "163428.761000", "163428.764000", "163428.767000", "163428.770000", "163428.774000", "163428.777000", "163428.781000", "163428.784000", "163428.787000", "163428.790000", "163428.794000", "163428.797000", "163428.800000", "163428.804000", "163428.807000", "163448.720000", "163448.724000", "163448.727000", "163448.731000", "163448.734000", "163448.737000", "163448.740000", "163448.744000", "163448.747000", "163448.750000", "163448.754000", "163448.757000", "163448.760000", "163528.720000", "163528.724000", "163528.727000", "163528.730000", "163528.734000", "163528.737000", "163528.740000", "163528.744000", "163528.747000", "163528.750000", "163528.754000", "163528.757000", "163528.760000", "163528.764000", "163528.767000", "163528.781000", "163528.784000", "163528.788000", "163528.791000", "163528.794000", "163528.797000", "163528.801000", "163528.804000", "163528.807000", "163528.811000", "163528.814000", "163528.817000", "163608.720000", "163608.724000", "163608.727000", "163608.731000", "163608.734000", "163608.737000", "163608.741000", "163608.744000", "163608.747000", "163608.751000", "163608.754000", "163608.757000", "163608.761000", "163608.764000", "163608.767000", "163608.771000", "163608.774000", "163608.777000", "163608.781000", "163608.784000", "163608.787000", "163608.791000", "163608.794000", "163608.797000", "163608.801000", "163608.804000", "163608.807000", "163648.722000", "163648.725000", "163648.729000", "163648.732000", "163648.735000", "163648.739000", "163648.742000", "163648.745000", "163648.749000", "163648.752000", "163648.755000", "163648.758000", "163648.762000", "163648.765000", "163648.768000", "163648.772000", "163648.775000", "163648.778000", "163648.782000", "163648.785000", "163648.788000", "163648.792000", "163648.795000", "163648.798000", "163648.801000", "163648.805000", "163648.808000", "163728.720000", "163728.724000", "163728.727000", "163728.730000", "163728.734000", "163728.737000", "163728.741000", "163728.744000", "163728.747000", "163728.751000", "163728.754000", "163728.757000", "163728.761000", "163728.764000", "163728.767000", "163728.771000", "163728.774000", "163728.777000", "163728.781000", "163728.784000", "163728.787000", "163728.791000", "163728.794000", "163728.797000", "163728.801000", "163728.804000", "163728.822000", "163808.719000", "163808.723000", "163808.726000", "163808.730000", "163808.733000", "163808.736000", "163808.739000", "163808.743000", "163808.746000", "163808.749000", "163808.753000", "163808.756000", "163808.759000", "163808.763000", "163808.766000", "163808.769000", "163808.773000", "163808.776000", "163808.779000", "163808.783000", "163808.786000", "163808.789000", "163808.792000", "163808.796000", "163808.799000", "163808.802000", "163808.806000", "163848.721000", "163848.725000", "163848.728000", "163848.731000", "163848.735000", "163848.738000", "163848.741000", "163848.745000", "163848.748000", "163848.751000", "163848.755000", "163848.758000", "163848.761000", "163848.765000", "163848.768000", "163848.772000", "163848.775000", "163848.779000", "163848.782000", "163848.785000", "163848.788000", "163848.792000", "163848.795000", "163848.798000", "163848.802000", "163848.805000", "163928.720000", "163928.724000", "163928.727000", "163928.731000", "163928.734000", "163928.737000", "163928.741000", "163928.744000", "163928.747000", "163928.752000", "163928.756000", "163928.759000", "163928.762000", "163928.766000", "163928.769000", "163928.772000", "163928.776000", "163928.779000", "163928.782000", "163928.786000", "163928.789000", "163928.792000", "163928.795000", "163928.799000", "163928.802000", "163928.805000", "163928.809000", "164008.720000", "164008.724000", "164008.727000", "164008.731000", "164008.734000", "164008.737000", "164008.741000", "164008.744000", "164008.758000", "164008.761000", "164008.765000", "164008.768000", "164008.771000", "164008.775000", "164008.778000", "164008.781000", "164008.785000", "164008.788000", "164008.791000", "164008.794000", "164008.798000", "164008.801000", "164008.804000", "164008.808000", "164008.811000", "164008.814000", "164008.817000", "164023.042000", "164023.046000", "164023.049000", "164023.052000", "164023.056000", "164023.059000", "164023.062000", "164023.066000", "164023.069000", "164023.072000"],
      "InstanceCreationTime": ["163128.754000", "163128.758000", "163128.761000", "163128.764000", "163128.768000", "163128.771000", "163128.782000", "163128.785000", "163128.789000", "163128.792000", "163128.795000", "163128.799000", "163128.802000", "163128.805000", "163128.809000", "163128.812000", "163128.815000", "163128.819000", "163128.822000", "163128.826000", "163128.829000", "163128.834000", "163128.837000", "163128.841000", "163128.844000", "163128.848000", "163128.852000", "163128.856000", "163128.859000", "163128.863000", "163128.866000", "163128.869000", "163128.873000", "163128.876000", "163128.879000", "163148.720000", "163148.724000", "163148.727000", "163148.730000", "163148.734000", "163148.737000", "163148.740000", "163148.744000", "163148.747000", "163148.750000", "163148.754000", "163148.757000", "163148.769000", "163148.772000", "163148.775000", "163148.779000", "163148.782000", "163148.785000", "163148.789000", "163148.792000", "163148.795000", "163208.720000", "163208.724000", "163208.727000", "163208.730000", "163208.734000", "163208.737000", "163208.740000", "163208.744000", "163208.747000", "163208.750000", "163208.754000", "163208.757000", "163208.760000", "163208.763000", "163208.767000", "163208.770000", "163208.773000", "163208.777000", "163208.780000", "163208.783000", "163228.720000", "163228.724000", "163228.727000", "163228.730000", "163228.734000", "163228.737000", "163228.740000", "163228.744000", "163228.747000", "163228.750000", "163228.754000", "163228.757000", "163228.760000", "163228.764000", "163228.767000", "163228.770000", "163228.774000", "163228.778000", "163228.781000", "163228.784000", "163308.720000", "163308.724000", "163308.727000", "163308.730000", "163308.734000", "163308.737000", "163308.740000", "163308.744000", "163308.747000", "163308.750000", "163308.754000", "163308.757000", "163308.760000", "163308.764000", "163308.767000", "163308.788000", "163308.791000", "163308.794000", "163308.798000", "163308.801000", "163308.804000", "163308.808000", "163308.811000", "163308.814000", "163308.818000", "163308.821000", "163308.824000", "163308.828000", "163308.831000", "163308.834000", "163308.838000", "163348.720000", "163348.724000", "163348.727000", "163348.731000", "163348.734000", "163348.737000", "163348.740000", "163348.744000", "163348.747000", "163348.751000", "163348.754000", "163348.757000", "163348.760000", "163348.764000", "163348.767000", "163348.770000", "163348.774000", "163348.777000", "163348.780000", "163348.784000", "163348.787000", "163348.790000", "163348.793000", "163348.797000", "163348.800000", "163348.804000", "163348.807000", "163428.720000", "163428.724000", "163428.727000", "163428.731000", "163428.734000", "163428.737000", "163428.741000", "163428.744000", "163428.747000", "163428.751000", "163428.754000", "163428.757000", "163428.761000", "163428.764000", "163428.767000", "163428.770000", "163428.774000", "163428.777000", "163428.781000", "163428.784000", "163428.787000", "163428.790000", "163428.794000", "163428.797000", "163428.800000", "163428.804000", "163428.807000", "163448.720000", "163448.724000", "163448.727000", "163448.731000", "163448.734000", "163448.737000", "163448.740000", "163448.744000", "163448.747000", "163448.750000", "163448.754000", "163448.757000", "163448.760000", "163528.720000", "163528.724000", "163528.727000", "163528.730000", "163528.734000", "163528.737000", "163528.740000", "163528.744000", "163528.747000", "163528.750000", "163528.754000", "163528.757000", "163528.760000", "163528.764000", "163528.767000", "163528.781000", "163528.784000", "163528.788000", "163528.791000", "163528.794000", "163528.797000", "163528.801000", "163528.804000", "163528.807000", "163528.811000", "163528.814000", "163528.817000", "163608.720000", "163608.724000", "163608.727000", "163608.731000", "163608.734000", "163608.737000", "163608.741000", "163608.744000", "163608.747000", "163608.751000", "163608.754000", "163608.757000", "163608.761000", "163608.764000", "163608.767000", "163608.771000", "163608.774000", "163608.777000", "163608.781000", "163608.784000", "163608.787000", "163608.791000", "163608.794000", "163608.797000", "163608.801000", "163608.804000", "163608.807000", "163648.722000", "163648.725000", "163648.729000", "163648.732000", "163648.735000", "163648.739000", "163648.742000", "163648.745000", "163648.749000", "163648.752000", "163648.755000", "163648.758000", "163648.762000", "163648.765000", "163648.768000", "163648.772000", "163648.775000", "163648.778000", "163648.782000", "163648.785000", "163648.788000", "163648.792000", "163648.795000", "163648.798000", "163648.801000", "163648.805000", "163648.808000", "163728.720000", "163728.724000", "163728.727000", "163728.730000", "163728.734000", "163728.737000", "163728.741000", "163728.744000", "163728.747000", "163728.751000", "163728.754000", "163728.757000", "163728.761000", "163728.764000", "163728.767000", "163728.771000", "163728.774000", "163728.777000", "163728.781000", "163728.784000", "163728.787000", "163728.791000", "163728.794000", "163728.797000", "163728.801000", "163728.804000", "163728.822000", "163808.719000", "163808.723000", "163808.726000", "163808.730000", "163808.733000", "163808.736000", "163808.739000", "163808.743000", "163808.746000", "163808.749000", "163808.753000", "163808.756000", "163808.759000", "163808.763000", "163808.766000", "163808.769000", "163808.773000", "163808.776000", "163808.779000", "163808.783000", "163808.786000", "163808.789000", "163808.792000", "163808.796000", "163808.799000", "163808.802000", "163808.806000", "163848.721000", "163848.725000", "163848.728000", "163848.731000", "163848.735000", "163848.738000", "163848.741000", "163848.745000", "163848.748000", "163848.751000", "163848.755000", "163848.758000", "163848.761000", "163848.765000", "163848.768000", "163848.772000", "163848.775000", "163848.779000", "163848.782000", "163848.785000", "163848.788000", "163848.792000", "163848.795000", "163848.798000", "163848.802000", "163848.805000", "163928.720000", "163928.724000", "163928.727000", "163928.731000", "163928.734000", "163928.737000", "163928.741000", "163928.744000", "163928.747000", "163928.752000", "163928.756000", "163928.759000", "163928.762000", "163928.766000", "163928.769000", "163928.772000", "163928.776000", "163928.779000", "163928.782000", "163928.786000", "163928.789000", "163928.792000", "163928.795000", "163928.799000", "163928.802000", "163928.805000", "163928.809000", "164008.720000", "164008.724000", "164008.727000", "164008.731000", "164008.734000", "164008.737000", "164008.741000", "164008.744000", "164008.758000", "164008.761000", "164008.765000", "164008.768000", "164008.771000", "164008.775000", "164008.778000", "164008.781000", "164008.785000", "164008.788000", "164008.791000", "164008.794000", "164008.798000", "164008.801000", "164008.804000", "164008.808000", "164008.811000", "164008.814000", "164008.817000", "164023.042000", "164023.046000", "164023.049000", "164023.052000", "164023.056000", "164023.059000", "164023.062000", "164023.066000", "164023.069000", "164023.072000"],
