{
  "AcquisitionMatrixPE": 104,
  "AcquisitionNumber": 1,
  "AcquisitionTime": "16:01:25.960000",
  "BandwidthPerPixelPhaseEncode": 17.17,
  "BaseResolution": 104,
  "BodyPartExamined": "BRAIN",
  "CoilCombinationMethod": "Sum of Squares",
  "ConsistencyInfo": "N4_VE11C_LATEST_20160120",
  "ConversionSoftware": "dcm2niix",
  "ConversionSoftwareVersion": "v1.0.20211006",
  "DerivedVendorReportedEchoSpacing": 0.000560011,
  "DeviceSerialNumber": "167006",
  "DwellTime": 2.1e-06,
  "EchoTime": 0.037,
  "EchoTrainLength": 104,
  "EffectiveEchoSpacing": 0.000560011,
  "FlipAngle": 52,
  "HeudiconvVersion": "0.5.3.post569+g418601f",
  "ImageComments": "Unaliased MB4/PE3/LB",
  "ImageOrientationPatientDICOM": [0.999678, 0.00323391, 0.0251837, 0.00436198, 0.955235, -0.295815],
  "ImageOrientationText": "Tra>Cor(-17.2)>Sag(1.4)",
  "ImageType": [
    "ORIGINAL",
    "PRIMARY",
    "M",
    "MB",
    "ND",
    "MOSAIC"
],
  "ImagingFrequency": 123.259,
  "InPlanePhaseEncodingDirectionDICOM": "COL",
  "InstitutionAddress": "Chemin Queen-Mary 4565,Montreal,District,CA,H3W 1W5",
  "InstitutionName": "IUGM",
  "InstitutionalDepartmentName": "Department",
  "MRAcquisitionType": "2D",
  "MagneticFieldStrength": 3,
  "Manufacturer": "Siemens",
  "ManufacturersModelName": "Prisma_fit",
  "MatrixCoilMode": "SENSE",
  "Modality": "MR",
  "MultibandAccelerationFactor": 4,
  "PartialFourier": 1,
  "PatientPosition": "HFS",
  "PercentPhaseFOV": 100,
  "PercentSampling": 100,
  "PhaseEncodingDirection": "j",
  "PhaseEncodingSteps": 104,
  "PhaseResolution": 1,
  "PixelBandwidth": 2290,
  "ProcedureStepDescription": "games^mario",
  "ProtocolName": "func_task-mario_run-02",
  "PulseSequenceDetails": "%CustomerSeq%\\cmrr_mbep2d_bold",
  "ReceiveCoilActiveElements": "HC1-7;NC1,2",
  "ReceiveCoilName": "HeadNeck_64",
  "ReconMatrixPE": 104,
  "RepetitionTime": 1.49,
  "SAR": 0.0305937,
  "ScanOptions": "FS",
  "ScanningSequence": "EP",
  "SequenceName": "epfid2d1_104",
  "SequenceVariant": "SK\\SS",
  "SeriesDescription": "func_task-mario_run-02",
  "SeriesNumber": 13,
  "ShimSetting": [638, -7235, -8760, 727, 24, -61, 56, 10],
  "SliceThickness": 2,
  "SliceTiming": [0, 0.7825, 0.0975, 0.88, 0.195, 0.98, 0.2925, 1.0775, 0.39, 1.175, 0.49, 1.2725, 0.5875, 1.37, 0.685, 0, 0.7825, 0.0975, 0.88, 0.195, 0.98, 0.2925, 1.0775, 0.39, 1.175, 0.49, 1.2725, 0.5875, 1.37, 0.685, 0, 0.7825, 0.0975, 0.88, 0.195, 0.98, 0.2925, 1.0775, 0.39, 1.175, 0.49, 1.2725, 0.5875, 1.37, 0.685, 0, 0.7825, 0.0975, 0.88, 0.195, 0.98, 0.2925, 1.0775, 0.39, 1.175, 0.49, 1.2725, 0.5875, 1.37, 0.685],
  "SoftwareVersions": "syngo MR E11",
  "SpacingBetweenSlices": 2,
  "StationName": "MRC35049",
  "TaskName": "mario",
  "TotalReadoutTime": 0.0576811,
  "TxRefAmp": 204.699,
  "WipMemBlock": "325a7e04-34b3-4f40-a3d5-173df2f3b658||Sequence: R016 ve11c/master r/e634e98; Dec 19 2017 11:00:25 by eja",
  "dcmmeta_affine": [
    [-1.9993551969528198, 0.008723950013518333, 0.05002596974372864, 107.22569274902344],
    [-0.006467819679528475, 1.9104704856872559, -0.5916590690612793, -70.04403686523438],
    [0.05036737024784088, 0.5916301012039185, 1.9098265171051025, -57.478904724121094],
    [0.0, 0.0, 0.0, 1.0]
],
  "dcmmeta_reorient_transform": [
    [0.0, -1.0, 0.0, 103.0],
    [1.0, 0.0, 0.0, 0.0],
    [0.0, 0.0, 1.0, 0.0],
    [0.0, 0.0, 0.0, 1.0]
],
  "dcmmeta_shape": [104, 104, 60, 468],
  "dcmmeta_slice_dim": 2,
  "dcmmeta_version": 0.6,
  "global": {
    "const": {
      "AcquisitionMatrix": [104, 0, 0, 104],
      "AngioFlag": "N",
      "BitsAllocated": 16,
      "BitsStored": 16,
      "BodyPartExamined": "BRAIN",
      "Columns": 832,
      "EchoNumbers": 1,
      "EchoTime": 37.0,
      "EchoTrainLength": 104,
      "FlipAngle": 52.0,
      "HighBit": 15,
      "ImageOrientationPatient": [0.99967760994042, 0.00323390979289, 0.02518368541844, 0.00436197492801, 0.95523527177887, -0.2958150583123],
      "ImagePositionPatient": [-839.06507408159, -824.49998989656, 200.478635759],
      "ImageType": [
        "ORIGINAL",
        "PRIMARY",
        "M",
        "MB",
        "ND",
        "MOSAIC"
],
      "ImagedNucleus": "1H",
      "ImagingFrequency": 123.258827,
      "InPlanePhaseEncodingDirection": "COL",
      "MRAcquisitionType": "2D",
      "MagneticFieldStrength": 3.0,
      "Manufacturer": "SIEMENS",
      "ManufacturerModelName": "Prisma_fit",
      "Modality": "MR",
      "NumberOfAverages": 1.0,
      "NumberOfPhaseEncodingSteps": 104,
      "PercentPhaseFieldOfView": 100.0,
      "PercentSampling": 100.0,
      "PerformedProcedureStepStartTime": "144036.615000",
      "PhotometricInterpretation": "MONOCHROME2",
      "PixelBandwidth": 2290.0,
      "PixelRepresentation": 0,
      "PixelSpacing": [2.0, 2.0],
      "ProtocolName": "func_task-mario_run-02",
      "RepetitionTime": 1490.0,
      "Rows": 832,
      "SAR": 0.0305937373236,
      "SamplesPerPixel": 1,
      "ScanOptions": "FS",
      "ScanningSequence": "EP",
      "SequenceName": "epfid2d1_104",
      "SequenceVariant": [
        "SK",
        "SS"
],
      "SeriesDescription": "func_task-mario_run-02",
      "SeriesNumber": 13,
      "SeriesTime": "160258.529000",
      "SliceLocation": -31.48423548362,
      "SliceThickness": 2.0,
      "SmallestImagePixelValue": 0,
      "SoftwareVersions": "syngo MR E11",
      "SpacingBetweenSlices": 2.0000000543806,
      "SpecificCharacterSet": "ISO_IR 100",
      "StudyID": "1",
      "StudyTime": "144036.485000",
      "TransmitCoilName": "Body",
      "VariableFlipAngleFlag": "N",
      "WindowCenterWidthExplanation": "Algo1",
      "dBdt": 0.0},
    "slices": {}
  },
  "time": {
    "samples": {
      "AcquisitionNumber": [1, 2, 3, 4, 5, 6, 7, 8, 9, 10, 11, 12, 13, 14, 15, 16, 17, 18, 19, 20, 21, 22, 23, 24, 25, 26, 27, 28, 29, 30, 31, 32, 33, 34, 35, 36, 37, 38, 39, 40, 41, 42, 43, 44, 45, 46, 47, 48, 49, 50, 51, 52, 53, 54, 55, 56, 57, 58, 59, 60, 61, 62, 63, 64, 65, 66, 67, 68, 69, 70, 71, 72, 73, 74, 75, 76, 77, 78, 79, 80, 81, 82, 83, 84, 85, 86, 87, 88, 89, 90, 91, 92, 93, 94, 95, 96, 97, 98, 99, 100, 101, 102, 103, 104, 105, 106, 107, 108, 109, 110, 111, 112, 113, 114, 115, 116, 117, 118, 119, 120, 121, 122, 123, 124, 125, 126, 127, 128, 129, 130, 131, 132, 133, 134, 135, 136, 137, 138, 139, 140, 141, 142, 143, 144, 145, 146, 147, 148, 149, 150, 151, 152, 153, 154, 155, 156, 157, 158, 159, 160, 161, 162, 163, 164, 165, 166, 167, 168, 169, 170, 171, 172, 173, 174, 175, 176, 177, 178, 179, 180, 181, 182, 183, 184, 185, 186, 187, 188, 189, 190, 191, 192, 193, 194, 195, 196, 197, 198, 199, 200, 201, 202, 203, 204, 205, 206, 207, 208, 209, 210, 211, 212, 213, 214, 215, 216, 217, 218, 219, 220, 221, 222, 223, 224, 225, 226, 227, 228, 229, 230, 231, 232, 233, 234, 235, 236, 237, 238, 239, 240, 241, 242, 243, 244, 245, 246, 247, 248, 249, 250, 251, 252, 253, 254, 255, 256, 257, 258, 259, 260, 261, 262, 263, 264, 265, 266, 267, 268, 269, 270, 271, 272, 273, 274, 275, 276, 277, 278, 279, 280, 281, 282, 283, 284, 285, 286, 287, 288, 289, 290, 291, 292, 293, 294, 295, 296, 297, 298, 299, 300, 301, 302, 303, 304, 305, 306, 307, 308, 309, 310, 311, 312, 313, 314, 315, 316, 317, 318, 319, 320, 321, 322, 323, 324, 325, 326, 327, 328, 329, 330, 331, 332, 333, 334, 335, 336, 337, 338, 339, 340, 341, 342, 343, 344, 345, 346, 347, 348, 349, 350, 351, 352, 353, 354, 355, 356, 357, 358, 359, 360, 361, 362, 363, 364, 365, 366, 367, 368, 369, 370, 371, 372, 373, 374, 375, 376, 377, 378, 379, 380, 381, 382, 383, 384, 385, 386, 387, 388, 389, 390, 391, 392, 393, 394, 395, 396, 397, 398, 399, 400, 401, 402, 403, 404, 405, 406, 407, 408, 409, 410, 411, 412, 413, 414, 415, 416, 417, 418, 419, 420, 421, 422, 423, 424, 425, 426, 427, 428, 429, 430, 431, 432, 433, 434, 435, 436, 437, 438, 439, 440, 441, 442, 443, 444, 445, 446, 447, 448, 449, 450, 451, 452, 453, 454, 455, 456, 457, 458, 459, 460, 461, 462, 463, 464, 465, 466, 467, 468],
      "AcquisitionTime": ["160125.960000", "160127.450000", "160128.940000", "160130.430000", "160131.920000", "160133.410000", "160134.900000", "160136.390000", "160137.880000", "160139.370000", "160140.860000", "160142.350000", "160143.840000", "160145.330000", "160146.820000", "160148.310000", "160149.800000", "160151.290000", "160152.780000", "160154.270000", "160155.760000", "160157.250000", "160158.740000", "160200.230000", "160201.720000", "160203.210000", "160204.700000", "160206.190000", "160207.680000", "160209.170000", "160210.660000", "160212.150000", "160213.640000", "160215.130000", "160216.620000", "160218.110000", "160219.600000", "160221.090000", "160222.580000", "160224.070000", "160225.560000", "160227.050000", "160228.540000", "160230.030000", "160231.520000", "160233.010000", "160234.500000", "160235.990000", "160237.480000", "160238.970000", "160240.460000", "160241.950000", "160243.440000", "160244.930000", "160246.420000", "160247.910000", "160249.400000", "160250.890000", "160252.380000", "160253.870000", "160255.360000", "160256.850000", "160258.340000", "160259.830000", "160301.320000", "160302.810000", "160304.300000", "160305.790000", "160307.280000", "160308.770000", "160310.260000", "160311.750000", "160313.240000", "160314.730000", "160316.220000", "160317.710000", "160319.200000", "160320.690000", "160322.180000", "160323.670000", "160325.160000", "160326.650000", "160328.140000", "160329.630000", "160331.120000", "160332.610000", "160334.100000", "160335.590000", "160337.080000", "160338.570000", "160340.060000", "160341.550000", "160343.040000", "160344.530000", "160346.020000", "160347.510000", "160349.000000", "160350.490000", "160351.980000", "160353.470000", "160354.960000", "160356.450000", "160357.940000", "160359.430000", "160400.920000", "160402.410000", "160403.900000", "160405.390000", "160406.880000", "160408.370000", "160409.860000", "160411.350000", "160412.840000", "160414.330000", "160415.820000", "160417.310000", "160418.800000", "160420.290000", "160421.780000", "160423.270000", "160424.760000", "160426.250000", "160427.740000", "160429.230000", "160430.720000", "160432.210000", "160433.700000", "160435.190000", "160436.680000", "160438.170000", "160439.660000", "160441.150000", "160442.640000", "160444.130000", "160445.620000", "160447.110000", "160448.600000", "160450.090000", "160451.580000", "160453.070000", "160454.560000", "160456.050000", "160457.540000", "160459.030000", "160500.520000", "160502.010000", "160503.500000", "160504.990000", "160506.480000", "160507.970000", "160509.460000", "160510.950000", "160512.440000", "160513.930000", "160515.420000", "160516.910000", "160518.400000", "160519.890000", "160521.380000", "160522.870000", "160524.360000", "160525.850000", "160527.340000", "160528.830000", "160530.320000", "160531.810000", "160533.300000", "160534.790000", "160536.280000", "160537.770000", "160539.260000", "160540.750000", "160542.240000", "160543.730000", "160545.220000", "160546.710000", "160548.200000", "160549.690000", "160551.180000", "160552.670000", "160554.160000", "160555.650000", "160557.140000", "160558.630000", "160600.120000", "160601.610000", "160603.100000", "160604.590000", "160606.080000", "160607.570000", "160609.060000", "160610.550000", "160612.040000", "160613.530000", "160615.020000", "160616.510000", "160618.000000", "160619.490000", "160620.980000", "160622.470000", "160623.960000", "160625.450000", "160626.940000", "160628.430000", "160629.920000", "160631.410000", "160632.900000", "160634.390000", "160635.880000", "160637.370000", "160638.860000", "160640.350000", "160641.840000", "160643.330000", "160644.820000", "160646.310000", "160647.800000", "160649.290000", "160650.780000", "160652.270000", "160653.760000", "160655.250000", "160656.740000", "160658.230000", "160659.720000", "160701.210000", "160702.700000", "160704.190000", "160705.680000", "160707.170000", "160708.660000", "160710.150000", "160711.640000", "160713.130000", "160714.620000", "160716.110000", "160717.600000", "160719.090000", "160720.580000", "160722.070000", "160723.560000", "160725.050000", "160726.540000", "160728.030000", "160729.520000", "160731.010000", "160732.500000", "160733.990000", "160735.480000", "160736.970000", "160738.460000", "160739.950000", "160741.440000", "160742.930000", "160744.420000", "160745.910000", "160747.400000", "160748.890000", "160750.380000", "160751.870000", "160753.360000", "160754.850000", "160756.340000", "160757.830000", "160759.320000", "160800.810000", "160802.300000", "160803.790000", "160805.280000", "160806.770000", "160808.260000", "160809.750000", "160811.240000", "160812.730000", "160814.220000", "160815.710000", "160817.200000", "160818.690000", "160820.180000", "160821.670000", "160823.160000", "160824.650000", "160826.140000", "160827.630000", "160829.120000", "160830.610000", "160832.100000", "160833.590000", "160835.080000", "160836.570000", "160838.060000", "160839.550000", "160841.040000", "160842.530000", "160844.020000", "160845.510000", "160847.000000", "160848.490000", "160849.980000", "160851.470000", "160852.960000", "160854.450000", "160855.940000", "160857.430000", "160858.920000", "160900.410000", "160901.900000", "160903.390000", "160904.880000", "160906.370000", "160907.860000", "160909.350000", "160910.840000", "160912.330000", "160913.820000", "160915.310000", "160916.800000", "160918.290000", "160919.780000", "160921.270000", "160922.760000", "160924.250000", "160925.740000", "160927.230000", "160928.720000", "160930.210000", "160931.700000", "160933.190000", "160934.680000", "160936.170000", "160937.660000", "160939.150000", "160940.640000", "160942.130000", "160943.620000", "160945.110000", "160946.600000", "160948.090000", "160949.580000", "160951.070000", "160952.560000", "160954.050000", "160955.540000", "160957.030000", "160958.520000", "161000.010000", "161001.500000", "161002.990000", "161004.480000", "161005.970000", "161007.460000", "161008.950000", "161010.440000", "161011.930000", "161013.420000", "161014.910000", "161016.400000", "161017.890000", "161019.380000", "161020.870000", "161022.360000", "161023.850000", "161025.340000", "161026.830000", "161028.320000", "161029.810000", "161031.300000", "161032.790000", "161034.280000", "161035.770000", "161037.260000", "161038.750000", "161040.240000", "161041.730000", "161043.220000", "161044.710000", "161046.200000", "161047.690000", "161049.180000", "161050.670000", "161052.160000", "161053.650000", "161055.140000", "161056.630000", "161058.120000", "161059.610000", "161101.100000", "161102.590000", "161104.080000", "161105.570000", "161107.060000", "161108.550000", "161110.040000", "161111.530000", "161113.020000", "161114.510000", "161116.000000", "161117.490000", "161118.980000", "161120.470000", "161121.960000", "161123.450000", "161124.940000", "161126.430000", "161127.920000", "161129.410000", "161130.900000", "161132.390000", "161133.880000", "161135.370000", "161136.860000", "161138.350000", "161139.840000", "161141.330000", "161142.820000", "161144.310000", "161145.800000", "161147.290000", "161148.780000", "161150.270000", "161151.760000", "161153.250000", "161154.740000", "161156.230000", "161157.720000", "161159.210000", "161200.700000", "161202.190000", "161203.680000", "161205.170000", "161206.660000", "161208.150000", "161209.640000", "161211.130000", "161212.620000", "161214.110000", "161215.600000", "161217.090000", "161218.580000", "161220.070000", "161221.560000", "161223.050000", "161224.540000", "161226.030000", "161227.520000", "161229.010000", "161230.500000", "161231.990000", "161233.480000", "161234.970000", "161236.460000", "161237.950000", "161239.440000", "161240.930000", "161242.420000", "161243.910000", "161245.400000", "161246.890000", "161248.380000", "161249.870000", "161251.360000", "161252.850000", "161254.340000", "161255.830000", "161257.320000", "161258.810000", "161300.300000", "161301.790000"],
      "ContentTime": ["160258.532000", "160258.536000", "160258.540000", "160258.544000", "160258.558000", "160258.561000", "160258.564000", "160258.568000", "160258.571000", "160258.575000", "160258.578000", "160258.581000", "160258.585000", "160258.588000", "160258.591000", "160258.595000", "160258.598000", "160258.602000", "160258.605000", "160258.609000", "160258.612000", "160258.616000", "160258.619000", "160258.622000", "160258.627000", "160258.632000", "160258.636000", "160258.639000", "160258.643000", "160258.647000", "160258.650000", "160258.653000", "160258.657000", "160258.660000", "160258.663000", "160258.667000", "160258.670000", "160258.674000", "160258.677000", "160318.496000", "160318.500000", "160318.503000", "160318.507000", "160318.510000", "160318.513000", "160318.517000", "160318.520000", "160318.523000", "160318.527000", "160318.530000", "160318.533000", "160318.537000", "160318.540000", "160318.544000", "160318.547000", "160318.550000", "160318.554000", "160318.557000", "160318.560000", "160318.564000", "160338.496000", "160338.500000", "160338.503000", "160338.507000", "160338.521000", "160338.525000", "160338.528000", "160338.531000", "160338.535000", "160338.538000", "160338.541000", "160338.545000", "160338.548000", "160338.551000", "160338.555000", "160338.558000", "160338.561000", "160338.565000", "160338.568000", "160338.571000", "160358.496000", "160358.500000", "160358.503000", "160358.507000", "160358.510000", "160358.513000", "160358.517000", "160358.520000", "160358.523000", "160358.527000", "160358.530000", "160358.534000", "160358.537000", "160358.540000", "160358.544000", "160358.547000", "160358.550000", "160358.554000", "160358.557000", "160358.561000", "160438.496000", "160438.500000", "160438.504000", "160438.508000", "160438.512000", "160438.515000", "160438.519000", "160438.523000", "160438.526000", "160438.530000", "160438.533000", "160438.537000", "160438.540000", "160438.543000", "160438.547000", "160438.550000", "160438.553000", "160438.556000", "160438.560000", "160438.563000", "160438.567000", "160438.570000", "160438.573000", "160438.577000", "160438.580000", "160438.583000", "160438.587000", "160438.590000", "160518.496000", "160518.500000", "160518.503000", "160518.507000", "160518.510000", "160518.514000", "160518.517000", "160518.520000", "160518.524000", "160518.527000", "160518.530000", "160518.534000", "160518.537000", "160518.541000", "160518.544000", "160518.547000", "160518.551000", "160518.554000", "160518.557000", "160518.561000", "160518.564000", "160518.567000", "160518.571000", "160518.574000", "160518.578000", "160518.581000", "160518.584000", "160558.496000", "160558.500000", "160558.503000", "160558.507000", "160558.510000", "160558.514000", "160558.517000", "160558.531000", "160558.535000", "160558.538000", "160558.541000", "160558.545000", "160558.548000", "160558.551000", "160558.555000", "160558.558000", "160558.562000", "160558.565000", "160558.568000", "160558.572000", "160558.575000", "160558.579000", "160558.582000", "160558.585000", "160558.589000", "160558.592000", "160558.595000", "160638.495000", "160638.499000", "160638.502000", "160638.506000", "160638.509000", "160638.512000", "160638.516000", "160638.519000", "160638.523000", "160638.526000", "160638.529000", "160638.533000", "160638.536000", "160638.552000", "160638.555000", "160638.559000", "160638.562000", "160638.565000", "160638.569000", "160638.572000", "160638.575000", "160638.579000", "160638.582000", "160638.586000", "160638.589000", "160638.592000", "160638.596000", "160718.495000", "160718.499000", "160718.502000", "160718.506000", "160718.509000", "160718.513000", "160718.516000", "160718.519000", "160718.523000", "160718.526000", "160718.529000", "160718.533000", "160718.536000", "160718.539000", "160718.543000", "160718.546000", "160718.549000", "160718.553000", "160718.556000", "160718.559000", "160718.563000", "160718.566000", "160718.570000", "160718.573000", "160718.576000", "160718.580000", "160718.583000", "160758.496000", "160758.500000", "160758.504000", "160758.507000", "160758.510000", "160758.514000", "160758.517000", "160758.520000", "160758.524000", "160758.527000", "160758.531000", "160758.534000", "160758.537000", "160758.541000", "160758.544000", "160758.548000", "160758.551000", "160758.554000", "160758.558000", "160758.561000", "160758.564000", "160758.568000", "160758.571000", "160758.575000", "160758.578000", "160758.581000", "160758.606000", "160838.496000", "160838.500000", "160838.503000", "160838.507000", "160838.510000", "160838.513000", "160838.517000", "160838.520000", "160838.523000", "160838.527000", "160838.530000", "160838.534000", "160838.537000", "160838.540000", "160838.544000", "160838.547000", "160838.551000", "160838.554000", "160838.557000", "160838.561000", "160838.564000", "160838.567000", "160838.571000", "160838.574000", "160838.578000", "160838.581000", "160838.584000", "160918.496000", "160918.499000", "160918.503000", "160918.506000", "160918.509000", "160918.513000", "160918.516000", "160918.519000", "160918.523000", "160918.526000", "160918.530000", "160918.533000", "160918.536000", "160918.540000", "160918.543000", "160918.547000", "160918.550000", "160918.554000", "160918.557000", "160918.560000", "160918.564000", "160918.567000", "160918.570000", "160918.574000", "160918.577000", "160918.580000", "160958.496000", "160958.500000", "160958.503000", "160958.507000", "160958.510000", "160958.513000", "160958.517000", "160958.520000", "160958.524000", "160958.527000", "160958.530000", "160958.534000", "160958.537000", "160958.540000", "160958.544000", "160958.547000", "160958.551000", "160958.554000", "160958.557000", "160958.561000", "160958.564000", "160958.567000", "160958.571000", "160958.574000", "160958.578000", "160958.581000", "160958.584000", "161038.496000", "161038.509000", "161038.512000", "161038.516000", "161038.519000", "161038.523000", "161038.526000", "161038.529000", "161038.533000", "161038.536000", "161038.539000", "161038.543000", "161038.546000", "161038.549000", "161038.553000", "161038.556000", "161038.560000", "161038.563000", "161038.566000", "161038.570000", "161038.573000", "161038.576000", "161038.580000", "161038.583000", "161038.587000", "161038.590000", "161038.593000", "161118.495000", "161118.499000", "161118.502000", "161118.506000", "161118.509000", "161118.512000", "161118.516000", "161118.519000", "161118.522000", "161118.526000", "161118.529000", "161118.533000", "161118.536000", "161118.539000", "161118.543000", "161118.546000", "161118.549000", "161118.553000", "161118.556000", "161118.559000", "161118.563000", "161118.566000", "161118.570000", "161118.573000", "161118.576000", "161118.580000", "161118.583000", "161158.495000", "161158.499000", "161158.502000", "161158.506000", "161158.509000", "161158.513000", "161158.516000", "161158.519000", "161158.523000", "161158.526000", "161158.529000", "161158.533000", "161158.536000", "161158.540000", "161158.543000", "161158.546000", "161158.550000", "161158.553000", "161158.556000", "161158.560000", "161158.563000", "161158.566000", "161158.570000", "161158.573000", "161158.576000", "161158.580000", "161158.583000", "161238.496000", "161238.500000", "161238.503000", "161238.507000", "161238.510000", "161238.513000", "161238.517000", "161238.520000", "161238.524000", "161238.527000", "161238.530000", "161238.533000", "161238.549000", "161238.553000", "161238.556000", "161238.559000", "161238.563000", "161238.566000", "161238.569000", "161238.573000", "161238.576000", "161238.579000", "161238.583000", "161238.586000", "161238.589000", "161238.593000", "161238.596000", "161258.496000", "161258.500000", "161258.503000", "161258.507000", "161258.510000", "161258.514000", "161258.517000", "161258.520000", "161258.524000", "161258.527000", "161258.530000", "161258.534000", "161258.537000", "161304.909000", "161304.913000", "161304.916000", "161304.919000"],
