{
  "AcquisitionMatrixPE": 104,
  "AcquisitionNumber": 1,
  "AcquisitionTime": "15:48:31.275000",
  "BandwidthPerPixelPhaseEncode": 17.17,
  "BaseResolution": 104,
  "BodyPartExamined": "BRAIN",
  "CoilCombinationMethod": "Sum of Squares",
  "ConsistencyInfo": "N4_VE11C_LATEST_20160120",
  "ConversionSoftware": "dcm2niix",
  "ConversionSoftwareVersion": "v1.0.20211006",
  "DerivedVendorReportedEchoSpacing": 0.000560011,
  "DeviceSerialNumber": "167006",
  "DwellTime": 2.1e-06,
  "EchoTime": 0.037,
  "EchoTime1": 0.037,
  "EchoTime2": 0.001,
  "EchoTrainLength": 104,
  "EffectiveEchoSpacing": 0.000560011,
  "FlipAngle": 52,
  "HeudiconvVersion": "0.5.3.post569+g418601f",
  "ImageComments": "Unaliased MB4/PE3/LB",
  "ImageOrientationPatientDICOM": [0.999678, 0.00323391, 0.0251837, 0.00436198, 0.955235, -0.295815],
  "ImageOrientationText": "Tra>Cor(-17.2)>Sag(1.4)",
  "ImageType": [
    "ORIGINAL",
    "PRIMARY",
    "P",
    "MB",
    "ND",
    "MOSAIC",
    "PHASE"
],
  "ImagingFrequency": 123.259,
  "InPlanePhaseEncodingDirectionDICOM": "COL",
  "InstitutionAddress": "Chemin Queen-Mary 4565,Montreal,District,CA,H3W 1W5",
  "InstitutionName": "IUGM",
  "InstitutionalDepartmentName": "Department",
  "MRAcquisitionType": "2D",
  "MagneticFieldStrength": 3,
  "Manufacturer": "Siemens",
  "ManufacturersModelName": "Prisma_fit",
  "MatrixCoilMode": "SENSE",
  "Modality": "MR",
  "MultibandAccelerationFactor": 4,
  "PartialFourier": 1,
  "PatientPosition": "HFS",
  "PercentPhaseFOV": 100,
  "PercentSampling": 100,
  "PhaseEncodingDirection": "j",
  "PhaseEncodingSteps": 104,
  "PhaseResolution": 1,
  "PixelBandwidth": 2290,
  "ProcedureStepDescription": "games^mario",
  "ProtocolName": "func_task-mario_run-01",
  "PulseSequenceDetails": "%CustomerSeq%\\cmrr_mbep2d_bold",
  "ReceiveCoilActiveElements": "HC1-7;NC1,2",
  "ReceiveCoilName": "HeadNeck_64",
  "ReconMatrixPE": 104,
  "RepetitionTime": 1.49,
  "SAR": 0.0305937,
  "ScanOptions": "FS",
  "ScanningSequence": "EP",
  "SequenceName": "epfid2d1_104",
  "SequenceVariant": "SK\\SS",
  "SeriesDescription": "func_task-mario_run-01",
  "SeriesNumber": 11,
  "ShimSetting": [638, -7235, -8760, 727, 24, -61, 56, 10],
  "SliceThickness": 2,
  "SliceTiming": [0, 0.785, 0.0975, 0.8825, 0.195, 0.98, 0.295, 1.0775, 0.3925, 1.175, 0.49, 1.2725, 0.5875, 1.3725, 0.685, 0, 0.785, 0.0975, 0.8825, 0.195, 0.98, 0.295, 1.0775, 0.3925, 1.175, 0.49, 1.2725, 0.5875, 1.3725, 0.685, 0, 0.785, 0.0975, 0.8825, 0.195, 0.98, 0.295, 1.0775, 0.3925, 1.175, 0.49, 1.2725, 0.5875, 1.3725, 0.685, 0, 0.785, 0.0975, 0.8825, 0.195, 0.98, 0.295, 1.0775, 0.3925, 1.175, 0.49, 1.2725, 0.5875, 1.3725, 0.685],
  "SoftwareVersions": "syngo MR E11",
  "SpacingBetweenSlices": 2,
  "StationName": "MRC35049",
  "TaskName": "mario",
  "TotalReadoutTime": 0.0576811,
  "TxRefAmp": 204.699,
  "WipMemBlock": "035e0266-e174-422a-8740-51c305786f4f||Sequence: R016 ve11c/master r/e634e98; Dec 19 2017 11:00:25 by eja",
  "dcmmeta_affine": [
    [-1.9993551969528198, 0.008723950013518333, 0.05002596974372864, 107.22569274902344],
    [-0.006467819679528475, 1.9104704856872559, -0.5916590690612793, -70.04403686523438],
    [0.05036737024784088, 0.5916301012039185, 1.9098265171051025, -57.478904724121094],
    [0.0, 0.0, 0.0, 1.0]
],
  "dcmmeta_reorient_transform": [
    [0.0, -1.0, 0.0, 103.0],
    [1.0, 0.0, 0.0, 0.0],
    [0.0, 0.0, 1.0, 0.0],
    [0.0, 0.0, 0.0, 1.0]
],
  "dcmmeta_shape": [104, 104, 60, 459],
  "dcmmeta_slice_dim": 2,
  "dcmmeta_version": 0.6,
  "global": {
    "const": {
      "AcquisitionMatrix": [104, 0, 0, 104],
      "AngioFlag": "N",
      "BitsAllocated": 16,
      "BitsStored": 16,
      "BodyPartExamined": "BRAIN",
      "Columns": 832,
      "EchoNumbers": 1,
      "EchoTime": 37.0,
      "EchoTrainLength": 104,
      "FlipAngle": 52.0,
      "HighBit": 15,
      "ImageOrientationPatient": [0.99967760994042, 0.00323390979289, 0.02518368541844, 0.00436197492801, 0.95523527177887, -0.2958150583123],
      "ImagePositionPatient": [-839.06507408159, -824.49998989656, 200.478635759],
      "ImageType": [
        "ORIGINAL",
        "PRIMARY",
        "P",
        "MB",
        "ND",
        "MOSAIC"
],
      "ImagedNucleus": "1H",
      "ImagingFrequency": 123.258812,
      "InPlanePhaseEncodingDirection": "COL",
      "LargestImagePixelValue": 4095,
      "MRAcquisitionType": "2D",
      "MagneticFieldStrength": 3.0,
      "Manufacturer": "SIEMENS",
      "ManufacturerModelName": "Prisma_fit",
      "Modality": "MR",
      "NumberOfAverages": 1.0,
      "NumberOfPhaseEncodingSteps": 104,
      "PercentPhaseFieldOfView": 100.0,
      "PercentSampling": 100.0,
      "PerformedProcedureStepStartTime": "144036.615000",
      "PhotometricInterpretation": "MONOCHROME2",
      "PixelBandwidth": 2290.0,
      "PixelRepresentation": 0,
      "PixelSpacing": [2.0, 2.0],
      "ProtocolName": "func_task-mario_run-01",
      "RepetitionTime": 1490.0,
      "RescaleIntercept": -4096.0,
      "RescaleSlope": 2.0,
      "RescaleType": "US",
      "Rows": 832,
      "SAR": 0.0305937373236,
      "SamplesPerPixel": 1,
      "ScanOptions": "FS",
      "ScanningSequence": "EP",
      "SequenceName": "epfid2d1_104",
      "SequenceVariant": [
        "SK",
        "SS"
],
      "SeriesDescription": "func_task-mario_run-01",
      "SeriesNumber": 11,
      "SeriesTime": "154952.561000",
      "SliceLocation": -31.48423548362,
      "SliceThickness": 2.0,
      "SmallestImagePixelValue": 0,
      "SoftwareVersions": "syngo MR E11",
      "SpacingBetweenSlices": 2.0000000543806,
      "SpecificCharacterSet": "ISO_IR 100",
      "StudyID": "1",
      "StudyTime": "144036.485000",
      "TransmitCoilName": "Body",
      "VariableFlipAngleFlag": "N",
      "WindowCenterWidthExplanation": "Algo1",
      "dBdt": 0.0},
    "slices": {}
  },
  "time": {
    "samples": {
      "AcquisitionNumber": [1, 2, 3, 4, 5, 6, 7, 8, 9, 10, 11, 12, 13, 14, 15, 16, 17, 18, 19, 20, 21, 22, 23, 24, 25, 26, 27, 28, 29, 30, 31, 32, 33, 34, 35, 36, 37, 38, 39, 40, 41, 42, 43, 44, 45, 46, 47, 48, 49, 50, 51, 52, 53, 54, 55, 56, 57, 58, 59, 60, 61, 62, 63, 64, 65, 66, 67, 68, 69, 70, 71, 72, 73, 74, 75, 76, 77, 78, 79, 80, 81, 82, 83, 84, 85, 86, 87, 88, 89, 90, 91, 92, 93, 94, 95, 96, 97, 98, 99, 100, 101, 102, 103, 104, 105, 106, 107, 108, 109, 110, 111, 112, 113, 114, 115, 116, 117, 118, 119, 120, 121, 122, 123, 124, 125, 126, 127, 128, 129, 130, 131, 132, 133, 134, 135, 136, 137, 138, 139, 140, 141, 142, 143, 144, 145, 146, 147, 148, 149, 150, 151, 152, 153, 154, 155, 156, 157, 158, 159, 160, 161, 162, 163, 164, 165, 166, 167, 168, 169, 170, 171, 172, 173, 174, 175, 176, 177, 178, 179, 180, 181, 182, 183, 184, 185, 186, 187, 188, 189, 190, 191, 192, 193, 194, 195, 196, 197, 198, 199, 200, 201, 202, 203, 204, 205, 206, 207, 208, 209, 210, 211, 212, 213, 214, 215, 216, 217, 218, 219, 220, 221, 222, 223, 224, 225, 226, 227, 228, 229, 230, 231, 232, 233, 234, 235, 236, 237, 238, 239, 240, 241, 242, 243, 244, 245, 246, 247, 248, 249, 250, 251, 252, 253, 254, 255, 256, 257, 258, 259, 260, 261, 262, 263, 264, 265, 266, 267, 268, 269, 270, 271, 272, 273, 274, 275, 276, 277, 278, 279, 280, 281, 282, 283, 284, 285, 286, 287, 288, 289, 290, 291, 292, 293, 294, 295, 296, 297, 298, 299, 300, 301, 302, 303, 304, 305, 306, 307, 308, 309, 310, 311, 312, 313, 314, 315, 316, 317, 318, 319, 320, 321, 322, 323, 324, 325, 326, 327, 328, 329, 330, 331, 332, 333, 334, 335, 336, 337, 338, 339, 340, 341, 342, 343, 344, 345, 346, 347, 348, 349, 350, 351, 352, 353, 354, 355, 356, 357, 358, 359, 360, 361, 362, 363, 364, 365, 366, 367, 368, 369, 370, 371, 372, 373, 374, 375, 376, 377, 378, 379, 380, 381, 382, 383, 384, 385, 386, 387, 388, 389, 390, 391, 392, 393, 394, 395, 396, 397, 398, 399, 400, 401, 402, 403, 404, 405, 406, 407, 408, 409, 410, 411, 412, 413, 414, 415, 416, 417, 418, 419, 420, 421, 422, 423, 424, 425, 426, 427, 428, 429, 430, 431, 432, 433, 434, 435, 436, 437, 438, 439, 440, 441, 442, 443, 444, 445, 446, 447, 448, 449, 450, 451, 452, 453, 454, 455, 456, 457, 458, 459],
      "AcquisitionTime": ["154831.275000", "154832.765000", "154834.255000", "154835.745000", "154837.235000", "154838.725000", "154840.215000", "154841.705000", "154843.195000", "154844.685000", "154846.175000", "154847.665000", "154849.155000", "154850.645000", "154852.135000", "154853.625000", "154855.115000", "154856.605000", "154858.095000", "154859.585000", "154901.075000", "154902.565000", "154904.055000", "154905.545000", "154907.035000", "154908.525000", "154910.015000", "154911.505000", "154912.995000", "154914.485000", "154915.975000", "154917.465000", "154918.955000", "154920.445000", "154921.935000", "154923.425000", "154924.915000", "154926.405000", "154927.895000", "154929.385000", "154930.875000", "154932.365000", "154933.855000", "154935.345000", "154936.835000", "154938.325000", "154939.815000", "154941.305000", "154942.795000", "154944.285000", "154945.775000", "154947.265000", "154948.755000", "154950.245000", "154951.735000", "154953.225000", "154954.715000", "154956.205000", "154957.695000", "154959.185000", "155000.675000", "155002.165000", "155003.655000", "155005.145000", "155006.635000", "155008.125000", "155009.615000", "155011.105000", "155012.595000", "155014.085000", "155015.575000", "155017.065000", "155018.555000", "155020.045000", "155021.535000", "155023.025000", "155024.515000", "155026.005000", "155027.495000", "155028.985000", "155030.475000", "155031.965000", "155033.455000", "155034.945000", "155036.435000", "155037.925000", "155039.415000", "155040.905000", "155042.395000", "155043.885000", "155045.375000", "155046.865000", "155048.355000", "155049.845000", "155051.335000", "155052.825000", "155054.315000", "155055.805000", "155057.295000", "155058.785000", "155100.275000", "155101.765000", "155103.255000", "155104.745000", "155106.235000", "155107.725000", "155109.215000", "155110.705000", "155112.195000", "155113.685000", "155115.175000", "155116.665000", "155118.155000", "155119.645000", "155121.135000", "155122.625000", "155124.115000", "155125.605000", "155127.095000", "155128.585000", "155130.075000", "155131.565000", "155133.055000", "155134.545000", "155136.035000", "155137.525000", "155139.015000", "155140.505000", "155141.995000", "155143.485000", "155144.975000", "155146.465000", "155147.955000", "155149.445000", "155150.935000", "155152.425000", "155153.915000", "155155.405000", "155156.895000", "155158.385000", "155159.875000", "155201.365000", "155202.855000", "155204.345000", "155205.835000", "155207.325000", "155208.815000", "155210.305000", "155211.795000", "155213.285000", "155214.775000", "155216.265000", "155217.755000", "155219.245000", "155220.735000", "155222.225000", "155223.715000", "155225.205000", "155226.695000", "155228.185000", "155229.675000", "155231.165000", "155232.655000", "155234.145000", "155235.635000", "155237.125000", "155238.615000", "155240.105000", "155241.595000", "155243.085000", "155244.575000", "155246.065000", "155247.555000", "155249.045000", "155250.535000", "155252.025000", "155253.515000", "155255.005000", "155256.495000", "155257.985000", "155259.475000", "155300.965000", "155302.455000", "155303.945000", "155305.435000", "155306.925000", "155308.415000", "155309.905000", "155311.395000", "155312.885000", "155314.375000", "155315.865000", "155317.355000", "155318.845000", "155320.335000", "155321.825000", "155323.315000", "155324.805000", "155326.295000", "155327.785000", "155329.275000", "155330.765000", "155332.255000", "155333.745000", "155335.235000", "155336.725000", "155338.215000", "155339.705000", "155341.195000", "155342.685000", "155344.175000", "155345.665000", "155347.155000", "155348.645000", "155350.135000", "155351.625000", "155353.115000", "155354.605000", "155356.095000", "155357.585000", "155359.075000", "155400.565000", "155402.055000", "155403.545000", "155405.035000", "155406.525000", "155408.015000", "155409.505000", "155410.995000", "155412.485000", "155413.975000", "155415.465000", "155416.955000", "155418.445000", "155419.935000", "155421.425000", "155422.915000", "155424.405000", "155425.895000", "155427.385000", "155428.875000", "155430.365000", "155431.855000", "155433.345000", "155434.835000", "155436.325000", "155437.815000", "155439.305000", "155440.795000", "155442.285000", "155443.775000", "155445.265000", "155446.755000", "155448.245000", "155449.735000", "155451.225000", "155452.715000", "155454.205000", "155455.695000", "155457.185000", "155458.675000", "155500.165000", "155501.655000", "155503.145000", "155504.635000", "155506.125000", "155507.615000", "155509.105000", "155510.595000", "155512.085000", "155513.575000", "155515.065000", "155516.555000", "155518.045000", "155519.535000", "155521.025000", "155522.515000", "155524.005000", "155525.495000", "155526.985000", "155528.475000", "155529.965000", "155531.455000", "155532.945000", "155534.435000", "155535.925000", "155537.415000", "155538.905000", "155540.395000", "155541.885000", "155543.375000", "155544.865000", "155546.355000", "155547.845000", "155549.335000", "155550.825000", "155552.315000", "155553.805000", "155555.295000", "155556.785000", "155558.275000", "155559.765000", "155601.255000", "155602.745000", "155604.235000", "155605.725000", "155607.215000", "155608.705000", "155610.195000", "155611.685000", "155613.175000", "155614.665000", "155616.155000", "155617.645000", "155619.135000", "155620.625000", "155622.115000", "155623.605000", "155625.095000", "155626.585000", "155628.075000", "155629.565000", "155631.055000", "155632.545000", "155634.035000", "155635.525000", "155637.015000", "155638.505000", "155639.995000", "155641.485000", "155642.975000", "155644.465000", "155645.955000", "155647.445000", "155648.935000", "155650.425000", "155651.915000", "155653.405000", "155654.895000", "155656.385000", "155657.875000", "155659.365000", "155700.855000", "155702.345000", "155703.835000", "155705.325000", "155706.815000", "155708.305000", "155709.795000", "155711.285000", "155712.775000", "155714.265000", "155715.755000", "155717.245000", "155718.735000", "155720.225000", "155721.715000", "155723.205000", "155724.695000", "155726.185000", "155727.675000", "155729.165000", "155730.655000", "155732.145000", "155733.635000", "155735.125000", "155736.615000", "155738.105000", "155739.595000", "155741.085000", "155742.575000", "155744.065000", "155745.555000", "155747.045000", "155748.535000", "155750.025000", "155751.515000", "155753.005000", "155754.495000", "155755.985000", "155757.475000", "155758.965000", "155800.455000", "155801.945000", "155803.435000", "155804.925000", "155806.415000", "155807.905000", "155809.395000", "155810.885000", "155812.375000", "155813.865000", "155815.355000", "155816.845000", "155818.335000", "155819.825000", "155821.315000", "155822.805000", "155824.295000", "155825.785000", "155827.275000", "155828.765000", "155830.255000", "155831.745000", "155833.235000", "155834.725000", "155836.215000", "155837.705000", "155839.195000", "155840.685000", "155842.175000", "155843.665000", "155845.155000", "155846.645000", "155848.135000", "155849.625000", "155851.115000", "155852.605000", "155854.095000", "155855.585000", "155857.075000", "155858.565000", "155900.055000", "155901.545000", "155903.035000", "155904.525000", "155906.015000", "155907.505000", "155908.995000", "155910.485000", "155911.975000", "155913.465000", "155914.955000", "155916.445000", "155917.935000", "155919.425000", "155920.915000", "155922.405000", "155923.895000", "155925.385000", "155926.875000", "155928.365000", "155929.855000", "155931.345000", "155932.835000", "155934.325000", "155935.815000", "155937.305000", "155938.795000", "155940.285000", "155941.775000", "155943.265000", "155944.755000", "155946.245000", "155947.735000", "155949.225000", "155950.715000", "155952.205000", "155953.695000"],
      "ContentTime": ["154952.563000", "154952.566000", "154952.569000", "154952.571000", "154952.574000", "154952.576000", "154952.579000", "154952.581000", "154952.584000", "154952.586000", "154952.589000", "154952.591000", "154952.594000", "154952.596000", "154952.612000", "154952.615000", "154952.617000", "154952.620000", "154952.622000", "154952.625000", "154952.627000", "154952.629000", "154952.632000", "154952.635000", "154952.637000", "154952.640000", "155012.514000", "155012.517000", "155012.520000", "155012.522000", "155012.525000", "155012.527000", "155012.530000", "155012.532000", "155012.535000", "155012.537000", "155012.540000", "155012.542000", "155012.545000", "155012.547000", "155012.550000", "155012.552000", "155012.555000", "155012.558000", "155012.560000", "155012.563000", "155032.531000", "155032.533000", "155032.536000", "155032.562000", "155032.564000", "155032.567000", "155032.570000", "155032.572000", "155032.575000", "155032.577000", "155032.580000", "155032.582000", "155032.585000", "155032.587000", "155032.590000", "155032.592000", "155032.595000", "155032.597000", "155032.600000", "155032.602000", "155052.512000", "155052.515000", "155052.517000", "155052.520000", "155052.523000", "155052.525000", "155052.535000", "155052.537000", "155052.540000", "155052.542000", "155052.545000", "155052.547000", "155052.550000", "155052.552000", "155052.555000", "155052.557000", "155052.560000", "155052.562000", "155052.565000", "155052.567000", "155112.523000", "155112.526000", "155112.528000", "155112.531000", "155112.534000", "155112.537000", "155112.543000", "155112.546000", "155112.548000", "155112.551000", "155112.554000", "155112.556000", "155112.558000", "155112.561000", "155112.564000", "155112.566000", "155112.569000", "155112.571000", "155112.574000", "155112.576000", "155152.560000", "155152.562000", "155152.565000", "155152.568000", "155152.570000", "155152.573000", "155152.575000", "155152.578000", "155152.581000", "155152.583000", "155152.586000", "155152.589000", "155152.592000", "155152.595000", "155152.597000", "155152.600000", "155152.602000", "155152.605000", "155152.608000", "155152.611000", "155152.613000", "155152.616000", "155152.618000", "155152.621000", "155152.623000", "155152.626000", "155152.628000", "155152.631000", "155232.544000", "155232.547000", "155232.549000", "155232.552000", "155232.554000", "155232.557000", "155232.559000", "155232.562000", "155232.565000", "155232.567000", "155232.570000", "155232.572000", "155232.575000", "155232.577000", "155232.580000", "155232.582000", "155232.585000", "155232.587000", "155232.590000", "155232.592000", "155232.595000", "155232.597000", "155232.600000", "155232.603000", "155232.605000", "155232.608000", "155232.610000", "155312.546000", "155312.549000", "155312.551000", "155312.554000", "155312.556000", "155312.559000", "155312.561000", "155312.564000", "155312.566000", "155312.569000", "155312.572000", "155312.574000", "155312.577000", "155312.579000", "155312.582000", "155312.584000", "155312.587000", "155312.589000", "155312.592000", "155312.594000", "155312.597000", "155312.600000", "155312.602000", "155312.605000", "155312.607000", "155312.610000", "155312.612000", "155353.044000", "155353.047000", "155353.050000", "155353.052000", "155353.055000", "155353.057000", "155353.060000", "155353.062000", "155353.065000", "155353.067000", "155353.070000", "155353.072000", "155353.075000", "155353.078000", "155353.080000", "155353.083000", "155353.085000", "155353.088000", "155353.090000", "155353.093000", "155353.095000", "155353.098000", "155353.100000", "155353.103000", "155353.105000", "155353.108000", "155353.110000", "155432.545000", "155432.554000", "155432.556000", "155432.559000", "155432.561000", "155432.564000", "155432.566000", "155432.569000", "155432.572000", "155432.574000", "155432.577000", "155432.579000", "155432.582000", "155432.585000", "155432.588000", "155432.590000", "155432.593000", "155432.596000", "155432.598000", "155432.601000", "155432.603000", "155432.606000", "155432.608000", "155432.611000", "155432.613000", "155432.616000", "155432.618000", "155512.547000", "155512.550000", "155512.552000", "155512.555000", "155512.557000", "155512.560000", "155512.563000", "155512.565000", "155512.568000", "155512.570000", "155512.573000", "155512.575000", "155512.578000", "155512.580000", "155512.583000", "155512.585000", "155512.588000", "155512.590000", "155512.593000", "155512.595000", "155512.598000", "155512.600000", "155512.603000", "155512.606000", "155512.608000", "155512.611000", "155512.613000", "155552.566000", "155552.569000", "155552.572000", "155552.574000", "155552.577000", "155552.579000", "155552.582000", "155552.584000", "155552.587000", "155552.589000", "155552.592000", "155552.601000", "155552.604000", "155552.607000", "155552.609000", "155552.612000", "155552.614000", "155552.617000", "155552.619000", "155552.621000", "155552.624000", "155552.627000", "155552.629000", "155552.632000", "155552.634000", "155552.637000", "155632.546000", "155632.549000", "155632.552000", "155632.554000", "155632.557000", "155632.559000", "155632.562000", "155632.565000", "155632.567000", "155632.570000", "155632.572000", "155632.575000", "155632.579000", "155632.581000", "155632.584000", "155632.586000", "155632.589000", "155632.592000", "155632.594000", "155632.597000", "155632.599000", "155632.602000", "155632.604000", "155632.607000", "155632.609000", "155632.612000", "155632.614000", "155712.549000", "155712.551000", "155712.554000", "155712.556000", "155712.559000", "155712.561000", "155712.564000", "155712.567000", "155712.569000", "155712.572000", "155712.574000", "155712.577000", "155712.580000", "155712.582000", "155712.585000", "155712.587000", "155712.590000", "155712.592000", "155712.595000", "155712.597000", "155712.600000", "155712.602000", "155712.605000", "155712.607000", "155712.610000", "155712.612000", "155712.615000", "155752.551000", "155752.554000", "155752.556000", "155752.559000", "155752.561000", "155752.564000", "155752.566000", "155752.569000", "155752.571000", "155752.574000", "155752.577000", "155752.579000", "155752.582000", "155752.584000", "155752.587000", "155752.589000", "155752.592000", "155752.595000", "155752.597000", "155752.600000", "155752.602000", "155752.605000", "155752.608000", "155752.610000", "155752.613000", "155752.615000", "155752.618000", "155832.546000", "155832.549000", "155832.551000", "155832.554000", "155832.556000", "155832.559000", "155832.561000", "155832.564000", "155832.566000", "155832.569000", "155832.572000", "155832.574000", "155832.577000", "155832.579000", "155832.582000", "155832.584000", "155832.587000", "155832.589000", "155832.592000", "155832.594000", "155832.597000", "155832.599000", "155832.602000", "155832.604000", "155832.607000", "155832.610000", "155832.612000", "155912.544000", "155912.547000", "155912.549000", "155912.552000", "155912.555000", "155912.557000", "155912.560000", "155912.562000", "155912.565000", "155912.567000", "155912.570000", "155912.573000", "155912.576000", "155912.578000", "155912.581000", "155912.583000", "155912.586000", "155912.588000", "155912.591000", "155912.594000", "155912.596000", "155912.599000", "155912.601000", "155912.604000", "155912.606000", "155912.609000", "155912.611000", "155952.546000", "155952.549000", "155952.552000", "155952.554000", "155952.557000", "155952.559000", "155952.562000", "155952.564000", "155952.567000", "155952.569000", "155952.572000", "155952.574000", "155952.577000", "155952.580000", "155952.582000", "155952.585000", "155952.587000", "155952.590000", "155952.592000", "155952.595000", "155952.597000", "155952.600000", "155952.602000", "155952.605000", "155952.607000", "155952.610000", "155952.612000", "155956.487000", "155956.490000"],
