{
  "AcquisitionMatrixPE": 104,
  "AcquisitionNumber": 1,
  "AcquisitionTime": "15:48:31.275000",
  "BandwidthPerPixelPhaseEncode": 17.17,
  "BaseResolution": 104,
  "BodyPartExamined": "BRAIN",
  "CoilCombinationMethod": "Sum of Squares",
  "ConsistencyInfo": "N4_VE11C_LATEST_20160120",
  "ConversionSoftware": "dcm2niix",
  "ConversionSoftwareVersion": "v1.0.20211006",
  "DerivedVendorReportedEchoSpacing": 0.000560011,
  "DeviceSerialNumber": "167006",
  "DwellTime": 2.1e-06,
  "EchoTime": 0.037,
  "EchoTrainLength": 104,
  "EffectiveEchoSpacing": 0.000560011,
  "FlipAngle": 52,
  "HeudiconvVersion": "0.5.3.post569+g418601f",
  "ImageComments": "Unaliased MB4/PE3/LB",
  "ImageOrientationPatientDICOM": [0.999678, 0.00323391, 0.0251837, 0.00436198, 0.955235, -0.295815],
  "ImageOrientationText": "Tra>Cor(-17.2)>Sag(1.4)",
  "ImageType": [
    "ORIGINAL",
    "PRIMARY",
    "M",
    "MB",
    "ND",
    "MOSAIC"
],
  "ImagingFrequency": 123.259,
  "InPlanePhaseEncodingDirectionDICOM": "COL",
  "InstitutionAddress": "Chemin Queen-Mary 4565,Montreal,District,CA,H3W 1W5",
  "InstitutionName": "IUGM",
  "InstitutionalDepartmentName": "Department",
  "MRAcquisitionType": "2D",
  "MagneticFieldStrength": 3,
  "Manufacturer": "Siemens",
  "ManufacturersModelName": "Prisma_fit",
  "MatrixCoilMode": "SENSE",
  "Modality": "MR",
  "MultibandAccelerationFactor": 4,
  "PartialFourier": 1,
  "PatientPosition": "HFS",
  "PercentPhaseFOV": 100,
  "PercentSampling": 100,
  "PhaseEncodingDirection": "j",
  "PhaseEncodingSteps": 104,
  "PhaseResolution": 1,
  "PixelBandwidth": 2290,
  "ProcedureStepDescription": "games^mario",
  "ProtocolName": "func_task-mario_run-01",
  "PulseSequenceDetails": "%CustomerSeq%\\cmrr_mbep2d_bold",
  "ReceiveCoilActiveElements": "HC1-7;NC1,2",
  "ReceiveCoilName": "HeadNeck_64",
  "ReconMatrixPE": 104,
  "RepetitionTime": 1.49,
  "SAR": 0.0305937,
  "ScanOptions": "FS",
  "ScanningSequence": "EP",
  "SequenceName": "epfid2d1_104",
  "SequenceVariant": "SK\\SS",
  "SeriesDescription": "func_task-mario_run-01",
  "SeriesNumber": 10,
  "ShimSetting": [638, -7235, -8760, 727, 24, -61, 56, 10],
  "SliceThickness": 2,
  "SliceTiming": [0, 0.785, 0.0975, 0.8825, 0.195, 0.98, 0.295, 1.0775, 0.3925, 1.175, 0.49, 1.2725, 0.5875, 1.3725, 0.685, 0, 0.785, 0.0975, 0.8825, 0.195, 0.98, 0.295, 1.0775, 0.3925, 1.175, 0.49, 1.2725, 0.5875, 1.3725, 0.685, 0, 0.785, 0.0975, 0.8825, 0.195, 0.98, 0.295, 1.0775, 0.3925, 1.175, 0.49, 1.2725, 0.5875, 1.3725, 0.685, 0, 0.785, 0.0975, 0.8825, 0.195, 0.98, 0.295, 1.0775, 0.3925, 1.175, 0.49, 1.2725, 0.5875, 1.3725, 0.685],
  "SoftwareVersions": "syngo MR E11",
  "SpacingBetweenSlices": 2,
  "StationName": "MRC35049",
  "TaskName": "mario",
  "TotalReadoutTime": 0.0576811,
  "TxRefAmp": 204.699,
  "WipMemBlock": "035e0266-e174-422a-8740-51c305786f4f||Sequence: R016 ve11c/master r/e634e98; Dec 19 2017 11:00:25 by eja",
  "dcmmeta_affine": [
    [-1.9993551969528198, 0.008723950013518333, 0.05002596974372864, 107.22569274902344],
    [-0.006467819679528475, 1.9104704856872559, -0.5916590690612793, -70.04403686523438],
    [0.05036737024784088, 0.5916301012039185, 1.9098265171051025, -57.478904724121094],
    [0.0, 0.0, 0.0, 1.0]
],
  "dcmmeta_reorient_transform": [
    [0.0, -1.0, 0.0, 103.0],
    [1.0, 0.0, 0.0, 0.0],
    [0.0, 0.0, 1.0, 0.0],
    [0.0, 0.0, 0.0, 1.0]
],
  "dcmmeta_shape": [104, 104, 60, 459],
  "dcmmeta_slice_dim": 2,
  "dcmmeta_version": 0.6,
  "global": {
    "const": {
      "AcquisitionMatrix": [104, 0, 0, 104],
      "AngioFlag": "N",
      "BitsAllocated": 16,
      "BitsStored": 16,
      "BodyPartExamined": "BRAIN",
      "Columns": 832,
      "EchoNumbers": 1,
      "EchoTime": 37.0,
      "EchoTrainLength": 104,
      "FlipAngle": 52.0,
      "HighBit": 15,
      "ImageOrientationPatient": [0.99967760994042, 0.00323390979289, 0.02518368541844, 0.00436197492801, 0.95523527177887, -0.2958150583123],
      "ImagePositionPatient": [-839.06507408159, -824.49998989656, 200.478635759],
      "ImageType": [
        "ORIGINAL",
        "PRIMARY",
        "M",
        "MB",
        "ND",
        "MOSAIC"
],
      "ImagedNucleus": "1H",
      "ImagingFrequency": 123.258812,
      "InPlanePhaseEncodingDirection": "COL",
      "MRAcquisitionType": "2D",
      "MagneticFieldStrength": 3.0,
      "Manufacturer": "SIEMENS",
      "ManufacturerModelName": "Prisma_fit",
      "Modality": "MR",
      "NumberOfAverages": 1.0,
      "NumberOfPhaseEncodingSteps": 104,
      "PercentPhaseFieldOfView": 100.0,
      "PercentSampling": 100.0,
      "PerformedProcedureStepStartTime": "144036.615000",
      "PhotometricInterpretation": "MONOCHROME2",
      "PixelBandwidth": 2290.0,
      "PixelRepresentation": 0,
      "PixelSpacing": [2.0, 2.0],
      "ProtocolName": "func_task-mario_run-01",
      "RepetitionTime": 1490.0,
      "Rows": 832,
      "SAR": 0.0305937373236,
      "SamplesPerPixel": 1,
      "ScanOptions": "FS",
      "ScanningSequence": "EP",
      "SequenceName": "epfid2d1_104",
      "SequenceVariant": [
        "SK",
        "SS"
],
      "SeriesDescription": "func_task-mario_run-01",
      "SeriesNumber": 10,
      "SeriesTime": "154952.439000",
      "SliceLocation": -31.48423548362,
      "SliceThickness": 2.0,
      "SmallestImagePixelValue": 0,
      "SoftwareVersions": "syngo MR E11",
      "SpacingBetweenSlices": 2.0000000543806,
      "SpecificCharacterSet": "ISO_IR 100",
      "StudyID": "1",
      "StudyTime": "144036.485000",
      "TransmitCoilName": "Body",
      "VariableFlipAngleFlag": "N",
      "WindowCenterWidthExplanation": "Algo1",
      "dBdt": 0.0},
    "slices": {}
  },
  "time": {
    "samples": {
      "AcquisitionNumber": [1, 2, 3, 4, 5, 6, 7, 8, 9, 10, 11, 12, 13, 14, 15, 16, 17, 18, 19, 20, 21, 22, 23, 24, 25, 26, 27, 28, 29, 30, 31, 32, 33, 34, 35, 36, 37, 38, 39, 40, 41, 42, 43, 44, 45, 46, 47, 48, 49, 50, 51, 52, 53, 54, 55, 56, 57, 58, 59, 60, 61, 62, 63, 64, 65, 66, 67, 68, 69, 70, 71, 72, 73, 74, 75, 76, 77, 78, 79, 80, 81, 82, 83, 84, 85, 86, 87, 88, 89, 90, 91, 92, 93, 94, 95, 96, 97, 98, 99, 100, 101, 102, 103, 104, 105, 106, 107, 108, 109, 110, 111, 112, 113, 114, 115, 116, 117, 118, 119, 120, 121, 122, 123, 124, 125, 126, 127, 128, 129, 130, 131, 132, 133, 134, 135, 136, 137, 138, 139, 140, 141, 142, 143, 144, 145, 146, 147, 148, 149, 150, 151, 152, 153, 154, 155, 156, 157, 158, 159, 160, 161, 162, 163, 164, 165, 166, 167, 168, 169, 170, 171, 172, 173, 174, 175, 176, 177, 178, 179, 180, 181, 182, 183, 184, 185, 186, 187, 188, 189, 190, 191, 192, 193, 194, 195, 196, 197, 198, 199, 200, 201, 202, 203, 204, 205, 206, 207, 208, 209, 210, 211, 212, 213, 214, 215, 216, 217, 218, 219, 220, 221, 222, 223, 224, 225, 226, 227, 228, 229, 230, 231, 232, 233, 234, 235, 236, 237, 238, 239, 240, 241, 242, 243, 244, 245, 246, 247, 248, 249, 250, 251, 252, 253, 254, 255, 256, 257, 258, 259, 260, 261, 262, 263, 264, 265, 266, 267, 268, 269, 270, 271, 272, 273, 274, 275, 276, 277, 278, 279, 280, 281, 282, 283, 284, 285, 286, 287, 288, 289, 290, 291, 292, 293, 294, 295, 296, 297, 298, 299, 300, 301, 302, 303, 304, 305, 306, 307, 308, 309, 310, 311, 312, 313, 314, 315, 316, 317, 318, 319, 320, 321, 322, 323, 324, 325, 326, 327, 328, 329, 330, 331, 332, 333, 334, 335, 336, 337, 338, 339, 340, 341, 342, 343, 344, 345, 346, 347, 348, 349, 350, 351, 352, 353, 354, 355, 356, 357, 358, 359, 360, 361, 362, 363, 364, 365, 366, 367, 368, 369, 370, 371, 372, 373, 374, 375, 376, 377, 378, 379, 380, 381, 382, 383, 384, 385, 386, 387, 388, 389, 390, 391, 392, 393, 394, 395, 396, 397, 398, 399, 400, 401, 402, 403, 404, 405, 406, 407, 408, 409, 410, 411, 412, 413, 414, 415, 416, 417, 418, 419, 420, 421, 422, 423, 424, 425, 426, 427, 428, 429, 430, 431, 432, 433, 434, 435, 436, 437, 438, 439, 440, 441, 442, 443, 444, 445, 446, 447, 448, 449, 450, 451, 452, 453, 454, 455, 456, 457, 458, 459],
      "AcquisitionTime": ["154831.275000", "154832.765000", "154834.255000", "154835.745000", "154837.235000", "154838.725000", "154840.215000", "154841.705000", "154843.195000", "154844.685000", "154846.175000", "154847.665000", "154849.155000", "154850.645000", "154852.135000", "154853.625000", "154855.115000", "154856.605000", "154858.095000", "154859.585000", "154901.075000", "154902.565000", "154904.055000", "154905.545000", "154907.035000", "154908.525000", "154910.015000", "154911.505000", "154912.995000", "154914.485000", "154915.975000", "154917.465000", "154918.955000", "154920.445000", "154921.935000", "154923.425000", "154924.915000", "154926.405000", "154927.895000", "154929.385000", "154930.875000", "154932.365000", "154933.855000", "154935.345000", "154936.835000", "154938.325000", "154939.815000", "154941.305000", "154942.795000", "154944.285000", "154945.775000", "154947.265000", "154948.755000", "154950.245000", "154951.735000", "154953.225000", "154954.715000", "154956.205000", "154957.695000", "154959.185000", "155000.675000", "155002.165000", "155003.655000", "155005.145000", "155006.635000", "155008.125000", "155009.615000", "155011.105000", "155012.595000", "155014.085000", "155015.575000", "155017.065000", "155018.555000", "155020.045000", "155021.535000", "155023.025000", "155024.515000", "155026.005000", "155027.495000", "155028.985000", "155030.475000", "155031.965000", "155033.455000", "155034.945000", "155036.435000", "155037.925000", "155039.415000", "155040.905000", "155042.395000", "155043.885000", "155045.375000", "155046.865000", "155048.355000", "155049.845000", "155051.335000", "155052.825000", "155054.315000", "155055.805000", "155057.295000", "155058.785000", "155100.275000", "155101.765000", "155103.255000", "155104.745000", "155106.235000", "155107.725000", "155109.215000", "155110.705000", "155112.195000", "155113.685000", "155115.175000", "155116.665000", "155118.155000", "155119.645000", "155121.135000", "155122.625000", "155124.115000", "155125.605000", "155127.095000", "155128.585000", "155130.075000", "155131.565000", "155133.055000", "155134.545000", "155136.035000", "155137.525000", "155139.015000", "155140.505000", "155141.995000", "155143.485000", "155144.975000", "155146.465000", "155147.955000", "155149.445000", "155150.935000", "155152.425000", "155153.915000", "155155.405000", "155156.895000", "155158.385000", "155159.875000", "155201.365000", "155202.855000", "155204.345000", "155205.835000", "155207.325000", "155208.815000", "155210.305000", "155211.795000", "155213.285000", "155214.775000", "155216.265000", "155217.755000", "155219.245000", "155220.735000", "155222.225000", "155223.715000", "155225.205000", "155226.695000", "155228.185000", "155229.675000", "155231.165000", "155232.655000", "155234.145000", "155235.635000", "155237.125000", "155238.615000", "155240.105000", "155241.595000", "155243.085000", "155244.575000", "155246.065000", "155247.555000", "155249.045000", "155250.535000", "155252.025000", "155253.515000", "155255.005000", "155256.495000", "155257.985000", "155259.475000", "155300.965000", "155302.455000", "155303.945000", "155305.435000", "155306.925000", "155308.415000", "155309.905000", "155311.395000", "155312.885000", "155314.375000", "155315.865000", "155317.355000", "155318.845000", "155320.335000", "155321.825000", "155323.315000", "155324.805000", "155326.295000", "155327.785000", "155329.275000", "155330.765000", "155332.255000", "155333.745000", "155335.235000", "155336.725000", "155338.215000", "155339.705000", "155341.195000", "155342.685000", "155344.175000", "155345.665000", "155347.155000", "155348.645000", "155350.135000", "155351.625000", "155353.115000", "155354.605000", "155356.095000", "155357.585000", "155359.075000", "155400.565000", "155402.055000", "155403.545000", "155405.035000", "155406.525000", "155408.015000", "155409.505000", "155410.995000", "155412.485000", "155413.975000", "155415.465000", "155416.955000", "155418.445000", "155419.935000", "155421.425000", "155422.915000", "155424.405000", "155425.895000", "155427.385000", "155428.875000", "155430.365000", "155431.855000", "155433.345000", "155434.835000", "155436.325000", "155437.815000", "155439.305000", "155440.795000", "155442.285000", "155443.775000", "155445.265000", "155446.755000", "155448.245000", "155449.735000", "155451.225000", "155452.715000", "155454.205000", "155455.695000", "155457.185000", "155458.675000", "155500.165000", "155501.655000", "155503.145000", "155504.635000", "155506.125000", "155507.615000", "155509.105000", "155510.595000", "155512.085000", "155513.575000", "155515.065000", "155516.555000", "155518.045000", "155519.535000", "155521.025000", "155522.515000", "155524.005000", "155525.495000", "155526.985000", "155528.475000", "155529.965000", "155531.455000", "155532.945000", "155534.435000", "155535.925000", "155537.415000", "155538.905000", "155540.395000", "155541.885000", "155543.375000", "155544.865000", "155546.355000", "155547.845000", "155549.335000", "155550.825000", "155552.315000", "155553.805000", "155555.295000", "155556.785000", "155558.275000", "155559.765000", "155601.255000", "155602.745000", "155604.235000", "155605.725000", "155607.215000", "155608.705000", "155610.195000", "155611.685000", "155613.175000", "155614.665000", "155616.155000", "155617.645000", "155619.135000", "155620.625000", "155622.115000", "155623.605000", "155625.095000", "155626.585000", "155628.075000", "155629.565000", "155631.055000", "155632.545000", "155634.035000", "155635.525000", "155637.015000", "155638.505000", "155639.995000", "155641.485000", "155642.975000", "155644.465000", "155645.955000", "155647.445000", "155648.935000", "155650.425000", "155651.915000", "155653.405000", "155654.895000", "155656.385000", "155657.875000", "155659.365000", "155700.855000", "155702.345000", "155703.835000", "155705.325000", "155706.815000", "155708.305000", "155709.795000", "155711.285000", "155712.775000", "155714.265000", "155715.755000", "155717.245000", "155718.735000", "155720.225000", "155721.715000", "155723.205000", "155724.695000", "155726.185000", "155727.675000", "155729.165000", "155730.655000", "155732.145000", "155733.635000", "155735.125000", "155736.615000", "155738.105000", "155739.595000", "155741.085000", "155742.575000", "155744.065000", "155745.555000", "155747.045000", "155748.535000", "155750.025000", "155751.515000", "155753.005000", "155754.495000", "155755.985000", "155757.475000", "155758.965000", "155800.455000", "155801.945000", "155803.435000", "155804.925000", "155806.415000", "155807.905000", "155809.395000", "155810.885000", "155812.375000", "155813.865000", "155815.355000", "155816.845000", "155818.335000", "155819.825000", "155821.315000", "155822.805000", "155824.295000", "155825.785000", "155827.275000", "155828.765000", "155830.255000", "155831.745000", "155833.235000", "155834.725000", "155836.215000", "155837.705000", "155839.195000", "155840.685000", "155842.175000", "155843.665000", "155845.155000", "155846.645000", "155848.135000", "155849.625000", "155851.115000", "155852.605000", "155854.095000", "155855.585000", "155857.075000", "155858.565000", "155900.055000", "155901.545000", "155903.035000", "155904.525000", "155906.015000", "155907.505000", "155908.995000", "155910.485000", "155911.975000", "155913.465000", "155914.955000", "155916.445000", "155917.935000", "155919.425000", "155920.915000", "155922.405000", "155923.895000", "155925.385000", "155926.875000", "155928.365000", "155929.855000", "155931.345000", "155932.835000", "155934.325000", "155935.815000", "155937.305000", "155938.795000", "155940.285000", "155941.775000", "155943.265000", "155944.755000", "155946.245000", "155947.735000", "155949.225000", "155950.715000", "155952.205000", "155953.695000"],
      "ContentTime": ["154952.442000", "154952.446000", "154952.449000", "154952.453000", "154952.456000", "154952.459000", "154952.463000", "154952.466000", "154952.470000", "154952.473000", "154952.476000", "154952.480000", "154952.483000", "154952.486000", "154952.490000", "154952.493000", "154952.496000", "154952.499000", "154952.503000", "154952.506000", "154952.510000", "154952.513000", "154952.516000", "154952.519000", "154952.523000", "154952.526000", "155012.406000", "155012.410000", "155012.413000", "155012.417000", "155012.420000", "155012.424000", "155012.427000", "155012.431000", "155012.434000", "155012.437000", "155012.441000", "155012.444000", "155012.447000", "155012.451000", "155012.454000", "155012.458000", "155012.461000", "155012.464000", "155012.468000", "155012.471000", "155032.406000", "155032.410000", "155032.413000", "155032.417000", "155032.420000", "155032.424000", "155032.427000", "155032.447000", "155032.450000", "155032.454000", "155032.457000", "155032.460000", "155032.464000", "155032.467000", "155032.470000", "155032.474000", "155032.477000", "155032.481000", "155032.484000", "155032.488000", "155052.406000", "155052.410000", "155052.413000", "155052.416000", "155052.420000", "155052.424000", "155052.427000", "155052.431000", "155052.434000", "155052.437000", "155052.441000", "155052.444000", "155052.447000", "155052.451000", "155052.454000", "155052.457000", "155052.461000", "155052.464000", "155052.467000", "155052.470000", "155112.406000", "155112.410000", "155112.413000", "155112.416000", "155112.420000", "155112.423000", "155112.426000", "155112.430000", "155112.433000", "155112.436000", "155112.440000", "155112.443000", "155112.447000", "155112.450000", "155112.453000", "155112.457000", "155112.460000", "155112.463000", "155112.467000", "155112.470000", "155152.406000", "155152.410000", "155152.413000", "155152.417000", "155152.420000", "155152.423000", "155152.427000", "155152.430000", "155152.433000", "155152.437000", "155152.440000", "155152.443000", "155152.447000", "155152.450000", "155152.454000", "155152.458000", "155152.461000", "155152.466000", "155152.469000", "155152.472000", "155152.476000", "155152.479000", "155152.488000", "155152.491000", "155152.495000", "155152.498000", "155152.501000", "155152.505000", "155232.406000", "155232.410000", "155232.413000", "155232.417000", "155232.420000", "155232.424000", "155232.427000", "155232.430000", "155232.434000", "155232.437000", "155232.440000", "155232.444000", "155232.447000", "155232.457000", "155232.461000", "155232.464000", "155232.467000", "155232.471000", "155232.474000", "155232.477000", "155232.481000", "155232.484000", "155232.487000", "155232.491000", "155232.494000", "155232.497000", "155232.501000", "155312.406000", "155312.410000", "155312.413000", "155312.417000", "155312.420000", "155312.423000", "155312.427000", "155312.430000", "155312.434000", "155312.437000", "155312.440000", "155312.444000", "155312.447000", "155312.450000", "155312.454000", "155312.457000", "155312.460000", "155312.464000", "155312.467000", "155312.470000", "155312.474000", "155312.477000", "155312.480000", "155312.484000", "155312.487000", "155312.491000", "155312.494000", "155352.406000", "155352.410000", "155352.413000", "155352.417000", "155352.420000", "155352.423000", "155352.427000", "155352.430000", "155352.433000", "155352.437000", "155352.440000", "155352.444000", "155352.447000", "155352.450000", "155352.454000", "155352.457000", "155352.460000", "155352.464000", "155352.467000", "155352.470000", "155352.474000", "155352.477000", "155352.480000", "155352.484000", "155352.487000", "155352.490000", "155352.494000", "155432.407000", "155432.411000", "155432.414000", "155432.418000", "155432.421000", "155432.424000", "155432.428000", "155432.431000", "155432.435000", "155432.438000", "155432.441000", "155432.445000", "155432.448000", "155432.451000", "155432.455000", "155432.458000", "155432.461000", "155432.465000", "155432.468000", "155432.471000", "155432.475000", "155432.478000", "155432.481000", "155432.485000", "155432.488000", "155432.491000", "155432.495000", "155512.406000", "155512.410000", "155512.413000", "155512.417000", "155512.431000", "155512.435000", "155512.438000", "155512.441000", "155512.445000", "155512.448000", "155512.452000", "155512.455000", "155512.458000", "155512.462000", "155512.465000", "155512.468000", "155512.472000", "155512.475000", "155512.478000", "155512.482000", "155512.485000", "155512.488000", "155512.492000", "155512.495000", "155512.498000", "155512.502000", "155512.505000", "155552.406000", "155552.410000", "155552.413000", "155552.417000", "155552.420000", "155552.423000", "155552.427000", "155552.430000", "155552.433000", "155552.437000", "155552.440000", "155552.444000", "155552.447000", "155552.450000", "155552.454000", "155552.457000", "155552.461000", "155552.464000", "155552.467000", "155552.471000", "155552.475000", "155552.479000", "155552.482000", "155552.485000", "155552.489000", "155552.493000", "155632.407000", "155632.411000", "155632.414000", "155632.418000", "155632.421000", "155632.425000", "155632.428000", "155632.431000", "155632.435000", "155632.438000", "155632.441000", "155632.445000", "155632.448000", "155632.451000", "155632.455000", "155632.458000", "155632.462000", "155632.465000", "155632.468000", "155632.472000", "155632.475000", "155632.479000", "155632.482000", "155632.485000", "155632.489000", "155632.492000", "155632.495000", "155712.406000", "155712.410000", "155712.413000", "155712.417000", "155712.420000", "155712.423000", "155712.427000", "155712.430000", "155712.433000", "155712.437000", "155712.440000", "155712.443000", "155712.456000", "155712.459000", "155712.462000", "155712.466000", "155712.469000", "155712.472000", "155712.476000", "155712.479000", "155712.482000", "155712.486000", "155712.489000", "155712.492000", "155712.496000", "155712.499000", "155712.502000", "155752.406000", "155752.410000", "155752.413000", "155752.417000", "155752.420000", "155752.423000", "155752.427000", "155752.430000", "155752.434000", "155752.437000", "155752.440000", "155752.444000", "155752.447000", "155752.450000", "155752.454000", "155752.457000", "155752.460000", "155752.464000", "155752.467000", "155752.471000", "155752.474000", "155752.477000", "155752.481000", "155752.484000", "155752.487000", "155752.491000", "155752.494000", "155832.406000", "155832.410000", "155832.413000", "155832.417000", "155832.420000", "155832.424000", "155832.427000", "155832.430000", "155832.435000", "155832.438000", "155832.442000", "155832.445000", "155832.449000", "155832.452000", "155832.455000", "155832.459000", "155832.462000", "155832.465000", "155832.469000", "155832.472000", "155832.476000", "155832.479000", "155832.482000", "155832.486000", "155832.489000", "155832.492000", "155832.496000", "155912.407000", "155912.411000", "155912.414000", "155912.418000", "155912.421000", "155912.424000", "155912.428000", "155912.431000", "155912.434000", "155912.438000", "155912.441000", "155912.445000", "155912.448000", "155912.451000", "155912.455000", "155912.458000", "155912.461000", "155912.465000", "155912.468000", "155912.471000", "155912.475000", "155912.478000", "155912.481000", "155912.485000", "155912.488000", "155912.491000", "155912.495000", "155952.406000", "155952.410000", "155952.413000", "155952.417000", "155952.420000", "155952.423000", "155952.427000", "155952.430000", "155952.433000", "155952.437000", "155952.440000", "155952.443000", "155952.447000", "155952.450000", "155952.453000", "155952.457000", "155952.460000", "155952.463000", "155952.467000", "155952.470000", "155952.473000", "155952.477000", "155952.480000", "155952.483000", "155952.487000", "155952.490000", "155952.494000", "155956.454000", "155956.458000"],
