{
  "AcquisitionMatrixPE": 104,
  "AcquisitionNumber": 1,
  "AcquisitionTime": "16:01:25.960000",
  "BandwidthPerPixelPhaseEncode": 17.17,
  "BaseResolution": 104,
  "BodyPartExamined": "BRAIN",
  "CoilCombinationMethod": "Sum of Squares",
  "ConsistencyInfo": "N4_VE11C_LATEST_20160120",
  "ConversionSoftware": "dcm2niix",
  "ConversionSoftwareVersion": "v1.0.20211006",
  "DerivedVendorReportedEchoSpacing": 0.000560011,
  "DeviceSerialNumber": "167006",
  "DwellTime": 2.1e-06,
  "EchoTime": 0.037,
  "EchoTime1": 0.037,
  "EchoTime2": 0.001,
  "EchoTrainLength": 104,
  "EffectiveEchoSpacing": 0.000560011,
  "FlipAngle": 52,
  "HeudiconvVersion": "0.5.3.post569+g418601f",
  "ImageComments": "Unaliased MB4/PE3/LB",
  "ImageOrientationPatientDICOM": [0.999678, 0.00323391, 0.0251837, 0.00436198, 0.955235, -0.295815],
  "ImageOrientationText": "Tra>Cor(-17.2)>Sag(1.4)",
  "ImageType": [
    "ORIGINAL",
    "PRIMARY",
    "P",
    "MB",
    "ND",
    "MOSAIC",
    "PHASE"
],
  "ImagingFrequency": 123.259,
  "InPlanePhaseEncodingDirectionDICOM": "COL",
  "InstitutionAddress": "Chemin Queen-Mary 4565,Montreal,District,CA,H3W 1W5",
  "InstitutionName": "IUGM",
  "InstitutionalDepartmentName": "Department",
  "MRAcquisitionType": "2D",
  "MagneticFieldStrength": 3,
  "Manufacturer": "Siemens",
  "ManufacturersModelName": "Prisma_fit",
  "MatrixCoilMode": "SENSE",
  "Modality": "MR",
  "MultibandAccelerationFactor": 4,
  "PartialFourier": 1,
  "PatientPosition": "HFS",
  "PercentPhaseFOV": 100,
  "PercentSampling": 100,
  "PhaseEncodingDirection": "j",
  "PhaseEncodingSteps": 104,
  "PhaseResolution": 1,
  "PixelBandwidth": 2290,
  "ProcedureStepDescription": "games^mario",
  "ProtocolName": "func_task-mario_run-02",
  "PulseSequenceDetails": "%CustomerSeq%\\cmrr_mbep2d_bold",
  "ReceiveCoilActiveElements": "HC1-7;NC1,2",
  "ReceiveCoilName": "HeadNeck_64",
  "ReconMatrixPE": 104,
  "RepetitionTime": 1.49,
  "SAR": 0.0305937,
  "ScanOptions": "FS",
  "ScanningSequence": "EP",
  "SequenceName": "epfid2d1_104",
  "SequenceVariant": "SK\\SS",
  "SeriesDescription": "func_task-mario_run-02",
  "SeriesNumber": 14,
  "ShimSetting": [638, -7235, -8760, 727, 24, -61, 56, 10],
  "SliceThickness": 2,
  "SliceTiming": [0, 0.7825, 0.0975, 0.88, 0.195, 0.98, 0.2925, 1.0775, 0.39, 1.175, 0.49, 1.2725, 0.5875, 1.37, 0.685, 0, 0.7825, 0.0975, 0.88, 0.195, 0.98, 0.2925, 1.0775, 0.39, 1.175, 0.49, 1.2725, 0.5875, 1.37, 0.685, 0, 0.7825, 0.0975, 0.88, 0.195, 0.98, 0.2925, 1.0775, 0.39, 1.175, 0.49, 1.2725, 0.5875, 1.37, 0.685, 0, 0.7825, 0.0975, 0.88, 0.195, 0.98, 0.2925, 1.0775, 0.39, 1.175, 0.49, 1.2725, 0.5875, 1.37, 0.685],
  "SoftwareVersions": "syngo MR E11",
  "SpacingBetweenSlices": 2,
  "StationName": "MRC35049",
  "TaskName": "mario",
  "TotalReadoutTime": 0.0576811,
  "TxRefAmp": 204.699,
  "WipMemBlock": "325a7e04-34b3-4f40-a3d5-173df2f3b658||Sequence: R016 ve11c/master r/e634e98; Dec 19 2017 11:00:25 by eja",
  "dcmmeta_affine": [
    [-1.9993551969528198, 0.008723950013518333, 0.05002596974372864, 107.22569274902344],
    [-0.006467819679528475, 1.9104704856872559, -0.5916590690612793, -70.04403686523438],
    [0.05036737024784088, 0.5916301012039185, 1.9098265171051025, -57.478904724121094],
    [0.0, 0.0, 0.0, 1.0]
],
  "dcmmeta_reorient_transform": [
    [0.0, -1.0, 0.0, 103.0],
    [1.0, 0.0, 0.0, 0.0],
    [0.0, 0.0, 1.0, 0.0],
    [0.0, 0.0, 0.0, 1.0]
],
  "dcmmeta_shape": [104, 104, 60, 468],
  "dcmmeta_slice_dim": 2,
  "dcmmeta_version": 0.6,
  "global": {
    "const": {
      "AcquisitionMatrix": [104, 0, 0, 104],
      "AngioFlag": "N",
      "BitsAllocated": 16,
      "BitsStored": 16,
      "BodyPartExamined": "BRAIN",
      "Columns": 832,
      "EchoNumbers": 1,
      "EchoTime": 37.0,
      "EchoTrainLength": 104,
      "FlipAngle": 52.0,
      "HighBit": 15,
      "ImageOrientationPatient": [0.99967760994042, 0.00323390979289, 0.02518368541844, 0.00436197492801, 0.95523527177887, -0.2958150583123],
      "ImagePositionPatient": [-839.06507408159, -824.49998989656, 200.478635759],
      "ImageType": [
        "ORIGINAL",
        "PRIMARY",
        "P",
        "MB",
        "ND",
        "MOSAIC"
],
      "ImagedNucleus": "1H",
      "ImagingFrequency": 123.258827,
      "InPlanePhaseEncodingDirection": "COL",
      "LargestImagePixelValue": 4095,
      "MRAcquisitionType": "2D",
      "MagneticFieldStrength": 3.0,
      "Manufacturer": "SIEMENS",
      "ManufacturerModelName": "Prisma_fit",
      "Modality": "MR",
      "NumberOfAverages": 1.0,
      "NumberOfPhaseEncodingSteps": 104,
      "PercentPhaseFieldOfView": 100.0,
      "PercentSampling": 100.0,
      "PerformedProcedureStepStartTime": "144036.615000",
      "PhotometricInterpretation": "MONOCHROME2",
      "PixelBandwidth": 2290.0,
      "PixelRepresentation": 0,
      "PixelSpacing": [2.0, 2.0],
      "ProtocolName": "func_task-mario_run-02",
      "RepetitionTime": 1490.0,
      "RescaleIntercept": -4096.0,
      "RescaleSlope": 2.0,
      "RescaleType": "US",
      "Rows": 832,
      "SAR": 0.0305937373236,
      "SamplesPerPixel": 1,
      "ScanOptions": "FS",
      "ScanningSequence": "EP",
      "SequenceName": "epfid2d1_104",
      "SequenceVariant": [
        "SK",
        "SS"
],
      "SeriesDescription": "func_task-mario_run-02",
      "SeriesNumber": 14,
      "SeriesTime": "160258.723000",
      "SliceLocation": -31.48423548362,
      "SliceThickness": 2.0,
      "SmallestImagePixelValue": 0,
      "SoftwareVersions": "syngo MR E11",
      "SpacingBetweenSlices": 2.0000000543806,
      "SpecificCharacterSet": "ISO_IR 100",
      "StudyID": "1",
      "StudyTime": "144036.485000",
      "TransmitCoilName": "Body",
      "VariableFlipAngleFlag": "N",
      "WindowCenterWidthExplanation": "Algo1",
      "dBdt": 0.0},
    "slices": {}
  },
  "time": {
    "samples": {
      "AcquisitionNumber": [1, 2, 3, 4, 5, 6, 7, 8, 9, 10, 11, 12, 13, 14, 15, 16, 17, 18, 19, 20, 21, 22, 23, 24, 25, 26, 27, 28, 29, 30, 31, 32, 33, 34, 35, 36, 37, 38, 39, 40, 41, 42, 43, 44, 45, 46, 47, 48, 49, 50, 51, 52, 53, 54, 55, 56, 57, 58, 59, 60, 61, 62, 63, 64, 65, 66, 67, 68, 69, 70, 71, 72, 73, 74, 75, 76, 77, 78, 79, 80, 81, 82, 83, 84, 85, 86, 87, 88, 89, 90, 91, 92, 93, 94, 95, 96, 97, 98, 99, 100, 101, 102, 103, 104, 105, 106, 107, 108, 109, 110, 111, 112, 113, 114, 115, 116, 117, 118, 119, 120, 121, 122, 123, 124, 125, 126, 127, 128, 129, 130, 131, 132, 133, 134, 135, 136, 137, 138, 139, 140, 141, 142, 143, 144, 145, 146, 147, 148, 149, 150, 151, 152, 153, 154, 155, 156, 157, 158, 159, 160, 161, 162, 163, 164, 165, 166, 167, 168, 169, 170, 171, 172, 173, 174, 175, 176, 177, 178, 179, 180, 181, 182, 183, 184, 185, 186, 187, 188, 189, 190, 191, 192, 193, 194, 195, 196, 197, 198, 199, 200, 201, 202, 203, 204, 205, 206, 207, 208, 209, 210, 211, 212, 213, 214, 215, 216, 217, 218, 219, 220, 221, 222, 223, 224, 225, 226, 227, 228, 229, 230, 231, 232, 233, 234, 235, 236, 237, 238, 239, 240, 241, 242, 243, 244, 245, 246, 247, 248, 249, 250, 251, 252, 253, 254, 255, 256, 257, 258, 259, 260, 261, 262, 263, 264, 265, 266, 267, 268, 269, 270, 271, 272, 273, 274, 275, 276, 277, 278, 279, 280, 281, 282, 283, 284, 285, 286, 287, 288, 289, 290, 291, 292, 293, 294, 295, 296, 297, 298, 299, 300, 301, 302, 303, 304, 305, 306, 307, 308, 309, 310, 311, 312, 313, 314, 315, 316, 317, 318, 319, 320, 321, 322, 323, 324, 325, 326, 327, 328, 329, 330, 331, 332, 333, 334, 335, 336, 337, 338, 339, 340, 341, 342, 343, 344, 345, 346, 347, 348, 349, 350, 351, 352, 353, 354, 355, 356, 357, 358, 359, 360, 361, 362, 363, 364, 365, 366, 367, 368, 369, 370, 371, 372, 373, 374, 375, 376, 377, 378, 379, 380, 381, 382, 383, 384, 385, 386, 387, 388, 389, 390, 391, 392, 393, 394, 395, 396, 397, 398, 399, 400, 401, 402, 403, 404, 405, 406, 407, 408, 409, 410, 411, 412, 413, 414, 415, 416, 417, 418, 419, 420, 421, 422, 423, 424, 425, 426, 427, 428, 429, 430, 431, 432, 433, 434, 435, 436, 437, 438, 439, 440, 441, 442, 443, 444, 445, 446, 447, 448, 449, 450, 451, 452, 453, 454, 455, 456, 457, 458, 459, 460, 461, 462, 463, 464, 465, 466, 467, 468],
      "AcquisitionTime": ["160125.960000", "160127.450000", "160128.940000", "160130.430000", "160131.920000", "160133.410000", "160134.900000", "160136.390000", "160137.880000", "160139.370000", "160140.860000", "160142.350000", "160143.840000", "160145.330000", "160146.820000", "160148.310000", "160149.800000", "160151.290000", "160152.780000", "160154.270000", "160155.760000", "160157.250000", "160158.740000", "160200.230000", "160201.720000", "160203.210000", "160204.700000", "160206.190000", "160207.680000", "160209.170000", "160210.660000", "160212.150000", "160213.640000", "160215.130000", "160216.620000", "160218.110000", "160219.600000", "160221.090000", "160222.580000", "160224.070000", "160225.560000", "160227.050000", "160228.540000", "160230.030000", "160231.520000", "160233.010000", "160234.500000", "160235.990000", "160237.480000", "160238.970000", "160240.460000", "160241.950000", "160243.440000", "160244.930000", "160246.420000", "160247.910000", "160249.400000", "160250.890000", "160252.380000", "160253.870000", "160255.360000", "160256.850000", "160258.340000", "160259.830000", "160301.320000", "160302.810000", "160304.300000", "160305.790000", "160307.280000", "160308.770000", "160310.260000", "160311.750000", "160313.240000", "160314.730000", "160316.220000", "160317.710000", "160319.200000", "160320.690000", "160322.180000", "160323.670000", "160325.160000", "160326.650000", "160328.140000", "160329.630000", "160331.120000", "160332.610000", "160334.100000", "160335.590000", "160337.080000", "160338.570000", "160340.060000", "160341.550000", "160343.040000", "160344.530000", "160346.020000", "160347.510000", "160349.000000", "160350.490000", "160351.980000", "160353.470000", "160354.960000", "160356.450000", "160357.940000", "160359.430000", "160400.920000", "160402.410000", "160403.900000", "160405.390000", "160406.880000", "160408.370000", "160409.860000", "160411.350000", "160412.840000", "160414.330000", "160415.820000", "160417.310000", "160418.800000", "160420.290000", "160421.780000", "160423.270000", "160424.760000", "160426.250000", "160427.740000", "160429.230000", "160430.720000", "160432.210000", "160433.700000", "160435.190000", "160436.680000", "160438.170000", "160439.660000", "160441.150000", "160442.640000", "160444.130000", "160445.620000", "160447.110000", "160448.600000", "160450.090000", "160451.580000", "160453.070000", "160454.560000", "160456.050000", "160457.540000", "160459.030000", "160500.520000", "160502.010000", "160503.500000", "160504.990000", "160506.480000", "160507.970000", "160509.460000", "160510.950000", "160512.440000", "160513.930000", "160515.420000", "160516.910000", "160518.400000", "160519.890000", "160521.380000", "160522.870000", "160524.360000", "160525.850000", "160527.340000", "160528.830000", "160530.320000", "160531.810000", "160533.300000", "160534.790000", "160536.280000", "160537.770000", "160539.260000", "160540.750000", "160542.240000", "160543.730000", "160545.220000", "160546.710000", "160548.200000", "160549.690000", "160551.180000", "160552.670000", "160554.160000", "160555.650000", "160557.140000", "160558.630000", "160600.120000", "160601.610000", "160603.100000", "160604.590000", "160606.080000", "160607.570000", "160609.060000", "160610.550000", "160612.040000", "160613.530000", "160615.020000", "160616.510000", "160618.000000", "160619.490000", "160620.980000", "160622.470000", "160623.960000", "160625.450000", "160626.940000", "160628.430000", "160629.920000", "160631.410000", "160632.900000", "160634.390000", "160635.880000", "160637.370000", "160638.860000", "160640.350000", "160641.840000", "160643.330000", "160644.820000", "160646.310000", "160647.800000", "160649.290000", "160650.780000", "160652.270000", "160653.760000", "160655.250000", "160656.740000", "160658.230000", "160659.720000", "160701.210000", "160702.700000", "160704.190000", "160705.680000", "160707.170000", "160708.660000", "160710.150000", "160711.640000", "160713.130000", "160714.620000", "160716.110000", "160717.600000", "160719.090000", "160720.580000", "160722.070000", "160723.560000", "160725.050000", "160726.540000", "160728.030000", "160729.520000", "160731.010000", "160732.500000", "160733.990000", "160735.480000", "160736.970000", "160738.460000", "160739.950000", "160741.440000", "160742.930000", "160744.420000", "160745.910000", "160747.400000", "160748.890000", "160750.380000", "160751.870000", "160753.360000", "160754.850000", "160756.340000", "160757.830000", "160759.320000", "160800.810000", "160802.300000", "160803.790000", "160805.280000", "160806.770000", "160808.260000", "160809.750000", "160811.240000", "160812.730000", "160814.220000", "160815.710000", "160817.200000", "160818.690000", "160820.180000", "160821.670000", "160823.160000", "160824.650000", "160826.140000", "160827.630000", "160829.120000", "160830.610000", "160832.100000", "160833.590000", "160835.080000", "160836.570000", "160838.060000", "160839.550000", "160841.040000", "160842.530000", "160844.020000", "160845.510000", "160847.000000", "160848.490000", "160849.980000", "160851.470000", "160852.960000", "160854.450000", "160855.940000", "160857.430000", "160858.920000", "160900.410000", "160901.900000", "160903.390000", "160904.880000", "160906.370000", "160907.860000", "160909.350000", "160910.840000", "160912.330000", "160913.820000", "160915.310000", "160916.800000", "160918.290000", "160919.780000", "160921.270000", "160922.760000", "160924.250000", "160925.740000", "160927.230000", "160928.720000", "160930.210000", "160931.700000", "160933.190000", "160934.680000", "160936.170000", "160937.660000", "160939.150000", "160940.640000", "160942.130000", "160943.620000", "160945.110000", "160946.600000", "160948.090000", "160949.580000", "160951.070000", "160952.560000", "160954.050000", "160955.540000", "160957.030000", "160958.520000", "161000.010000", "161001.500000", "161002.990000", "161004.480000", "161005.970000", "161007.460000", "161008.950000", "161010.440000", "161011.930000", "161013.420000", "161014.910000", "161016.400000", "161017.890000", "161019.380000", "161020.870000", "161022.360000", "161023.850000", "161025.340000", "161026.830000", "161028.320000", "161029.810000", "161031.300000", "161032.790000", "161034.280000", "161035.770000", "161037.260000", "161038.750000", "161040.240000", "161041.730000", "161043.220000", "161044.710000", "161046.200000", "161047.690000", "161049.180000", "161050.670000", "161052.160000", "161053.650000", "161055.140000", "161056.630000", "161058.120000", "161059.610000", "161101.100000", "161102.590000", "161104.080000", "161105.570000", "161107.060000", "161108.550000", "161110.040000", "161111.530000", "161113.020000", "161114.510000", "161116.000000", "161117.490000", "161118.980000", "161120.470000", "161121.960000", "161123.450000", "161124.940000", "161126.430000", "161127.920000", "161129.410000", "161130.900000", "161132.390000", "161133.880000", "161135.370000", "161136.860000", "161138.350000", "161139.840000", "161141.330000", "161142.820000", "161144.310000", "161145.800000", "161147.290000", "161148.780000", "161150.270000", "161151.760000", "161153.250000", "161154.740000", "161156.230000", "161157.720000", "161159.210000", "161200.700000", "161202.190000", "161203.680000", "161205.170000", "161206.660000", "161208.150000", "161209.640000", "161211.130000", "161212.620000", "161214.110000", "161215.600000", "161217.090000", "161218.580000", "161220.070000", "161221.560000", "161223.050000", "161224.540000", "161226.030000", "161227.520000", "161229.010000", "161230.500000", "161231.990000", "161233.480000", "161234.970000", "161236.460000", "161237.950000", "161239.440000", "161240.930000", "161242.420000", "161243.910000", "161245.400000", "161246.890000", "161248.380000", "161249.870000", "161251.360000", "161252.850000", "161254.340000", "161255.830000", "161257.320000", "161258.810000", "161300.300000", "161301.790000"],
      "ContentTime": ["160258.726000", "160258.728000", "160258.731000", "160258.741000", "160258.743000", "160258.746000", "160258.748000", "160258.751000", "160258.753000", "160258.756000", "160258.758000", "160258.761000", "160258.763000", "160258.766000", "160258.768000", "160258.771000", "160258.773000", "160258.776000", "160258.778000", "160258.781000", "160258.783000", "160258.786000", "160258.788000", "160258.791000", "160258.793000", "160258.796000", "160258.798000", "160258.801000", "160258.803000", "160258.806000", "160258.809000", "160258.811000", "160258.814000", "160258.816000", "160258.819000", "160258.821000", "160258.824000", "160258.826000", "160258.829000", "160318.608000", "160318.611000", "160318.614000", "160318.616000", "160318.619000", "160318.621000", "160318.624000", "160318.626000", "160318.629000", "160318.631000", "160318.634000", "160318.636000", "160318.639000", "160318.641000", "160318.644000", "160318.646000", "160318.649000", "160318.651000", "160318.654000", "160318.657000", "160318.659000", "160338.607000", "160338.610000", "160338.613000", "160338.615000", "160338.618000", "160338.620000", "160338.623000", "160338.625000", "160338.628000", "160338.630000", "160338.633000", "160338.635000", "160338.638000", "160338.640000", "160338.643000", "160338.645000", "160338.648000", "160338.651000", "160338.653000", "160338.656000", "160358.607000", "160358.609000", "160358.612000", "160358.614000", "160358.617000", "160358.619000", "160358.622000", "160358.624000", "160358.627000", "160358.630000", "160358.632000", "160358.635000", "160358.637000", "160358.640000", "160358.642000", "160358.645000", "160358.647000", "160358.650000", "160358.652000", "160358.655000", "160438.660000", "160438.663000", "160438.665000", "160438.668000", "160438.670000", "160438.673000", "160438.675000", "160438.678000", "160438.680000", "160438.683000", "160438.685000", "160438.688000", "160438.691000", "160438.693000", "160438.696000", "160438.698000", "160438.701000", "160438.703000", "160438.706000", "160438.708000", "160438.711000", "160438.713000", "160438.716000", "160438.718000", "160438.721000", "160438.725000", "160438.728000", "160438.730000", "160518.634000", "160518.637000", "160518.639000", "160518.642000", "160518.644000", "160518.647000", "160518.649000", "160518.652000", "160518.655000", "160518.657000", "160518.660000", "160518.662000", "160518.665000", "160518.667000", "160518.670000", "160518.673000", "160518.675000", "160518.678000", "160518.680000", "160518.683000", "160518.685000", "160518.688000", "160518.690000", "160518.693000", "160518.695000", "160518.698000", "160518.700000", "160559.075000", "160559.078000", "160559.080000", "160559.083000", "160559.085000", "160559.088000", "160559.090000", "160559.093000", "160559.095000", "160559.098000", "160559.101000", "160559.103000", "160559.106000", "160559.108000", "160559.111000", "160559.113000", "160559.116000", "160559.118000", "160559.121000", "160559.123000", "160559.126000", "160559.128000", "160559.131000", "160559.133000", "160559.136000", "160559.138000", "160559.141000", "160638.638000", "160638.641000", "160638.643000", "160638.646000", "160638.648000", "160638.651000", "160638.653000", "160638.656000", "160638.658000", "160638.661000", "160638.664000", "160638.666000", "160638.669000", "160638.672000", "160638.674000", "160638.677000", "160638.679000", "160638.682000", "160638.685000", "160638.687000", "160638.690000", "160638.692000", "160638.695000", "160638.697000", "160638.700000", "160638.703000", "160638.705000", "160718.640000", "160718.643000", "160718.645000", "160718.648000", "160718.650000", "160718.653000", "160718.655000", "160718.658000", "160718.660000", "160718.663000", "160718.665000", "160718.668000", "160718.671000", "160718.673000", "160718.676000", "160718.678000", "160718.681000", "160718.683000", "160718.686000", "160718.688000", "160718.691000", "160718.693000", "160718.696000", "160718.699000", "160718.701000", "160718.704000", "160718.706000", "160758.666000", "160758.668000", "160758.671000", "160758.673000", "160758.676000", "160758.679000", "160758.681000", "160758.684000", "160758.686000", "160758.689000", "160758.691000", "160758.694000", "160758.696000", "160758.699000", "160758.701000", "160758.704000", "160758.706000", "160758.709000", "160758.712000", "160758.714000", "160758.717000", "160758.719000", "160758.722000", "160758.724000", "160758.727000", "160758.729000", "160758.732000", "160838.650000", "160838.653000", "160838.656000", "160838.658000", "160838.661000", "160838.663000", "160838.666000", "160838.668000", "160838.671000", "160838.673000", "160838.676000", "160838.678000", "160838.681000", "160838.684000", "160838.686000", "160838.689000", "160838.691000", "160838.694000", "160838.696000", "160838.699000", "160838.701000", "160838.704000", "160838.706000", "160838.709000", "160838.711000", "160838.714000", "160838.716000", "160918.636000", "160918.639000", "160918.642000", "160918.645000", "160918.647000", "160918.650000", "160918.653000", "160918.655000", "160918.658000", "160918.660000", "160918.663000", "160918.665000", "160918.668000", "160918.670000", "160918.673000", "160918.675000", "160918.678000", "160918.681000", "160918.683000", "160918.686000", "160918.688000", "160918.691000", "160918.693000", "160918.696000", "160918.698000", "160918.701000", "160958.644000", "160958.647000", "160958.650000", "160958.652000", "160958.655000", "160958.657000", "160958.660000", "160958.662000", "160958.665000", "160958.667000", "160958.670000", "160958.672000", "160958.675000", "160958.677000", "160958.680000", "160958.682000", "160958.685000", "160958.688000", "160958.690000", "160958.693000", "160958.695000", "160958.698000", "160958.700000", "160958.703000", "160958.706000", "160958.708000", "160958.711000", "161038.640000", "161038.642000", "161038.645000", "161038.648000", "161038.650000", "161038.653000", "161038.655000", "161038.658000", "161038.660000", "161038.663000", "161038.665000", "161038.668000", "161038.670000", "161038.673000", "161038.676000", "161038.678000", "161038.681000", "161038.683000", "161038.686000", "161038.688000", "161038.691000", "161038.693000", "161038.696000", "161038.698000", "161038.701000", "161038.705000", "161038.707000", "161118.642000", "161118.645000", "161118.648000", "161118.650000", "161118.653000", "161118.655000", "161118.658000", "161118.660000", "161118.663000", "161118.665000", "161118.668000", "161118.670000", "161118.673000", "161118.675000", "161118.678000", "161118.680000", "161118.683000", "161118.686000", "161118.688000", "161118.691000", "161118.693000", "161118.696000", "161118.698000", "161118.701000", "161118.703000", "161118.706000", "161118.708000", "161158.633000", "161158.636000", "161158.639000", "161158.641000", "161158.644000", "161158.646000", "161158.649000", "161158.651000", "161158.654000", "161158.656000", "161158.659000", "161158.662000", "161158.664000", "161158.667000", "161158.669000", "161158.672000", "161158.674000", "161158.677000", "161158.679000", "161158.682000", "161158.684000", "161158.687000", "161158.689000", "161158.692000", "161158.694000", "161158.697000", "161158.700000", "161238.643000", "161238.646000", "161238.648000", "161238.651000", "161238.653000", "161238.656000", "161238.658000", "161238.661000", "161238.663000", "161238.666000", "161238.668000", "161238.671000", "161238.674000", "161238.676000", "161238.679000", "161238.681000", "161238.684000", "161238.686000", "161238.689000", "161238.691000", "161238.694000", "161238.696000", "161238.699000", "161238.701000", "161238.704000", "161238.706000", "161238.709000", "161258.579000", "161258.581000", "161258.584000", "161258.587000", "161258.589000", "161258.592000", "161258.594000", "161258.597000", "161258.599000", "161258.602000", "161258.605000", "161258.607000", "161258.610000", "161304.948000", "161304.951000", "161304.953000", "161304.956000"],
