{
  "AcquisitionMatrixPE": 104,
  "AcquisitionNumber": 1,
  "AcquisitionTime": "13:02:19.840000",
  "BandwidthPerPixelPhaseEncode": 17.17,
  "BaseResolution": 104,
  "BodyPartExamined": "BRAIN",
  "CoilCombinationMethod": "Sum of Squares",
  "ConsistencyInfo": "N4_VE11C_LATEST_20160120",
  "ConversionSoftware": "dcm2niix",
  "ConversionSoftwareVersion": "v1.0.20211006",
  "DerivedVendorReportedEchoSpacing": 0.000560011,
  "DeviceSerialNumber": "167006",
  "DwellTime": 2.1e-06,
  "EchoTime": 0.037,
  "EchoTrainLength": 104,
  "EffectiveEchoSpacing": 0.000560011,
  "FlipAngle": 52,
  "HeudiconvVersion": "0.10.0",
  "ImageComments": "Unaliased MB4/PE3/LB",
  "ImageOrientationPatientDICOM": [0.999772, 0.015895, 0.0142872, -0.00628182, 0.85751, -0.514428],
  "ImageOrientationText": "Tra>Cor(-31.0)>Sag(1.2)",
  "ImageType": [
    "ORIGINAL",
    "PRIMARY",
    "M",
    "MB",
    "ND",
    "MOSAIC"
],
  "ImagingFrequency": 123.259,
  "InPlanePhaseEncodingDirectionDICOM": "COL",
  "InstitutionAddress": "Chemin Queen-Mary 4565,Montreal,District,CA,H3W 1W5",
  "InstitutionName": "IUGM",
  "InstitutionalDepartmentName": "Department",
  "MRAcquisitionType": "2D",
  "MagneticFieldStrength": 3,
  "Manufacturer": "Siemens",
  "ManufacturersModelName": "Prisma_fit",
  "MatrixCoilMode": "SENSE",
  "Modality": "MR",
  "MultibandAccelerationFactor": 4,
  "PartialFourier": 1,
  "PatientPosition": "HFS",
  "PercentPhaseFOV": 100,
  "PercentSampling": 100,
  "PhaseEncodingDirection": "j",
  "PhaseEncodingSteps": 104,
  "PhaseResolution": 1,
  "PixelBandwidth": 2290,
  "ProcedureStepDescription": "games^mario",
  "ProtocolName": "func_task-mario_run-01",
  "PulseSequenceDetails": "%CustomerSeq%\\cmrr_mbep2d_bold",
  "ReceiveCoilActiveElements": "HC1-7;NC1,2",
  "ReceiveCoilName": "HeadNeck_64",
  "ReconMatrixPE": 104,
  "RepetitionTime": 1.49,
  "SAR": 0.0570451,
  "ScanOptions": "FS",
  "ScanningSequence": "EP",
  "SequenceName": "epfid2d1_104",
  "SequenceVariant": "SK\\SS",
  "SeriesDescription": "func_task-mario_run-01",
  "SeriesNumber": 10,
  "ShimSetting": [614, -7180, -8868, 257, 15, -157, -59, -27],
  "SliceThickness": 2,
  "SliceTiming": [0, 0.7825, 0.0975, 0.8825, 0.195, 0.98, 0.2925, 1.0775, 0.3925, 1.175, 0.49, 1.2725, 0.5875, 1.3725, 0.685, 0, 0.7825, 0.0975, 0.8825, 0.195, 0.98, 0.2925, 1.0775, 0.3925, 1.175, 0.49, 1.2725, 0.5875, 1.3725, 0.685, 0, 0.7825, 0.0975, 0.8825, 0.195, 0.98, 0.2925, 1.0775, 0.3925, 1.175, 0.49, 1.2725, 0.5875, 1.3725, 0.685, 0, 0.7825, 0.0975, 0.8825, 0.195, 0.98, 0.2925, 1.0775, 0.3925, 1.175, 0.49, 1.2725, 0.5875, 1.3725, 0.685],
  "SoftwareVersions": "syngo MR E11",
  "SpacingBetweenSlices": 2,
  "StationName": "MRC35049",
  "TaskName": "mario",
  "TotalReadoutTime": 0.0576811,
  "TxRefAmp": 288.97,
  "WipMemBlock": "0d6fb492-866e-4a31-8154-55499848ab5e||Sequence: R016 ve11c/master r/e634e98; Dec 19 2017 11:00:25 by eja",
  "dcmmeta_affine": [
    [-1.9995431900024414, -0.012563642114400864, 0.04085645452141762, 106.79358673095703],
    [-0.03178996592760086, 1.7150206565856934, -1.0284422636032104, -48.779998779296875],
    [0.028574343770742416, 1.0288567543029785, 1.7148287296295166, -91.54207611083984],
    [0.0, 0.0, 0.0, 1.0]
],
  "dcmmeta_reorient_transform": [
    [0.0, -1.0, 0.0, 103.0],
    [1.0, 0.0, 0.0, 0.0],
    [0.0, 0.0, 1.0, 0.0],
    [0.0, 0.0, 0.0, 1.0]
],
  "dcmmeta_shape": [104, 104, 60, 455],
  "dcmmeta_slice_dim": 2,
  "dcmmeta_version": 0.6,
  "global": {
    "const": {
      "AcquisitionMatrix": [104, 0, 0, 104],
      "AngioFlag": "N",
      "BitsAllocated": 16,
      "BitsStored": 16,
      "BodyPartExamined": "BRAIN",
      "Columns": 832,
      "EchoNumbers": 1,
      "EchoTime": 37.0,
      "EchoTrainLength": 104,
      "FlipAngle": 52.0,
      "HighBit": 15,
      "ImageOrientationPatient": [0.99977158704096, 0.01589498275844, 0.0142871714734, -0.0062818210733, 0.85751035495248, -0.5144283525169],
      "ImagePositionPatient": [-828.76008192663, -763.70621903335, 378.5329441956],
      "ImageType": [
        "ORIGINAL",
        "PRIMARY",
        "M",
        "MB",
        "ND",
        "MOSAIC"
],
      "ImagedNucleus": "1H",
      "ImagingFrequency": 123.258885,
      "InPlanePhaseEncodingDirection": "COL",
      "MRAcquisitionType": "2D",
      "MagneticFieldStrength": 3.0,
      "Manufacturer": "SIEMENS",
      "ManufacturerModelName": "Prisma_fit",
      "Modality": "MR",
      "NumberOfAverages": 1.0,
      "NumberOfPhaseEncodingSteps": 104,
      "PercentPhaseFieldOfView": 100.0,
      "PercentSampling": 100.0,
      "PerformedProcedureStepStartTime": "124344.807000",
      "PhotometricInterpretation": "MONOCHROME2",
      "PixelBandwidth": 2290.0,
      "PixelRepresentation": 0,
      "PixelSpacing": [2.0, 2.0],
      "ProtocolName": "func_task-mario_run-01",
      "RepetitionTime": 1490.0,
      "Rows": 832,
      "SAR": 0.057045077582,
      "SamplesPerPixel": 1,
      "ScanOptions": "FS",
      "ScanningSequence": "EP",
      "SequenceName": "epfid2d1_104",
      "SequenceVariant": [
        "SK",
        "SS"
],
      "SeriesDescription": "func_task-mario_run-01",
      "SeriesNumber": 10,
      "SeriesTime": "130324.387000",
      "SliceLocation": -51.224179725521,
      "SliceThickness": 2.0,
      "SmallestImagePixelValue": 0,
      "SoftwareVersions": "syngo MR E11",
      "SpacingBetweenSlices": 2.0000000179982,
      "SpecificCharacterSet": "ISO_IR 100",
      "StudyID": "1",
      "StudyTime": "124344.710000",
      "TransmitCoilName": "Body",
      "VariableFlipAngleFlag": "N",
      "WindowCenterWidthExplanation": "Algo1",
      "dBdt": 0.0},
    "slices": {}
  },
  "time": {
    "samples": {
      "AcquisitionNumber": [1, 2, 3, 4, 5, 6, 7, 8, 9, 10, 11, 12, 13, 14, 15, 16, 17, 18, 19, 20, 21, 22, 23, 24, 25, 26, 27, 28, 29, 30, 31, 32, 33, 34, 35, 36, 37, 38, 39, 40, 41, 42, 43, 44, 45, 46, 47, 48, 49, 50, 51, 52, 53, 54, 55, 56, 57, 58, 59, 60, 61, 62, 63, 64, 65, 66, 67, 68, 69, 70, 71, 72, 73, 74, 75, 76, 77, 78, 79, 80, 81, 82, 83, 84, 85, 86, 87, 88, 89, 90, 91, 92, 93, 94, 95, 96, 97, 98, 99, 100, 101, 102, 103, 104, 105, 106, 107, 108, 109, 110, 111, 112, 113, 114, 115, 116, 117, 118, 119, 120, 121, 122, 123, 124, 125, 126, 127, 128, 129, 130, 131, 132, 133, 134, 135, 136, 137, 138, 139, 140, 141, 142, 143, 144, 145, 146, 147, 148, 149, 150, 151, 152, 153, 154, 155, 156, 157, 158, 159, 160, 161, 162, 163, 164, 165, 166, 167, 168, 169, 170, 171, 172, 173, 174, 175, 176, 177, 178, 179, 180, 181, 182, 183, 184, 185, 186, 187, 188, 189, 190, 191, 192, 193, 194, 195, 196, 197, 198, 199, 200, 201, 202, 203, 204, 205, 206, 207, 208, 209, 210, 211, 212, 213, 214, 215, 216, 217, 218, 219, 220, 221, 222, 223, 224, 225, 226, 227, 228, 229, 230, 231, 232, 233, 234, 235, 236, 237, 238, 239, 240, 241, 242, 243, 244, 245, 246, 247, 248, 249, 250, 251, 252, 253, 254, 255, 256, 257, 258, 259, 260, 261, 262, 263, 264, 265, 266, 267, 268, 269, 270, 271, 272, 273, 274, 275, 276, 277, 278, 279, 280, 281, 282, 283, 284, 285, 286, 287, 288, 289, 290, 291, 292, 293, 294, 295, 296, 297, 298, 299, 300, 301, 302, 303, 304, 305, 306, 307, 308, 309, 310, 311, 312, 313, 314, 315, 316, 317, 318, 319, 320, 321, 322, 323, 324, 325, 326, 327, 328, 329, 330, 331, 332, 333, 334, 335, 336, 337, 338, 339, 340, 341, 342, 343, 344, 345, 346, 347, 348, 349, 350, 351, 352, 353, 354, 355, 356, 357, 358, 359, 360, 361, 362, 363, 364, 365, 366, 367, 368, 369, 370, 371, 372, 373, 374, 375, 376, 377, 378, 379, 380, 381, 382, 383, 384, 385, 386, 387, 388, 389, 390, 391, 392, 393, 394, 395, 396, 397, 398, 399, 400, 401, 402, 403, 404, 405, 406, 407, 408, 409, 410, 411, 412, 413, 414, 415, 416, 417, 418, 419, 420, 421, 422, 423, 424, 425, 426, 427, 428, 429, 430, 431, 432, 433, 434, 435, 436, 437, 438, 439, 440, 441, 442, 443, 444, 445, 446, 447, 448, 449, 450, 451, 452, 453, 454, 455],
      "AcquisitionTime": ["130219.840000", "130221.330000", "130222.820000", "130224.310000", "130225.800000", "130227.290000", "130228.780000", "130230.270000", "130231.760000", "130233.250000", "130234.740000", "130236.230000", "130237.720000", "130239.210000", "130240.700000", "130242.190000", "130243.680000", "130245.170000", "130246.660000", "130248.150000", "130249.640000", "130251.130000", "130252.620000", "130254.110000", "130255.600000", "130257.090000", "130258.580000", "130300.070000", "130301.560000", "130303.050000", "130304.540000", "130306.030000", "130307.520000", "130309.010000", "130310.500000", "130311.990000", "130313.480000", "130314.970000", "130316.460000", "130317.950000", "130319.440000", "130320.930000", "130322.420000", "130323.910000", "130325.400000", "130326.890000", "130328.380000", "130329.870000", "130331.360000", "130332.850000", "130334.340000", "130335.830000", "130337.320000", "130338.810000", "130340.300000", "130341.790000", "130343.280000", "130344.770000", "130346.260000", "130347.750000", "130349.240000", "130350.730000", "130352.220000", "130353.710000", "130355.200000", "130356.690000", "130358.180000", "130359.670000", "130401.160000", "130402.650000", "130404.140000", "130405.630000", "130407.120000", "130408.610000", "130410.100000", "130411.590000", "130413.080000", "130414.570000", "130416.060000", "130417.550000", "130419.040000", "130420.530000", "130422.020000", "130423.510000", "130425.000000", "130426.490000", "130427.980000", "130429.470000", "130430.960000", "130432.450000", "130433.940000", "130435.430000", "130436.920000", "130438.410000", "130439.900000", "130441.390000", "130442.880000", "130444.370000", "130445.860000", "130447.350000", "130448.840000", "130450.330000", "130451.820000", "130453.310000", "130454.800000", "130456.290000", "130457.780000", "130459.270000", "130500.760000", "130502.250000", "130503.740000", "130505.230000", "130506.720000", "130508.210000", "130509.700000", "130511.190000", "130512.680000", "130514.170000", "130515.660000", "130517.150000", "130518.640000", "130520.130000", "130521.620000", "130523.110000", "130524.600000", "130526.090000", "130527.580000", "130529.070000", "130530.560000", "130532.050000", "130533.540000", "130535.030000", "130536.520000", "130538.010000", "130539.500000", "130540.990000", "130542.480000", "130543.970000", "130545.460000", "130546.950000", "130548.440000", "130549.930000", "130551.420000", "130552.910000", "130554.400000", "130555.890000", "130557.380000", "130558.870000", "130600.360000", "130601.850000", "130603.340000", "130604.830000", "130606.320000", "130607.810000", "130609.300000", "130610.790000", "130612.280000", "130613.770000", "130615.260000", "130616.750000", "130618.240000", "130619.730000", "130621.220000", "130622.710000", "130624.200000", "130625.690000", "130627.180000", "130628.670000", "130630.160000", "130631.650000", "130633.140000", "130634.630000", "130636.120000", "130637.610000", "130639.100000", "130640.590000", "130642.080000", "130643.570000", "130645.060000", "130646.550000", "130648.040000", "130649.530000", "130651.020000", "130652.510000", "130654.000000", "130655.490000", "130656.980000", "130658.470000", "130659.960000", "130701.450000", "130702.940000", "130704.430000", "130705.920000", "130707.410000", "130708.900000", "130710.390000", "130711.880000", "130713.370000", "130714.860000", "130716.350000", "130717.840000", "130719.330000", "130720.820000", "130722.310000", "130723.800000", "130725.290000", "130726.780000", "130728.270000", "130729.760000", "130731.250000", "130732.740000", "130734.230000", "130735.720000", "130737.210000", "130738.700000", "130740.190000", "130741.680000", "130743.170000", "130744.660000", "130746.150000", "130747.640000", "130749.130000", "130750.620000", "130752.110000", "130753.600000", "130755.090000", "130756.580000", "130758.070000", "130759.560000", "130801.050000", "130802.540000", "130804.030000", "130805.520000", "130807.010000", "130808.500000", "130809.990000", "130811.480000", "130812.970000", "130814.460000", "130815.950000", "130817.440000", "130818.930000", "130820.420000", "130821.910000", "130823.400000", "130824.890000", "130826.380000", "130827.870000", "130829.360000", "130830.850000", "130832.340000", "130833.830000", "130835.320000", "130836.810000", "130838.300000", "130839.790000", "130841.280000", "130842.770000", "130844.260000", "130845.750000", "130847.240000", "130848.730000", "130850.220000", "130851.710000", "130853.200000", "130854.690000", "130856.180000", "130857.670000", "130859.160000", "130900.650000", "130902.140000", "130903.630000", "130905.120000", "130906.610000", "130908.100000", "130909.590000", "130911.080000", "130912.570000", "130914.060000", "130915.550000", "130917.040000", "130918.530000", "130920.020000", "130921.510000", "130923.000000", "130924.490000", "130925.980000", "130927.470000", "130928.960000", "130930.450000", "130931.940000", "130933.430000", "130934.920000", "130936.410000", "130937.900000", "130939.390000", "130940.880000", "130942.370000", "130943.860000", "130945.350000", "130946.840000", "130948.330000", "130949.820000", "130951.310000", "130952.800000", "130954.290000", "130955.780000", "130957.270000", "130958.760000", "131000.250000", "131001.740000", "131003.230000", "131004.720000", "131006.210000", "131007.700000", "131009.190000", "131010.680000", "131012.170000", "131013.660000", "131015.150000", "131016.640000", "131018.130000", "131019.620000", "131021.110000", "131022.600000", "131024.090000", "131025.580000", "131027.070000", "131028.560000", "131030.050000", "131031.540000", "131033.030000", "131034.520000", "131036.010000", "131037.500000", "131038.990000", "131040.480000", "131041.970000", "131043.460000", "131044.950000", "131046.440000", "131047.930000", "131049.420000", "131050.910000", "131052.400000", "131053.890000", "131055.380000", "131056.870000", "131058.360000", "131059.850000", "131101.340000", "131102.830000", "131104.320000", "131105.810000", "131107.300000", "131108.790000", "131110.280000", "131111.770000", "131113.260000", "131114.750000", "131116.240000", "131117.730000", "131119.220000", "131120.710000", "131122.200000", "131123.690000", "131125.180000", "131126.670000", "131128.160000", "131129.650000", "131131.140000", "131132.630000", "131134.120000", "131135.610000", "131137.100000", "131138.590000", "131140.080000", "131141.570000", "131143.060000", "131144.550000", "131146.040000", "131147.530000", "131149.020000", "131150.510000", "131152.000000", "131153.490000", "131154.980000", "131156.470000", "131157.960000", "131159.450000", "131200.940000", "131202.430000", "131203.920000", "131205.410000", "131206.900000", "131208.390000", "131209.880000", "131211.370000", "131212.860000", "131214.350000", "131215.840000", "131217.330000", "131218.820000", "131220.310000", "131221.800000", "131223.290000", "131224.780000", "131226.270000", "131227.760000", "131229.250000", "131230.740000", "131232.230000", "131233.720000", "131235.210000", "131236.700000", "131238.190000", "131239.680000", "131241.170000", "131242.660000", "131244.150000", "131245.640000", "131247.130000", "131248.620000", "131250.110000", "131251.600000", "131253.090000", "131254.580000", "131256.070000", "131257.560000", "131259.050000", "131300.540000", "131302.030000", "131303.520000", "131305.010000", "131306.500000", "131307.990000", "131309.480000", "131310.970000", "131312.460000", "131313.950000", "131315.440000", "131316.930000", "131318.420000", "131319.910000", "131321.400000", "131322.890000", "131324.380000", "131325.870000", "131327.360000", "131328.850000", "131330.340000", "131331.830000", "131333.320000", "131334.810000", "131336.300000"],
      "ContentTime": ["130324.391000", "130324.396000", "130324.400000", "130324.403000", "130324.407000", "130324.410000", "130324.414000", "130324.417000", "130324.421000", "130324.424000", "130344.356000", "130344.360000", "130344.377000", "130344.386000", "130344.389000", "130344.393000", "130344.396000", "130344.399000", "130344.403000", "130344.406000", "130344.409000", "130344.413000", "130344.416000", "130344.420000", "130344.423000", "130344.426000", "130344.430000", "130344.433000", "130344.437000", "130344.440000", "130404.356000", "130404.360000", "130404.363000", "130404.367000", "130404.370000", "130404.374000", "130404.377000", "130404.380000", "130404.384000", "130404.387000", "130404.391000", "130404.394000", "130404.397000", "130404.401000", "130404.404000", "130404.408000", "130404.411000", "130404.414000", "130404.418000", "130404.421000", "130424.356000", "130424.360000", "130424.363000", "130424.367000", "130424.370000", "130424.374000", "130424.377000", "130424.380000", "130424.384000", "130424.387000", "130424.391000", "130424.394000", "130424.397000", "130424.401000", "130424.404000", "130424.408000", "130424.411000", "130424.414000", "130424.423000", "130424.426000", "130444.356000", "130444.360000", "130444.363000", "130444.367000", "130444.370000", "130444.374000", "130444.382000", "130444.385000", "130444.389000", "130444.392000", "130444.395000", "130444.399000", "130444.402000", "130444.405000", "130444.409000", "130444.412000", "130444.415000", "130444.419000", "130444.422000", "130444.426000", "130504.356000", "130504.360000", "130504.363000", "130504.367000", "130504.370000", "130504.374000", "130504.377000", "130504.380000", "130504.384000", "130504.387000", "130504.391000", "130504.394000", "130504.397000", "130504.401000", "130504.404000", "130504.408000", "130504.411000", "130504.415000", "130504.418000", "130504.421000", "130544.356000", "130544.360000", "130544.364000", "130544.367000", "130544.371000", "130544.374000", "130544.396000", "130544.399000", "130544.402000", "130544.406000", "130544.409000", "130544.413000", "130544.416000", "130544.419000", "130544.423000", "130544.427000", "130544.430000", "130544.433000", "130544.437000", "130544.441000", "130544.445000", "130544.449000", "130544.453000", "130544.456000", "130544.460000", "130544.464000", "130624.356000", "130624.360000", "130624.363000", "130624.367000", "130624.370000", "130624.374000", "130624.377000", "130624.380000", "130624.384000", "130624.387000", "130624.391000", "130624.394000", "130624.397000", "130624.401000", "130624.404000", "130624.408000", "130624.411000", "130624.415000", "130624.418000", "130624.422000", "130624.425000", "130624.429000", "130624.432000", "130624.435000", "130624.439000", "130624.442000", "130624.445000", "130704.356000", "130704.360000", "130704.364000", "130704.367000", "130704.371000", "130704.374000", "130704.378000", "130704.381000", "130704.384000", "130704.388000", "130704.392000", "130704.395000", "130704.398000", "130704.402000", "130704.405000", "130704.409000", "130704.412000", "130704.416000", "130704.419000", "130704.423000", "130704.426000", "130704.430000", "130704.433000", "130704.436000", "130704.440000", "130704.443000", "130704.447000", "130744.356000", "130744.360000", "130744.363000", "130744.367000", "130744.370000", "130744.374000", "130744.377000", "130744.381000", "130744.384000", "130744.388000", "130744.391000", "130744.394000", "130744.398000", "130744.401000", "130744.405000", "130744.408000", "130744.411000", "130744.415000", "130744.418000", "130744.422000", "130744.425000", "130744.428000", "130744.432000", "130744.435000", "130744.439000", "130744.442000", "130744.445000", "130824.356000", "130824.360000", "130824.363000", "130824.367000", "130824.370000", "130824.374000", "130824.377000", "130824.381000", "130824.384000", "130824.387000", "130824.391000", "130824.394000", "130824.398000", "130824.401000", "130824.405000", "130824.408000", "130824.411000", "130824.415000", "130824.418000", "130824.422000", "130824.425000", "130824.428000", "130824.432000", "130824.435000", "130824.439000", "130824.442000", "130824.446000", "130904.356000", "130904.360000", "130904.363000", "130904.367000", "130904.370000", "130904.374000", "130904.377000", "130904.381000", "130904.384000", "130904.387000", "130904.391000", "130904.394000", "130904.398000", "130904.401000", "130904.405000", "130904.408000", "130904.412000", "130904.415000", "130904.418000", "130904.422000", "130904.425000", "130904.429000", "130904.432000", "130904.435000", "130904.439000", "130904.442000", "130904.446000", "130944.356000", "130944.360000", "130944.364000", "130944.367000", "130944.371000", "130944.374000", "130944.378000", "130944.381000", "130944.385000", "130944.388000", "130944.391000", "130944.395000", "130944.398000", "130944.402000", "130944.405000", "130944.408000", "130944.412000", "130944.415000", "130944.419000", "130944.422000", "130944.426000", "130944.429000", "130944.433000", "130944.436000", "130944.439000", "130944.443000", "130944.446000", "131024.356000", "131024.360000", "131024.364000", "131024.367000", "131024.370000", "131024.374000", "131024.377000", "131024.404000", "131024.408000", "131024.411000", "131024.414000", "131024.419000", "131024.423000", "131024.426000", "131024.429000", "131024.433000", "131024.437000", "131024.440000", "131024.443000", "131024.447000", "131024.451000", "131024.454000", "131024.457000", "131024.461000", "131024.464000", "131024.468000", "131104.357000", "131104.361000", "131104.365000", "131104.368000", "131104.372000", "131104.375000", "131104.378000", "131104.382000", "131104.386000", "131104.389000", "131104.392000", "131104.396000", "131104.399000", "131104.403000", "131104.406000", "131104.410000", "131104.413000", "131104.416000", "131104.420000", "131104.423000", "131104.426000", "131104.430000", "131104.433000", "131104.437000", "131104.440000", "131104.444000", "131104.447000", "131144.357000", "131144.360000", "131144.364000", "131144.367000", "131144.371000", "131144.374000", "131144.378000", "131144.381000", "131144.384000", "131144.388000", "131144.391000", "131144.395000", "131144.398000", "131144.401000", "131144.405000", "131144.408000", "131144.412000", "131144.415000", "131144.419000", "131144.422000", "131144.426000", "131144.429000", "131144.432000", "131144.436000", "131144.439000", "131144.443000", "131144.447000", "131224.356000", "131224.360000", "131224.364000", "131224.367000", "131224.370000", "131224.374000", "131224.377000", "131224.381000", "131224.384000", "131224.388000", "131224.391000", "131224.394000", "131224.398000", "131224.401000", "131224.405000", "131224.408000", "131224.412000", "131224.415000", "131224.419000", "131224.422000", "131224.435000", "131224.439000", "131224.442000", "131224.445000", "131224.449000", "131224.452000", "131224.456000", "131244.356000", "131244.360000", "131244.363000", "131244.367000", "131244.370000", "131244.374000", "131244.377000", "131244.381000", "131244.384000", "131244.391000", "131244.395000", "131244.398000", "131244.402000", "131324.357000", "131324.361000", "131324.365000", "131324.374000", "131324.378000", "131324.381000", "131324.384000", "131324.388000", "131324.392000", "131324.395000", "131324.398000", "131324.402000", "131324.405000", "131324.409000", "131324.412000", "131324.416000", "131324.419000", "131324.423000", "131324.426000", "131324.430000", "131324.433000", "131324.436000", "131324.440000", "131324.455000", "131324.458000", "131324.462000", "131324.465000", "131338.761000", "131338.765000", "131338.768000", "131338.783000", "131338.787000", "131338.790000", "131338.794000", "131338.798000", "131338.801000", "131338.805000"],
