{
  "AcquisitionMatrixPE": 104,
  "AcquisitionNumber": 1,
  "AcquisitionTime": "13:57:45.040000",
  "BandwidthPerPixelPhaseEncode": 17.17,
  "BaseResolution": 104,
  "BodyPartExamined": "BRAIN",
  "CoilCombinationMethod": "Sum of Squares",
  "ConsistencyInfo": "N4_VE11C_LATEST_20160120",
  "ConversionSoftware": "dcm2niix",
  "ConversionSoftwareVersion": "v1.0.20211006",
  "DerivedVendorReportedEchoSpacing": 0.000560011,
  "DeviceSerialNumber": "167006",
  "DwellTime": 2.1e-06,
  "EchoTime": 0.037,
  "EchoTrainLength": 104,
  "EffectiveEchoSpacing": 0.000560011,
  "FlipAngle": 52,
  "HeudiconvVersion": "0.10.0",
  "ImageComments": "Unaliased MB4/PE3/LB",
  "ImageOrientationPatientDICOM": [0.999772, 0.015895, 0.0142872, -0.00628182, 0.85751, -0.514428],
  "ImageOrientationText": "Tra>Cor(-31.0)>Sag(1.2)",
  "ImageType": [
    "ORIGINAL",
    "PRIMARY",
    "M",
    "MB",
    "ND",
    "MOSAIC"
],
  "ImagingFrequency": 123.259,
  "InPlanePhaseEncodingDirectionDICOM": "COL",
  "InstitutionAddress": "Chemin Queen-Mary 4565,Montreal,District,CA,H3W 1W5",
  "InstitutionName": "IUGM",
  "InstitutionalDepartmentName": "Department",
  "MRAcquisitionType": "2D",
  "MagneticFieldStrength": 3,
  "Manufacturer": "Siemens",
  "ManufacturersModelName": "Prisma_fit",
  "MatrixCoilMode": "SENSE",
  "Modality": "MR",
  "MultibandAccelerationFactor": 4,
  "PartialFourier": 1,
  "PatientPosition": "HFS",
  "PercentPhaseFOV": 100,
  "PercentSampling": 100,
  "PhaseEncodingDirection": "j",
  "PhaseEncodingSteps": 104,
  "PhaseResolution": 1,
  "PixelBandwidth": 2290,
  "ProcedureStepDescription": "games^mario",
  "ProtocolName": "func_task-mario_run-05",
  "PulseSequenceDetails": "%CustomerSeq%\\cmrr_mbep2d_bold",
  "ReceiveCoilActiveElements": "HC1-7;NC1,2",
  "ReceiveCoilName": "HeadNeck_64",
  "ReconMatrixPE": 104,
  "RepetitionTime": 1.49,
  "SAR": 0.0570451,
  "ScanOptions": "FS",
  "ScanningSequence": "EP",
  "SequenceName": "epfid2d1_104",
  "SequenceVariant": "SK\\SS",
  "SeriesDescription": "func_task-mario_run-05",
  "SeriesNumber": 22,
  "ShimSetting": [614, -7180, -8868, 257, 15, -157, -59, -27],
  "SliceThickness": 2,
  "SliceTiming": [0, 0.7825, 0.0975, 0.88, 0.195, 0.98, 0.2925, 1.0775, 0.39, 1.175, 0.49, 1.2725, 0.5875, 1.37, 0.685, 0, 0.7825, 0.0975, 0.88, 0.195, 0.98, 0.2925, 1.0775, 0.39, 1.175, 0.49, 1.2725, 0.5875, 1.37, 0.685, 0, 0.7825, 0.0975, 0.88, 0.195, 0.98, 0.2925, 1.0775, 0.39, 1.175, 0.49, 1.2725, 0.5875, 1.37, 0.685, 0, 0.7825, 0.0975, 0.88, 0.195, 0.98, 0.2925, 1.0775, 0.39, 1.175, 0.49, 1.2725, 0.5875, 1.37, 0.685],
  "SoftwareVersions": "syngo MR E11",
  "SpacingBetweenSlices": 2,
  "StationName": "MRC35049",
  "TaskName": "mario",
  "TotalReadoutTime": 0.0576811,
  "TxRefAmp": 288.97,
  "WipMemBlock": "6ccd4dbe-043a-4a67-8be8-7fa0df4237f5||Sequence: R016 ve11c/master r/e634e98; Dec 19 2017 11:00:25 by eja",
  "dcmmeta_affine": [
    [-1.9995431900024414, -0.012563642114400864, 0.04085645452141762, 106.79358673095703],
    [-0.03178996592760086, 1.7150206565856934, -1.0284422636032104, -48.779998779296875],
    [0.028574343770742416, 1.0288567543029785, 1.7148287296295166, -91.54207611083984],
    [0.0, 0.0, 0.0, 1.0]
],
  "dcmmeta_reorient_transform": [
    [0.0, -1.0, 0.0, 103.0],
    [1.0, 0.0, 0.0, 0.0],
    [0.0, 0.0, 1.0, 0.0],
    [0.0, 0.0, 0.0, 1.0]
],
  "dcmmeta_shape": [104, 104, 60, 442],
  "dcmmeta_slice_dim": 2,
  "dcmmeta_version": 0.6,
  "global": {
    "const": {
      "AcquisitionMatrix": [104, 0, 0, 104],
      "AngioFlag": "N",
      "BitsAllocated": 16,
      "BitsStored": 16,
      "BodyPartExamined": "BRAIN",
      "Columns": 832,
      "EchoNumbers": 1,
      "EchoTime": 37.0,
      "EchoTrainLength": 104,
      "FlipAngle": 52.0,
      "HighBit": 15,
      "ImageOrientationPatient": [0.99977158704096, 0.01589498275844, 0.0142871714734, -0.0062818210733, 0.85751035495248, -0.5144283525169],
      "ImagePositionPatient": [-828.76008192663, -763.70621903335, 378.5329441956],
      "ImageType": [
        "ORIGINAL",
        "PRIMARY",
        "M",
        "MB",
        "ND",
        "MOSAIC"
],
      "ImagedNucleus": "1H",
      "ImagingFrequency": 123.258904,
      "InPlanePhaseEncodingDirection": "COL",
      "MRAcquisitionType": "2D",
      "MagneticFieldStrength": 3.0,
      "Manufacturer": "SIEMENS",
      "ManufacturerModelName": "Prisma_fit",
      "Modality": "MR",
      "NumberOfAverages": 1.0,
      "NumberOfPhaseEncodingSteps": 104,
      "PercentPhaseFieldOfView": 100.0,
      "PercentSampling": 100.0,
      "PerformedProcedureStepStartTime": "124344.807000",
      "PhotometricInterpretation": "MONOCHROME2",
      "PixelBandwidth": 2290.0,
      "PixelRepresentation": 0,
      "PixelSpacing": [2.0, 2.0],
      "ProtocolName": "func_task-mario_run-05",
      "RepetitionTime": 1490.0,
      "Rows": 832,
      "SAR": 0.057045077582,
      "SamplesPerPixel": 1,
      "ScanOptions": "FS",
      "ScanningSequence": "EP",
      "SequenceName": "epfid2d1_104",
      "SequenceVariant": [
        "SK",
        "SS"
],
      "SeriesDescription": "func_task-mario_run-05",
      "SeriesNumber": 22,
      "SeriesTime": "135917.496000",
      "SliceLocation": -51.224179725521,
      "SliceThickness": 2.0,
      "SmallestImagePixelValue": 0,
      "SoftwareVersions": "syngo MR E11",
      "SpacingBetweenSlices": 2.0000000179982,
      "SpecificCharacterSet": "ISO_IR 100",
      "StudyID": "1",
      "StudyTime": "124344.710000",
      "TransmitCoilName": "Body",
      "VariableFlipAngleFlag": "N",
      "WindowCenterWidthExplanation": "Algo1",
      "dBdt": 0.0},
    "slices": {}
  },
  "time": {
    "samples": {
      "AcquisitionNumber": [1, 2, 3, 4, 5, 6, 7, 8, 9, 10, 11, 12, 13, 14, 15, 16, 17, 18, 19, 20, 21, 22, 23, 24, 25, 26, 27, 28, 29, 30, 31, 32, 33, 34, 35, 36, 37, 38, 39, 40, 41, 42, 43, 44, 45, 46, 47, 48, 49, 50, 51, 52, 53, 54, 55, 56, 57, 58, 59, 60, 61, 62, 63, 64, 65, 66, 67, 68, 69, 70, 71, 72, 73, 74, 75, 76, 77, 78, 79, 80, 81, 82, 83, 84, 85, 86, 87, 88, 89, 90, 91, 92, 93, 94, 95, 96, 97, 98, 99, 100, 101, 102, 103, 104, 105, 106, 107, 108, 109, 110, 111, 112, 113, 114, 115, 116, 117, 118, 119, 120, 121, 122, 123, 124, 125, 126, 127, 128, 129, 130, 131, 132, 133, 134, 135, 136, 137, 138, 139, 140, 141, 142, 143, 144, 145, 146, 147, 148, 149, 150, 151, 152, 153, 154, 155, 156, 157, 158, 159, 160, 161, 162, 163, 164, 165, 166, 167, 168, 169, 170, 171, 172, 173, 174, 175, 176, 177, 178, 179, 180, 181, 182, 183, 184, 185, 186, 187, 188, 189, 190, 191, 192, 193, 194, 195, 196, 197, 198, 199, 200, 201, 202, 203, 204, 205, 206, 207, 208, 209, 210, 211, 212, 213, 214, 215, 216, 217, 218, 219, 220, 221, 222, 223, 224, 225, 226, 227, 228, 229, 230, 231, 232, 233, 234, 235, 236, 237, 238, 239, 240, 241, 242, 243, 244, 245, 246, 247, 248, 249, 250, 251, 252, 253, 254, 255, 256, 257, 258, 259, 260, 261, 262, 263, 264, 265, 266, 267, 268, 269, 270, 271, 272, 273, 274, 275, 276, 277, 278, 279, 280, 281, 282, 283, 284, 285, 286, 287, 288, 289, 290, 291, 292, 293, 294, 295, 296, 297, 298, 299, 300, 301, 302, 303, 304, 305, 306, 307, 308, 309, 310, 311, 312, 313, 314, 315, 316, 317, 318, 319, 320, 321, 322, 323, 324, 325, 326, 327, 328, 329, 330, 331, 332, 333, 334, 335, 336, 337, 338, 339, 340, 341, 342, 343, 344, 345, 346, 347, 348, 349, 350, 351, 352, 353, 354, 355, 356, 357, 358, 359, 360, 361, 362, 363, 364, 365, 366, 367, 368, 369, 370, 371, 372, 373, 374, 375, 376, 377, 378, 379, 380, 381, 382, 383, 384, 385, 386, 387, 388, 389, 390, 391, 392, 393, 394, 395, 396, 397, 398, 399, 400, 401, 402, 403, 404, 405, 406, 407, 408, 409, 410, 411, 412, 413, 414, 415, 416, 417, 418, 419, 420, 421, 422, 423, 424, 425, 426, 427, 428, 429, 430, 431, 432, 433, 434, 435, 436, 437, 438, 439, 440, 441, 442],
      "AcquisitionTime": ["135745.040000", "135746.530000", "135748.020000", "135749.510000", "135751.000000", "135752.490000", "135753.980000", "135755.470000", "135756.960000", "135758.450000", "135759.940000", "135801.430000", "135802.920000", "135804.410000", "135805.900000", "135807.390000", "135808.880000", "135810.370000", "135811.860000", "135813.350000", "135814.840000", "135816.330000", "135817.820000", "135819.310000", "135820.800000", "135822.290000", "135823.780000", "135825.270000", "135826.760000", "135828.250000", "135829.740000", "135831.230000", "135832.720000", "135834.210000", "135835.700000", "135837.190000", "135838.680000", "135840.170000", "135841.660000", "135843.150000", "135844.640000", "135846.130000", "135847.620000", "135849.110000", "135850.600000", "135852.090000", "135853.580000", "135855.070000", "135856.560000", "135858.050000", "135859.540000", "135901.030000", "135902.520000", "135904.010000", "135905.500000", "135906.990000", "135908.480000", "135909.970000", "135911.460000", "135912.950000", "135914.440000", "135915.930000", "135917.420000", "135918.910000", "135920.400000", "135921.890000", "135923.380000", "135924.870000", "135926.360000", "135927.850000", "135929.340000", "135930.830000", "135932.320000", "135933.810000", "135935.300000", "135936.790000", "135938.280000", "135939.770000", "135941.260000", "135942.750000", "135944.240000", "135945.730000", "135947.220000", "135948.710000", "135950.200000", "135951.690000", "135953.180000", "135954.670000", "135956.160000", "135957.650000", "135959.140000", "140000.630000", "140002.120000", "140003.610000", "140005.100000", "140006.590000", "140008.080000", "140009.570000", "140011.060000", "140012.550000", "140014.040000", "140015.530000", "140017.020000", "140018.510000", "140020.000000", "140021.490000", "140022.980000", "140024.470000", "140025.960000", "140027.450000", "140028.940000", "140030.430000", "140031.920000", "140033.410000", "140034.900000", "140036.390000", "140037.880000", "140039.370000", "140040.860000", "140042.350000", "140043.840000", "140045.330000", "140046.820000", "140048.310000", "140049.800000", "140051.290000", "140052.780000", "140054.270000", "140055.760000", "140057.250000", "140058.740000", "140100.230000", "140101.720000", "140103.210000", "140104.700000", "140106.190000", "140107.680000", "140109.170000", "140110.660000", "140112.150000", "140113.640000", "140115.130000", "140116.620000", "140118.110000", "140119.600000", "140121.090000", "140122.580000", "140124.070000", "140125.560000", "140127.050000", "140128.540000", "140130.030000", "140131.520000", "140133.010000", "140134.500000", "140135.990000", "140137.480000", "140138.970000", "140140.460000", "140141.950000", "140143.440000", "140144.930000", "140146.420000", "140147.910000", "140149.400000", "140150.890000", "140152.380000", "140153.870000", "140155.360000", "140156.850000", "140158.340000", "140159.830000", "140201.320000", "140202.810000", "140204.300000", "140205.790000", "140207.280000", "140208.770000", "140210.260000", "140211.750000", "140213.240000", "140214.730000", "140216.220000", "140217.710000", "140219.200000", "140220.690000", "140222.180000", "140223.670000", "140225.160000", "140226.650000", "140228.140000", "140229.630000", "140231.120000", "140232.610000", "140234.100000", "140235.590000", "140237.080000", "140238.570000", "140240.060000", "140241.550000", "140243.040000", "140244.530000", "140246.020000", "140247.510000", "140249.000000", "140250.490000", "140251.980000", "140253.470000", "140254.960000", "140256.450000", "140257.940000", "140259.430000", "140300.920000", "140302.410000", "140303.900000", "140305.390000", "140306.880000", "140308.370000", "140309.860000", "140311.350000", "140312.840000", "140314.330000", "140315.820000", "140317.310000", "140318.800000", "140320.290000", "140321.780000", "140323.270000", "140324.760000", "140326.250000", "140327.740000", "140329.230000", "140330.720000", "140332.210000", "140333.700000", "140335.190000", "140336.680000", "140338.170000", "140339.660000", "140341.150000", "140342.640000", "140344.130000", "140345.620000", "140347.110000", "140348.600000", "140350.090000", "140351.580000", "140353.070000", "140354.560000", "140356.050000", "140357.540000", "140359.030000", "140400.520000", "140402.010000", "140403.500000", "140404.990000", "140406.480000", "140407.970000", "140409.460000", "140410.950000", "140412.440000", "140413.930000", "140415.420000", "140416.910000", "140418.400000", "140419.890000", "140421.380000", "140422.870000", "140424.360000", "140425.850000", "140427.340000", "140428.830000", "140430.320000", "140431.810000", "140433.300000", "140434.790000", "140436.280000", "140437.770000", "140439.260000", "140440.750000", "140442.240000", "140443.730000", "140445.220000", "140446.710000", "140448.200000", "140449.690000", "140451.180000", "140452.670000", "140454.160000", "140455.650000", "140457.140000", "140458.630000", "140500.120000", "140501.610000", "140503.100000", "140504.590000", "140506.080000", "140507.570000", "140509.060000", "140510.550000", "140512.040000", "140513.530000", "140515.020000", "140516.510000", "140518.000000", "140519.490000", "140520.980000", "140522.470000", "140523.960000", "140525.450000", "140526.940000", "140528.430000", "140529.920000", "140531.410000", "140532.900000", "140534.390000", "140535.880000", "140537.370000", "140538.860000", "140540.350000", "140541.840000", "140543.330000", "140544.820000", "140546.310000", "140547.800000", "140549.290000", "140550.780000", "140552.270000", "140553.760000", "140555.250000", "140556.740000", "140558.230000", "140559.720000", "140601.210000", "140602.700000", "140604.190000", "140605.680000", "140607.170000", "140608.660000", "140610.150000", "140611.640000", "140613.130000", "140614.620000", "140616.110000", "140617.600000", "140619.090000", "140620.580000", "140622.070000", "140623.560000", "140625.050000", "140626.540000", "140628.030000", "140629.520000", "140631.010000", "140632.500000", "140633.990000", "140635.480000", "140636.970000", "140638.460000", "140639.950000", "140641.440000", "140642.930000", "140644.420000", "140645.910000", "140647.400000", "140648.890000", "140650.380000", "140651.870000", "140653.360000", "140654.850000", "140656.340000", "140657.830000", "140659.320000", "140700.810000", "140702.300000", "140703.790000", "140705.280000", "140706.770000", "140708.260000", "140709.750000", "140711.240000", "140712.730000", "140714.220000", "140715.710000", "140717.200000", "140718.690000", "140720.180000", "140721.670000", "140723.160000", "140724.650000", "140726.140000", "140727.630000", "140729.120000", "140730.610000", "140732.100000", "140733.590000", "140735.080000", "140736.570000", "140738.060000", "140739.550000", "140741.040000", "140742.530000", "140744.020000", "140745.510000", "140747.000000", "140748.490000", "140749.980000", "140751.470000", "140752.960000", "140754.450000", "140755.940000", "140757.430000", "140758.920000", "140800.410000", "140801.900000", "140803.390000", "140804.880000", "140806.370000", "140807.860000", "140809.350000", "140810.840000", "140812.330000", "140813.820000", "140815.310000", "140816.800000", "140818.290000", "140819.780000", "140821.270000", "140822.760000", "140824.250000", "140825.740000", "140827.230000", "140828.720000", "140830.210000", "140831.700000", "140833.190000", "140834.680000", "140836.170000", "140837.660000", "140839.150000", "140840.640000", "140842.130000"],
      "ContentTime": ["135917.499000", "135917.503000", "135917.506000", "135917.509000", "135917.513000", "135917.516000", "135917.520000", "135917.523000", "135917.527000", "135917.530000", "135917.533000", "135917.537000", "135917.540000", "135917.544000", "135917.555000", "135917.558000", "135917.562000", "135917.565000", "135917.568000", "135917.572000", "135917.576000", "135917.579000", "135917.591000", "135917.595000", "135917.601000", "135917.605000", "135917.609000", "135917.613000", "135917.617000", "135917.620000", "135917.623000", "135917.627000", "135917.630000", "135917.634000", "135917.637000", "135917.640000", "135917.644000", "135917.647000", "135917.651000", "135937.463000", "135937.467000", "135937.470000", "135937.474000", "135937.477000", "135937.481000", "135937.484000", "135937.487000", "135937.491000", "135937.494000", "135937.498000", "135937.501000", "135937.505000", "135937.508000", "135937.511000", "135937.515000", "135937.518000", "135937.522000", "135937.525000", "135937.529000", "135937.532000", "135957.463000", "135957.467000", "135957.470000", "135957.474000", "135957.487000", "135957.491000", "135957.494000", "135957.498000", "135957.501000", "135957.504000", "135957.508000", "135957.511000", "135957.515000", "135957.518000", "135957.521000", "135957.525000", "135957.528000", "135957.532000", "135957.535000", "135957.538000", "140017.463000", "140017.467000", "140017.470000", "140017.474000", "140017.477000", "140017.481000", "140017.484000", "140017.488000", "140017.491000", "140017.494000", "140017.498000", "140017.501000", "140017.505000", "140017.508000", "140017.512000", "140017.515000", "140017.519000", "140017.522000", "140017.525000", "140017.529000", "140057.464000", "140057.468000", "140057.472000", "140057.475000", "140057.478000", "140057.482000", "140057.485000", "140057.489000", "140057.492000", "140057.496000", "140057.499000", "140057.502000", "140057.506000", "140057.509000", "140057.513000", "140057.516000", "140057.519000", "140057.523000", "140057.526000", "140057.530000", "140057.533000", "140057.537000", "140057.540000", "140057.543000", "140057.547000", "140057.550000", "140057.554000", "140057.557000", "140137.463000", "140137.467000", "140137.471000", "140137.474000", "140137.477000", "140137.481000", "140137.484000", "140137.488000", "140137.491000", "140137.495000", "140137.498000", "140137.501000", "140137.505000", "140137.508000", "140137.512000", "140137.515000", "140137.519000", "140137.522000", "140137.525000", "140137.529000", "140137.532000", "140137.536000", "140137.539000", "140137.542000", "140137.546000", "140137.549000", "140137.553000", "140217.463000", "140217.467000", "140217.470000", "140217.474000", "140217.477000", "140217.481000", "140217.484000", "140217.497000", "140217.501000", "140217.504000", "140217.508000", "140217.511000", "140217.514000", "140217.518000", "140217.521000", "140217.525000", "140217.528000", "140217.531000", "140217.535000", "140217.538000", "140217.542000", "140217.545000", "140217.549000", "140217.552000", "140217.556000", "140217.559000", "140217.563000", "140237.463000", "140237.467000", "140237.471000", "140237.474000", "140237.477000", "140237.481000", "140237.484000", "140237.488000", "140237.491000", "140237.495000", "140237.498000", "140237.502000", "140237.505000", "140317.464000", "140317.468000", "140317.472000", "140317.475000", "140317.478000", "140317.482000", "140317.485000", "140317.489000", "140317.492000", "140317.496000", "140317.499000", "140317.503000", "140317.506000", "140317.509000", "140317.513000", "140317.516000", "140317.520000", "140317.523000", "140317.526000", "140317.530000", "140317.533000", "140317.537000", "140317.540000", "140317.544000", "140317.547000", "140317.550000", "140317.554000", "140357.463000", "140357.467000", "140357.471000", "140357.474000", "140357.478000", "140357.481000", "140357.484000", "140357.488000", "140357.491000", "140357.495000", "140357.498000", "140357.502000", "140357.505000", "140357.509000", "140357.512000", "140357.516000", "140357.519000", "140357.523000", "140357.526000", "140357.530000", "140357.533000", "140357.537000", "140357.540000", "140357.544000", "140357.547000", "140357.550000", "140357.554000", "140437.463000", "140437.467000", "140437.471000", "140437.474000", "140437.478000", "140437.481000", "140437.485000", "140437.488000", "140437.491000", "140437.495000", "140437.498000", "140437.512000", "140437.516000", "140437.519000", "140437.522000", "140437.526000", "140437.529000", "140437.533000", "140437.536000", "140437.540000", "140437.543000", "140437.547000", "140437.550000", "140437.553000", "140437.557000", "140437.560000", "140437.564000", "140517.464000", "140517.468000", "140517.472000", "140517.475000", "140517.479000", "140517.482000", "140517.485000", "140517.489000", "140517.492000", "140517.496000", "140517.501000", "140517.505000", "140517.509000", "140517.513000", "140517.518000", "140517.522000", "140517.525000", "140517.529000", "140517.533000", "140517.537000", "140517.540000", "140517.544000", "140517.547000", "140517.551000", "140517.554000", "140517.558000", "140557.464000", "140557.468000", "140557.472000", "140557.475000", "140557.478000", "140557.482000", "140557.485000", "140557.489000", "140557.492000", "140557.495000", "140557.499000", "140557.502000", "140557.506000", "140557.509000", "140557.513000", "140557.516000", "140557.519000", "140557.529000", "140557.532000", "140557.536000", "140557.539000", "140557.542000", "140557.546000", "140557.549000", "140557.553000", "140557.556000", "140557.559000", "140637.463000", "140637.467000", "140637.471000", "140637.474000", "140637.478000", "140637.481000", "140637.484000", "140637.488000", "140637.491000", "140637.495000", "140637.498000", "140637.502000", "140637.505000", "140637.509000", "140637.512000", "140637.515000", "140637.519000", "140637.522000", "140637.526000", "140637.529000", "140637.533000", "140637.536000", "140637.540000", "140637.543000", "140637.560000", "140637.563000", "140637.567000", "140717.463000", "140717.467000", "140717.471000", "140717.474000", "140717.478000", "140717.481000", "140717.485000", "140717.488000", "140717.492000", "140717.495000", "140717.499000", "140717.502000", "140717.505000", "140717.509000", "140717.512000", "140717.516000", "140717.519000", "140717.523000", "140717.526000", "140717.530000", "140717.533000", "140717.537000", "140717.540000", "140717.543000", "140717.547000", "140717.550000", "140717.554000", "140757.465000", "140757.468000", "140757.472000", "140757.475000", "140757.478000", "140757.482000", "140757.485000", "140757.489000", "140757.492000", "140757.496000", "140757.499000", "140757.503000", "140757.506000", "140757.510000", "140757.513000", "140757.516000", "140757.520000", "140757.523000", "140757.527000", "140757.530000", "140757.534000", "140757.537000", "140757.540000", "140757.544000", "140757.547000", "140757.551000", "140757.554000", "140837.463000", "140837.467000", "140837.471000", "140837.474000", "140837.477000", "140837.481000", "140837.484000", "140837.488000", "140837.491000", "140837.495000", "140837.498000", "140837.502000", "140837.505000", "140837.508000", "140837.512000", "140837.515000", "140837.519000", "140837.522000", "140837.526000", "140837.529000", "140837.532000", "140837.536000", "140837.539000", "140837.543000", "140837.546000", "140837.550000", "140837.553000", "140844.933000", "140844.937000", "140844.940000", "140844.943000", "140844.947000"],
