{
  "AcquisitionMatrixPE": 104,
  "AcquisitionNumber": 1,
  "AcquisitionTime": "13:15:1.785000",
  "BandwidthPerPixelPhaseEncode": 17.17,
  "BaseResolution": 104,
  "BodyPartExamined": "BRAIN",
  "CoilCombinationMethod": "Sum of Squares",
  "ConsistencyInfo": "N4_VE11C_LATEST_20160120",
  "ConversionSoftware": "dcm2niix",
  "ConversionSoftwareVersion": "v1.0.20211006",
  "DerivedVendorReportedEchoSpacing": 0.000560011,
  "DeviceSerialNumber": "167006",
  "DwellTime": 2.1e-06,
  "EchoTime": 0.037,
  "EchoTrainLength": 104,
  "EffectiveEchoSpacing": 0.000560011,
  "FlipAngle": 52,
  "HeudiconvVersion": "0.10.0",
  "ImageComments": "Unaliased MB4/PE3/LB",
  "ImageOrientationPatientDICOM": [0.999772, 0.015895, 0.0142872, -0.00628182, 0.85751, -0.514428],
  "ImageOrientationText": "Tra>Cor(-31.0)>Sag(1.2)",
  "ImageType": [
    "ORIGINAL",
    "PRIMARY",
    "M",
    "MB",
    "ND",
    "MOSAIC"
],
  "ImagingFrequency": 123.259,
  "InPlanePhaseEncodingDirectionDICOM": "COL",
  "InstitutionAddress": "Chemin Queen-Mary 4565,Montreal,District,CA,H3W 1W5",
  "InstitutionName": "IUGM",
  "InstitutionalDepartmentName": "Department",
  "MRAcquisitionType": "2D",
  "MagneticFieldStrength": 3,
  "Manufacturer": "Siemens",
  "ManufacturersModelName": "Prisma_fit",
  "MatrixCoilMode": "SENSE",
  "Modality": "MR",
  "MultibandAccelerationFactor": 4,
  "PartialFourier": 1,
  "PatientPosition": "HFS",
  "PercentPhaseFOV": 100,
  "PercentSampling": 100,
  "PhaseEncodingDirection": "j",
  "PhaseEncodingSteps": 104,
  "PhaseResolution": 1,
  "PixelBandwidth": 2290,
  "ProcedureStepDescription": "games^mario",
  "ProtocolName": "func_task-mario_run-02",
  "PulseSequenceDetails": "%CustomerSeq%\\cmrr_mbep2d_bold",
  "ReceiveCoilActiveElements": "HC1-7;NC1,2",
  "ReceiveCoilName": "HeadNeck_64",
  "ReconMatrixPE": 104,
  "RepetitionTime": 1.49,
  "SAR": 0.0570451,
  "ScanOptions": "FS",
  "ScanningSequence": "EP",
  "SequenceName": "epfid2d1_104",
  "SequenceVariant": "SK\\SS",
  "SeriesDescription": "func_task-mario_run-02",
  "SeriesNumber": 13,
  "ShimSetting": [614, -7180, -8868, 257, 15, -157, -59, -27],
  "SliceThickness": 2,
  "SliceTiming": [0, 0.7825, 0.0975, 0.8825, 0.195, 0.98, 0.2925, 1.0775, 0.3925, 1.175, 0.49, 1.2725, 0.5875, 1.3725, 0.685, 0, 0.7825, 0.0975, 0.8825, 0.195, 0.98, 0.2925, 1.0775, 0.3925, 1.175, 0.49, 1.2725, 0.5875, 1.3725, 0.685, 0, 0.7825, 0.0975, 0.8825, 0.195, 0.98, 0.2925, 1.0775, 0.3925, 1.175, 0.49, 1.2725, 0.5875, 1.3725, 0.685, 0, 0.7825, 0.0975, 0.8825, 0.195, 0.98, 0.2925, 1.0775, 0.3925, 1.175, 0.49, 1.2725, 0.5875, 1.3725, 0.685],
  "SoftwareVersions": "syngo MR E11",
  "SpacingBetweenSlices": 2,
  "StationName": "MRC35049",
  "TaskName": "mario",
  "TotalReadoutTime": 0.0576811,
  "TxRefAmp": 288.97,
  "WipMemBlock": "0555e3cc-3cdd-4155-9c08-3dc95e7a93d4||Sequence: R016 ve11c/master r/e634e98; Dec 19 2017 11:00:25 by eja",
  "dcmmeta_affine": [
    [-1.9995431900024414, -0.012563642114400864, 0.04085645452141762, 106.79358673095703],
    [-0.03178996592760086, 1.7150206565856934, -1.0284422636032104, -48.779998779296875],
    [0.028574343770742416, 1.0288567543029785, 1.7148287296295166, -91.54207611083984],
    [0.0, 0.0, 0.0, 1.0]
],
  "dcmmeta_reorient_transform": [
    [0.0, -1.0, 0.0, 103.0],
    [1.0, 0.0, 0.0, 0.0],
    [0.0, 0.0, 1.0, 0.0],
    [0.0, 0.0, 0.0, 1.0]
],
  "dcmmeta_shape": [104, 104, 60, 474],
  "dcmmeta_slice_dim": 2,
  "dcmmeta_version": 0.6,
  "global": {
    "const": {
      "AcquisitionMatrix": [104, 0, 0, 104],
      "AngioFlag": "N",
      "BitsAllocated": 16,
      "BitsStored": 16,
      "BodyPartExamined": "BRAIN",
      "Columns": 832,
      "EchoNumbers": 1,
      "EchoTime": 37.0,
      "EchoTrainLength": 104,
      "FlipAngle": 52.0,
      "HighBit": 15,
      "ImageOrientationPatient": [0.99977158704096, 0.01589498275844, 0.0142871714734, -0.0062818210733, 0.85751035495248, -0.5144283525169],
      "ImagePositionPatient": [-828.76008192663, -763.70621903335, 378.5329441956],
      "ImageType": [
        "ORIGINAL",
        "PRIMARY",
        "M",
        "MB",
        "ND",
        "MOSAIC"
],
      "ImagedNucleus": "1H",
      "ImagingFrequency": 123.258891,
      "InPlanePhaseEncodingDirection": "COL",
      "MRAcquisitionType": "2D",
      "MagneticFieldStrength": 3.0,
      "Manufacturer": "SIEMENS",
      "ManufacturerModelName": "Prisma_fit",
      "Modality": "MR",
      "NumberOfAverages": 1.0,
      "NumberOfPhaseEncodingSteps": 104,
      "PercentPhaseFieldOfView": 100.0,
      "PercentSampling": 100.0,
      "PerformedProcedureStepStartTime": "124344.807000",
      "PhotometricInterpretation": "MONOCHROME2",
      "PixelBandwidth": 2290.0,
      "PixelRepresentation": 0,
      "PixelSpacing": [2.0, 2.0],
      "ProtocolName": "func_task-mario_run-02",
      "RepetitionTime": 1490.0,
      "Rows": 832,
      "SAR": 0.057045077582,
      "SamplesPerPixel": 1,
      "ScanOptions": "FS",
      "ScanningSequence": "EP",
      "SequenceName": "epfid2d1_104",
      "SequenceVariant": [
        "SK",
        "SS"
],
      "SeriesDescription": "func_task-mario_run-02",
      "SeriesNumber": 13,
      "SeriesTime": "131617.528000",
      "SliceLocation": -51.224179725521,
      "SliceThickness": 2.0,
      "SmallestImagePixelValue": 0,
      "SoftwareVersions": "syngo MR E11",
      "SpacingBetweenSlices": 2.0000000179982,
      "SpecificCharacterSet": "ISO_IR 100",
      "StudyID": "1",
      "StudyTime": "124344.710000",
      "TransmitCoilName": "Body",
      "VariableFlipAngleFlag": "N",
      "WindowCenterWidthExplanation": "Algo1",
      "dBdt": 0.0},
    "slices": {}
  },
  "time": {
    "samples": {
      "AcquisitionNumber": [1, 2, 3, 4, 5, 6, 7, 8, 9, 10, 11, 12, 13, 14, 15, 16, 17, 18, 19, 20, 21, 22, 23, 24, 25, 26, 27, 28, 29, 30, 31, 32, 33, 34, 35, 36, 37, 38, 39, 40, 41, 42, 43, 44, 45, 46, 47, 48, 49, 50, 51, 52, 53, 54, 55, 56, 57, 58, 59, 60, 61, 62, 63, 64, 65, 66, 67, 68, 69, 70, 71, 72, 73, 74, 75, 76, 77, 78, 79, 80, 81, 82, 83, 84, 85, 86, 87, 88, 89, 90, 91, 92, 93, 94, 95, 96, 97, 98, 99, 100, 101, 102, 103, 104, 105, 106, 107, 108, 109, 110, 111, 112, 113, 114, 115, 116, 117, 118, 119, 120, 121, 122, 123, 124, 125, 126, 127, 128, 129, 130, 131, 132, 133, 134, 135, 136, 137, 138, 139, 140, 141, 142, 143, 144, 145, 146, 147, 148, 149, 150, 151, 152, 153, 154, 155, 156, 157, 158, 159, 160, 161, 162, 163, 164, 165, 166, 167, 168, 169, 170, 171, 172, 173, 174, 175, 176, 177, 178, 179, 180, 181, 182, 183, 184, 185, 186, 187, 188, 189, 190, 191, 192, 193, 194, 195, 196, 197, 198, 199, 200, 201, 202, 203, 204, 205, 206, 207, 208, 209, 210, 211, 212, 213, 214, 215, 216, 217, 218, 219, 220, 221, 222, 223, 224, 225, 226, 227, 228, 229, 230, 231, 232, 233, 234, 235, 236, 237, 238, 239, 240, 241, 242, 243, 244, 245, 246, 247, 248, 249, 250, 251, 252, 253, 254, 255, 256, 257, 258, 259, 260, 261, 262, 263, 264, 265, 266, 267, 268, 269, 270, 271, 272, 273, 274, 275, 276, 277, 278, 279, 280, 281, 282, 283, 284, 285, 286, 287, 288, 289, 290, 291, 292, 293, 294, 295, 296, 297, 298, 299, 300, 301, 302, 303, 304, 305, 306, 307, 308, 309, 310, 311, 312, 313, 314, 315, 316, 317, 318, 319, 320, 321, 322, 323, 324, 325, 326, 327, 328, 329, 330, 331, 332, 333, 334, 335, 336, 337, 338, 339, 340, 341, 342, 343, 344, 345, 346, 347, 348, 349, 350, 351, 352, 353, 354, 355, 356, 357, 358, 359, 360, 361, 362, 363, 364, 365, 366, 367, 368, 369, 370, 371, 372, 373, 374, 375, 376, 377, 378, 379, 380, 381, 382, 383, 384, 385, 386, 387, 388, 389, 390, 391, 392, 393, 394, 395, 396, 397, 398, 399, 400, 401, 402, 403, 404, 405, 406, 407, 408, 409, 410, 411, 412, 413, 414, 415, 416, 417, 418, 419, 420, 421, 422, 423, 424, 425, 426, 427, 428, 429, 430, 431, 432, 433, 434, 435, 436, 437, 438, 439, 440, 441, 442, 443, 444, 445, 446, 447, 448, 449, 450, 451, 452, 453, 454, 455, 456, 457, 458, 459, 460, 461, 462, 463, 464, 465, 466, 467, 468, 469, 470, 471, 472, 473, 474],
      "AcquisitionTime": ["131501.785000", "131503.275000", "131504.765000", "131506.255000", "131507.745000", "131509.235000", "131510.725000", "131512.215000", "131513.705000", "131515.195000", "131516.685000", "131518.175000", "131519.665000", "131521.155000", "131522.645000", "131524.135000", "131525.625000", "131527.115000", "131528.605000", "131530.095000", "131531.585000", "131533.075000", "131534.565000", "131536.055000", "131537.545000", "131539.035000", "131540.525000", "131542.015000", "131543.505000", "131544.995000", "131546.485000", "131547.975000", "131549.465000", "131550.955000", "131552.445000", "131553.935000", "131555.425000", "131556.915000", "131558.405000", "131559.895000", "131601.385000", "131602.875000", "131604.365000", "131605.855000", "131607.345000", "131608.835000", "131610.325000", "131611.815000", "131613.305000", "131614.795000", "131616.285000", "131617.775000", "131619.265000", "131620.755000", "131622.245000", "131623.735000", "131625.225000", "131626.715000", "131628.205000", "131629.695000", "131631.185000", "131632.675000", "131634.165000", "131635.655000", "131637.145000", "131638.635000", "131640.125000", "131641.615000", "131643.105000", "131644.595000", "131646.085000", "131647.575000", "131649.065000", "131650.555000", "131652.045000", "131653.535000", "131655.025000", "131656.515000", "131658.005000", "131659.495000", "131700.985000", "131702.475000", "131703.965000", "131705.455000", "131706.945000", "131708.435000", "131709.925000", "131711.415000", "131712.905000", "131714.395000", "131715.885000", "131717.375000", "131718.865000", "131720.355000", "131721.845000", "131723.335000", "131724.825000", "131726.315000", "131727.805000", "131729.295000", "131730.785000", "131732.275000", "131733.765000", "131735.255000", "131736.745000", "131738.235000", "131739.725000", "131741.215000", "131742.705000", "131744.195000", "131745.685000", "131747.175000", "131748.665000", "131750.155000", "131751.645000", "131753.135000", "131754.625000", "131756.115000", "131757.605000", "131759.095000", "131800.585000", "131802.075000", "131803.565000", "131805.055000", "131806.545000", "131808.035000", "131809.525000", "131811.015000", "131812.505000", "131813.995000", "131815.485000", "131816.975000", "131818.465000", "131819.955000", "131821.445000", "131822.935000", "131824.425000", "131825.915000", "131827.405000", "131828.895000", "131830.385000", "131831.875000", "131833.365000", "131834.855000", "131836.345000", "131837.835000", "131839.325000", "131840.815000", "131842.305000", "131843.795000", "131845.285000", "131846.775000", "131848.265000", "131849.755000", "131851.245000", "131852.735000", "131854.225000", "131855.715000", "131857.205000", "131858.695000", "131900.185000", "131901.675000", "131903.165000", "131904.655000", "131906.145000", "131907.635000", "131909.125000", "131910.615000", "131912.105000", "131913.595000", "131915.085000", "131916.575000", "131918.065000", "131919.555000", "131921.045000", "131922.535000", "131924.025000", "131925.515000", "131927.005000", "131928.495000", "131929.985000", "131931.475000", "131932.965000", "131934.455000", "131935.945000", "131937.435000", "131938.925000", "131940.415000", "131941.905000", "131943.395000", "131944.885000", "131946.375000", "131947.865000", "131949.355000", "131950.845000", "131952.335000", "131953.825000", "131955.315000", "131956.805000", "131958.295000", "131959.785000", "132001.275000", "132002.765000", "132004.255000", "132005.745000", "132007.235000", "132008.725000", "132010.215000", "132011.705000", "132013.195000", "132014.685000", "132016.175000", "132017.665000", "132019.155000", "132020.645000", "132022.135000", "132023.625000", "132025.115000", "132026.605000", "132028.095000", "132029.585000", "132031.075000", "132032.565000", "132034.055000", "132035.545000", "132037.035000", "132038.525000", "132040.015000", "132041.505000", "132042.995000", "132044.485000", "132045.975000", "132047.465000", "132048.955000", "132050.445000", "132051.935000", "132053.425000", "132054.915000", "132056.405000", "132057.895000", "132059.385000", "132100.875000", "132102.365000", "132103.855000", "132105.345000", "132106.835000", "132108.325000", "132109.815000", "132111.305000", "132112.795000", "132114.285000", "132115.775000", "132117.265000", "132118.755000", "132120.245000", "132121.735000", "132123.225000", "132124.715000", "132126.205000", "132127.695000", "132129.185000", "132130.675000", "132132.165000", "132133.655000", "132135.145000", "132136.635000", "132138.125000", "132139.615000", "132141.105000", "132142.595000", "132144.085000", "132145.575000", "132147.065000", "132148.555000", "132150.045000", "132151.535000", "132153.025000", "132154.515000", "132156.005000", "132157.495000", "132158.985000", "132200.475000", "132201.965000", "132203.455000", "132204.945000", "132206.435000", "132207.925000", "132209.415000", "132210.905000", "132212.395000", "132213.885000", "132215.375000", "132216.865000", "132218.355000", "132219.845000", "132221.335000", "132222.825000", "132224.315000", "132225.805000", "132227.295000", "132228.785000", "132230.275000", "132231.765000", "132233.255000", "132234.745000", "132236.235000", "132237.725000", "132239.215000", "132240.705000", "132242.195000", "132243.685000", "132245.175000", "132246.665000", "132248.155000", "132249.645000", "132251.135000", "132252.625000", "132254.115000", "132255.605000", "132257.095000", "132258.585000", "132300.075000", "132301.565000", "132303.055000", "132304.545000", "132306.035000", "132307.525000", "132309.015000", "132310.505000", "132311.995000", "132313.485000", "132314.975000", "132316.465000", "132317.955000", "132319.445000", "132320.935000", "132322.425000", "132323.915000", "132325.405000", "132326.895000", "132328.385000", "132329.875000", "132331.365000", "132332.855000", "132334.345000", "132335.835000", "132337.325000", "132338.815000", "132340.305000", "132341.795000", "132343.285000", "132344.775000", "132346.265000", "132347.755000", "132349.245000", "132350.735000", "132352.225000", "132353.715000", "132355.205000", "132356.695000", "132358.185000", "132359.675000", "132401.165000", "132402.655000", "132404.145000", "132405.635000", "132407.125000", "132408.615000", "132410.105000", "132411.595000", "132413.085000", "132414.575000", "132416.065000", "132417.555000", "132419.045000", "132420.535000", "132422.025000", "132423.515000", "132425.005000", "132426.495000", "132427.985000", "132429.475000", "132430.965000", "132432.455000", "132433.945000", "132435.435000", "132436.925000", "132438.415000", "132439.905000", "132441.395000", "132442.885000", "132444.375000", "132445.865000", "132447.355000", "132448.845000", "132450.335000", "132451.825000", "132453.315000", "132454.805000", "132456.295000", "132457.785000", "132459.275000", "132500.765000", "132502.255000", "132503.745000", "132505.235000", "132506.725000", "132508.215000", "132509.705000", "132511.195000", "132512.685000", "132514.175000", "132515.665000", "132517.155000", "132518.645000", "132520.135000", "132521.625000", "132523.115000", "132524.605000", "132526.095000", "132527.585000", "132529.075000", "132530.565000", "132532.055000", "132533.545000", "132535.035000", "132536.525000", "132538.015000", "132539.505000", "132540.995000", "132542.485000", "132543.975000", "132545.465000", "132546.955000", "132548.445000", "132549.935000", "132551.425000", "132552.915000", "132554.405000", "132555.895000", "132557.385000", "132558.875000", "132600.365000", "132601.855000", "132603.345000", "132604.835000", "132606.325000", "132607.815000", "132609.305000", "132610.795000", "132612.285000", "132613.775000", "132615.265000", "132616.755000", "132618.245000", "132619.735000", "132621.225000", "132622.715000", "132624.205000", "132625.695000", "132627.185000", "132628.675000", "132630.165000", "132631.655000", "132633.145000", "132634.635000", "132636.125000", "132637.615000", "132639.105000", "132640.595000", "132642.085000", "132643.575000", "132645.065000", "132646.555000"],
      "ContentTime": ["131617.531000", "131617.540000", "131617.543000", "131617.547000", "131617.550000", "131617.554000", "131617.557000", "131617.560000", "131617.564000", "131617.567000", "131617.571000", "131617.574000", "131617.578000", "131617.581000", "131617.584000", "131617.588000", "131617.591000", "131617.595000", "131617.598000", "131617.601000", "131617.605000", "131617.621000", "131617.624000", "131637.464000", "131637.468000", "131637.471000", "131637.475000", "131637.478000", "131637.481000", "131637.485000", "131637.488000", "131637.492000", "131637.495000", "131637.499000", "131637.502000", "131637.505000", "131637.509000", "131637.513000", "131637.516000", "131637.519000", "131637.523000", "131637.526000", "131637.530000", "131657.464000", "131657.468000", "131657.472000", "131657.475000", "131657.479000", "131657.482000", "131657.486000", "131657.489000", "131657.492000", "131657.496000", "131657.499000", "131657.503000", "131657.506000", "131657.509000", "131657.513000", "131657.516000", "131657.520000", "131657.523000", "131657.527000", "131657.530000", "131657.534000", "131717.464000", "131717.474000", "131717.478000", "131717.481000", "131717.485000", "131717.488000", "131717.491000", "131717.495000", "131717.498000", "131717.502000", "131717.505000", "131717.509000", "131717.512000", "131717.515000", "131717.519000", "131717.522000", "131717.526000", "131717.529000", "131717.533000", "131717.536000", "131737.464000", "131737.467000", "131737.471000", "131737.474000", "131737.478000", "131737.481000", "131737.485000", "131737.488000", "131737.492000", "131737.495000", "131737.498000", "131737.502000", "131737.505000", "131737.509000", "131737.512000", "131737.516000", "131737.519000", "131737.522000", "131737.526000", "131737.529000", "131817.463000", "131817.467000", "131817.470000", "131817.474000", "131817.477000", "131817.481000", "131817.484000", "131817.488000", "131817.491000", "131817.495000", "131817.498000", "131817.502000", "131817.505000", "131817.523000", "131817.526000", "131817.530000", "131817.533000", "131817.536000", "131817.540000", "131817.543000", "131817.547000", "131817.550000", "131817.554000", "131817.557000", "131817.561000", "131817.564000", "131817.568000", "131857.464000", "131857.468000", "131857.472000", "131857.475000", "131857.479000", "131857.482000", "131857.486000", "131857.489000", "131857.493000", "131857.496000", "131857.500000", "131857.503000", "131857.507000", "131857.510000", "131857.514000", "131857.517000", "131857.520000", "131857.524000", "131857.527000", "131857.531000", "131857.534000", "131857.538000", "131857.541000", "131857.544000", "131857.548000", "131857.551000", "131857.555000", "131937.464000", "131937.468000", "131937.472000", "131937.475000", "131937.479000", "131937.482000", "131937.486000", "131937.489000", "131937.493000", "131937.496000", "131937.499000", "131937.503000", "131937.507000", "131937.510000", "131937.513000", "131937.517000", "131937.520000", "131937.524000", "131937.527000", "131937.531000", "131937.534000", "131937.538000", "131937.541000", "131937.545000", "131937.548000", "131937.551000", "132017.463000", "132017.467000", "132017.471000", "132017.474000", "132017.478000", "132017.481000", "132017.485000", "132017.488000", "132017.491000", "132017.495000", "132017.498000", "132017.518000", "132017.522000", "132017.525000", "132017.528000", "132017.532000", "132017.535000", "132017.539000", "132017.542000", "132017.546000", "132017.550000", "132017.553000", "132017.556000", "132017.560000", "132017.563000", "132017.567000", "132017.570000", "132057.463000", "132057.467000", "132057.471000", "132057.486000", "132057.490000", "132057.493000", "132057.497000", "132057.500000", "132057.504000", "132057.507000", "132057.510000", "132057.514000", "132057.517000", "132057.521000", "132057.524000", "132057.527000", "132057.531000", "132057.534000", "132057.538000", "132057.541000", "132057.545000", "132057.548000", "132057.551000", "132057.555000", "132057.558000", "132057.562000", "132057.565000", "132137.464000", "132137.468000", "132137.472000", "132137.475000", "132137.478000", "132137.482000", "132137.485000", "132137.489000", "132137.492000", "132137.496000", "132137.499000", "132137.502000", "132137.506000", "132137.509000", "132137.513000", "132137.516000", "132137.520000", "132137.523000", "132137.526000", "132137.530000", "132137.533000", "132137.537000", "132137.540000", "132137.543000", "132137.547000", "132137.560000", "132137.564000", "132217.464000", "132217.467000", "132217.471000", "132217.474000", "132217.478000", "132217.481000", "132217.485000", "132217.488000", "132217.492000", "132217.495000", "132217.498000", "132217.502000", "132217.505000", "132217.509000", "132217.512000", "132217.516000", "132217.519000", "132217.523000", "132217.526000", "132217.529000", "132217.533000", "132217.536000", "132217.540000", "132217.543000", "132217.547000", "132217.550000", "132217.554000", "132237.464000", "132237.467000", "132237.471000", "132237.474000", "132237.478000", "132237.481000", "132237.485000", "132237.488000", "132237.492000", "132237.495000", "132237.499000", "132237.502000", "132237.505000", "132317.463000", "132317.467000", "132317.471000", "132317.474000", "132317.478000", "132317.481000", "132317.484000", "132317.488000", "132317.491000", "132317.495000", "132317.498000", "132317.502000", "132317.505000", "132317.509000", "132317.512000", "132317.515000", "132317.519000", "132317.522000", "132317.526000", "132317.530000", "132317.533000", "132317.537000", "132317.540000", "132317.544000", "132317.547000", "132317.550000", "132317.554000", "132357.464000", "132357.468000", "132357.472000", "132357.475000", "132357.478000", "132357.482000", "132357.485000", "132357.489000", "132357.492000", "132357.496000", "132357.499000", "132357.503000", "132357.506000", "132357.510000", "132357.513000", "132357.516000", "132357.520000", "132357.523000", "132357.527000", "132357.530000", "132357.533000", "132357.537000", "132357.540000", "132357.544000", "132357.547000", "132357.551000", "132357.554000", "132437.464000", "132437.468000", "132437.472000", "132437.475000", "132437.479000", "132437.483000", "132437.486000", "132437.490000", "132437.493000", "132437.497000", "132437.501000", "132437.504000", "132437.509000", "132437.513000", "132437.517000", "132437.520000", "132437.524000", "132437.527000", "132437.531000", "132437.534000", "132437.538000", "132437.541000", "132437.545000", "132437.548000", "132437.552000", "132437.555000", "132437.559000", "132517.463000", "132517.467000", "132517.471000", "132517.474000", "132517.478000", "132517.481000", "132517.484000", "132517.488000", "132517.491000", "132517.495000", "132517.498000", "132517.516000", "132517.519000", "132517.522000", "132517.526000", "132517.529000", "132517.533000", "132517.536000", "132517.540000", "132517.543000", "132517.546000", "132517.550000", "132517.553000", "132517.557000", "132517.560000", "132517.563000", "132517.567000", "132557.464000", "132557.468000", "132557.472000", "132557.475000", "132557.479000", "132557.482000", "132557.486000", "132557.489000", "132557.492000", "132557.496000", "132557.500000", "132557.503000", "132557.506000", "132557.510000", "132557.514000", "132557.519000", "132557.523000", "132557.527000", "132557.531000", "132557.535000", "132557.538000", "132557.542000", "132557.546000", "132557.550000", "132557.553000", "132557.556000", "132637.464000", "132637.467000", "132637.471000", "132637.474000", "132637.478000", "132637.481000", "132637.485000", "132637.488000", "132637.491000", "132637.495000", "132637.498000", "132637.502000", "132637.505000", "132637.508000", "132637.512000", "132637.515000", "132637.519000", "132637.522000", "132637.526000", "132637.529000", "132637.532000", "132637.536000", "132637.539000", "132637.543000", "132637.546000", "132637.549000", "132637.553000", "132648.715000", "132648.718000", "132648.722000", "132648.725000", "132648.729000", "132648.732000", "132648.736000", "132648.739000"],
