{
  "AcquisitionMatrixPE": 104,
  "AcquisitionNumber": 1,
  "AcquisitionTime": "13:28:15.640000",
  "BandwidthPerPixelPhaseEncode": 17.17,
  "BaseResolution": 104,
  "BodyPartExamined": "BRAIN",
  "CoilCombinationMethod": "Sum of Squares",
  "ConsistencyInfo": "N4_VE11C_LATEST_20160120",
  "ConversionSoftware": "dcm2niix",
  "ConversionSoftwareVersion": "v1.0.20211006",
  "DerivedVendorReportedEchoSpacing": 0.000560011,
  "DeviceSerialNumber": "167006",
  "DwellTime": 2.1e-06,
  "EchoTime": 0.037,
  "EchoTime1": 0.037,
  "EchoTime2": 0.001,
  "EchoTrainLength": 104,
  "EffectiveEchoSpacing": 0.000560011,
  "FlipAngle": 52,
  "HeudiconvVersion": "0.10.0",
  "ImageComments": "Unaliased MB4/PE3/LB",
  "ImageOrientationPatientDICOM": [0.999772, 0.015895, 0.0142872, -0.00628182, 0.85751, -0.514428],
  "ImageOrientationText": "Tra>Cor(-31.0)>Sag(1.2)",
  "ImageType": [
    "ORIGINAL",
    "PRIMARY",
    "P",
    "MB",
    "ND",
    "MOSAIC",
    "PHASE"
],
  "ImagingFrequency": 123.259,
  "InPlanePhaseEncodingDirectionDICOM": "COL",
  "InstitutionAddress": "Chemin Queen-Mary 4565,Montreal,District,CA,H3W 1W5",
  "InstitutionName": "IUGM",
  "InstitutionalDepartmentName": "Department",
  "MRAcquisitionType": "2D",
  "MagneticFieldStrength": 3,
  "Manufacturer": "Siemens",
  "ManufacturersModelName": "Prisma_fit",
  "MatrixCoilMode": "SENSE",
  "Modality": "MR",
  "MultibandAccelerationFactor": 4,
  "PartialFourier": 1,
  "PatientPosition": "HFS",
  "PercentPhaseFOV": 100,
  "PercentSampling": 100,
  "PhaseEncodingDirection": "j",
  "PhaseEncodingSteps": 104,
  "PhaseResolution": 1,
  "PixelBandwidth": 2290,
  "ProcedureStepDescription": "games^mario",
  "ProtocolName": "func_task-mario_run-03",
  "PulseSequenceDetails": "%CustomerSeq%\\cmrr_mbep2d_bold",
  "ReceiveCoilActiveElements": "HC1-7;NC1,2",
  "ReceiveCoilName": "HeadNeck_64",
  "ReconMatrixPE": 104,
  "RepetitionTime": 1.49,
  "SAR": 0.0570451,
  "ScanOptions": "FS",
  "ScanningSequence": "EP",
  "SequenceName": "epfid2d1_104",
  "SequenceVariant": "SK\\SS",
  "SeriesDescription": "func_task-mario_run-03",
  "SeriesNumber": 17,
  "ShimSetting": [614, -7180, -8868, 257, 15, -157, -59, -27],
  "SliceThickness": 2,
  "SliceTiming": [0, 0.7825, 0.0975, 0.88, 0.195, 0.9775, 0.2925, 1.0775, 0.39, 1.175, 0.4875, 1.2725, 0.5875, 1.37, 0.685, 0, 0.7825, 0.0975, 0.88, 0.195, 0.9775, 0.2925, 1.0775, 0.39, 1.175, 0.4875, 1.2725, 0.5875, 1.37, 0.685, 0, 0.7825, 0.0975, 0.88, 0.195, 0.9775, 0.2925, 1.0775, 0.39, 1.175, 0.4875, 1.2725, 0.5875, 1.37, 0.685, 0, 0.7825, 0.0975, 0.88, 0.195, 0.9775, 0.2925, 1.0775, 0.39, 1.175, 0.4875, 1.2725, 0.5875, 1.37, 0.685],
  "SoftwareVersions": "syngo MR E11",
  "SpacingBetweenSlices": 2,
  "StationName": "MRC35049",
  "TaskName": "mario",
  "TotalReadoutTime": 0.0576811,
  "TxRefAmp": 288.97,
  "WipMemBlock": "f72fb592-d6d7-4880-90d1-50027e23ec45||Sequence: R016 ve11c/master r/e634e98; Dec 19 2017 11:00:25 by eja",
  "dcmmeta_affine": [
    [-1.9995431900024414, -0.012563642114400864, 0.04085645452141762, 106.79358673095703],
    [-0.03178996592760086, 1.7150206565856934, -1.0284422636032104, -48.779998779296875],
    [0.028574343770742416, 1.0288567543029785, 1.7148287296295166, -91.54207611083984],
    [0.0, 0.0, 0.0, 1.0]
],
  "dcmmeta_reorient_transform": [
    [0.0, -1.0, 0.0, 103.0],
    [1.0, 0.0, 0.0, 0.0],
    [0.0, 0.0, 1.0, 0.0],
    [0.0, 0.0, 0.0, 1.0]
],
  "dcmmeta_shape": [104, 104, 60, 506],
  "dcmmeta_slice_dim": 2,
  "dcmmeta_version": 0.6,
  "global": {
    "const": {
      "AcquisitionMatrix": [104, 0, 0, 104],
      "AngioFlag": "N",
      "BitsAllocated": 16,
      "BitsStored": 16,
      "BodyPartExamined": "BRAIN",
      "Columns": 832,
      "EchoNumbers": 1,
      "EchoTime": 37.0,
      "EchoTrainLength": 104,
      "FlipAngle": 52.0,
      "HighBit": 15,
      "ImageOrientationPatient": [0.99977158704096, 0.01589498275844, 0.0142871714734, -0.0062818210733, 0.85751035495248, -0.5144283525169],
      "ImagePositionPatient": [-828.76008192663, -763.70621903335, 378.5329441956],
      "ImageType": [
        "ORIGINAL",
        "PRIMARY",
        "P",
        "MB",
        "ND",
        "MOSAIC"
],
      "ImagedNucleus": "1H",
      "ImagingFrequency": 123.258896,
      "InPlanePhaseEncodingDirection": "COL",
      "LargestImagePixelValue": 4095,
      "MRAcquisitionType": "2D",
      "MagneticFieldStrength": 3.0,
      "Manufacturer": "SIEMENS",
      "ManufacturerModelName": "Prisma_fit",
      "Modality": "MR",
      "NumberOfAverages": 1.0,
      "NumberOfPhaseEncodingSteps": 104,
      "PercentPhaseFieldOfView": 100.0,
      "PercentSampling": 100.0,
      "PerformedProcedureStepStartTime": "124344.807000",
      "PhotometricInterpretation": "MONOCHROME2",
      "PixelBandwidth": 2290.0,
      "PixelRepresentation": 0,
      "PixelSpacing": [2.0, 2.0],
      "ProtocolName": "func_task-mario_run-03",
      "RepetitionTime": 1490.0,
      "RescaleIntercept": -4096.0,
      "RescaleSlope": 2.0,
      "RescaleType": "US",
      "Rows": 832,
      "SAR": 0.057045077582,
      "SamplesPerPixel": 1,
      "ScanOptions": "FS",
      "ScanningSequence": "EP",
      "SequenceName": "epfid2d1_104",
      "SequenceVariant": [
        "SK",
        "SS"
],
      "SeriesDescription": "func_task-mario_run-03",
      "SeriesNumber": 17,
      "SeriesTime": "132945.664000",
      "SliceLocation": -51.224179725521,
      "SliceThickness": 2.0,
      "SmallestImagePixelValue": 0,
      "SoftwareVersions": "syngo MR E11",
      "SpacingBetweenSlices": 2.0000000179982,
      "SpecificCharacterSet": "ISO_IR 100",
      "StudyID": "1",
      "StudyTime": "124344.710000",
      "TransmitCoilName": "Body",
      "VariableFlipAngleFlag": "N",
      "WindowCenterWidthExplanation": "Algo1",
      "dBdt": 0.0},
    "slices": {}
  },
  "time": {
    "samples": {
      "AcquisitionNumber": [1, 2, 3, 4, 5, 6, 7, 8, 9, 10, 11, 12, 13, 14, 15, 16, 17, 18, 19, 20, 21, 22, 23, 24, 25, 26, 27, 28, 29, 30, 31, 32, 33, 34, 35, 36, 37, 38, 39, 40, 41, 42, 43, 44, 45, 46, 47, 48, 49, 50, 51, 52, 53, 54, 55, 56, 57, 58, 59, 60, 61, 62, 63, 64, 65, 66, 67, 68, 69, 70, 71, 72, 73, 74, 75, 76, 77, 78, 79, 80, 81, 82, 83, 84, 85, 86, 87, 88, 89, 90, 91, 92, 93, 94, 95, 96, 97, 98, 99, 100, 101, 102, 103, 104, 105, 106, 107, 108, 109, 110, 111, 112, 113, 114, 115, 116, 117, 118, 119, 120, 121, 122, 123, 124, 125, 126, 127, 128, 129, 130, 131, 132, 133, 134, 135, 136, 137, 138, 139, 140, 141, 142, 143, 144, 145, 146, 147, 148, 149, 150, 151, 152, 153, 154, 155, 156, 157, 158, 159, 160, 161, 162, 163, 164, 165, 166, 167, 168, 169, 170, 171, 172, 173, 174, 175, 176, 177, 178, 179, 180, 181, 182, 183, 184, 185, 186, 187, 188, 189, 190, 191, 192, 193, 194, 195, 196, 197, 198, 199, 200, 201, 202, 203, 204, 205, 206, 207, 208, 209, 210, 211, 212, 213, 214, 215, 216, 217, 218, 219, 220, 221, 222, 223, 224, 225, 226, 227, 228, 229, 230, 231, 232, 233, 234, 235, 236, 237, 238, 239, 240, 241, 242, 243, 244, 245, 246, 247, 248, 249, 250, 251, 252, 253, 254, 255, 256, 257, 258, 259, 260, 261, 262, 263, 264, 265, 266, 267, 268, 269, 270, 271, 272, 273, 274, 275, 276, 277, 278, 279, 280, 281, 282, 283, 284, 285, 286, 287, 288, 289, 290, 291, 292, 293, 294, 295, 296, 297, 298, 299, 300, 301, 302, 303, 304, 305, 306, 307, 308, 309, 310, 311, 312, 313, 314, 315, 316, 317, 318, 319, 320, 321, 322, 323, 324, 325, 326, 327, 328, 329, 330, 331, 332, 333, 334, 335, 336, 337, 338, 339, 340, 341, 342, 343, 344, 345, 346, 347, 348, 349, 350, 351, 352, 353, 354, 355, 356, 357, 358, 359, 360, 361, 362, 363, 364, 365, 366, 367, 368, 369, 370, 371, 372, 373, 374, 375, 376, 377, 378, 379, 380, 381, 382, 383, 384, 385, 386, 387, 388, 389, 390, 391, 392, 393, 394, 395, 396, 397, 398, 399, 400, 401, 402, 403, 404, 405, 406, 407, 408, 409, 410, 411, 412, 413, 414, 415, 416, 417, 418, 419, 420, 421, 422, 423, 424, 425, 426, 427, 428, 429, 430, 431, 432, 433, 434, 435, 436, 437, 438, 439, 440, 441, 442, 443, 444, 445, 446, 447, 448, 449, 450, 451, 452, 453, 454, 455, 456, 457, 458, 459, 460, 461, 462, 463, 464, 465, 466, 467, 468, 469, 470, 471, 472, 473, 474, 475, 476, 477, 478, 479, 480, 481, 482, 483, 484, 485, 486, 487, 488, 489, 490, 491, 492, 493, 494, 495, 496, 497, 498, 499, 500, 501, 502, 503, 504, 505, 506],
      "AcquisitionTime": ["132815.640000", "132817.130000", "132818.620000", "132820.110000", "132821.600000", "132823.090000", "132824.580000", "132826.070000", "132827.560000", "132829.050000", "132830.540000", "132832.030000", "132833.520000", "132835.010000", "132836.500000", "132837.990000", "132839.480000", "132840.970000", "132842.460000", "132843.950000", "132845.440000", "132846.930000", "132848.420000", "132849.910000", "132851.400000", "132852.890000", "132854.380000", "132855.870000", "132857.360000", "132858.850000", "132900.340000", "132901.830000", "132903.320000", "132904.810000", "132906.300000", "132907.790000", "132909.280000", "132910.770000", "132912.260000", "132913.750000", "132915.240000", "132916.730000", "132918.220000", "132919.710000", "132921.200000", "132922.690000", "132924.180000", "132925.670000", "132927.160000", "132928.650000", "132930.140000", "132931.630000", "132933.120000", "132934.610000", "132936.100000", "132937.590000", "132939.080000", "132940.570000", "132942.060000", "132943.550000", "132945.040000", "132946.530000", "132948.020000", "132949.510000", "132951.000000", "132952.490000", "132953.980000", "132955.470000", "132956.960000", "132958.450000", "132959.940000", "133001.430000", "133002.920000", "133004.410000", "133005.900000", "133007.390000", "133008.880000", "133010.370000", "133011.860000", "133013.350000", "133014.840000", "133016.330000", "133017.820000", "133019.310000", "133020.800000", "133022.290000", "133023.780000", "133025.270000", "133026.760000", "133028.250000", "133029.740000", "133031.230000", "133032.720000", "133034.210000", "133035.700000", "133037.190000", "133038.680000", "133040.170000", "133041.660000", "133043.150000", "133044.640000", "133046.130000", "133047.620000", "133049.110000", "133050.600000", "133052.090000", "133053.580000", "133055.070000", "133056.560000", "133058.050000", "133059.540000", "133101.030000", "133102.520000", "133104.010000", "133105.500000", "133106.990000", "133108.480000", "133109.970000", "133111.460000", "133112.950000", "133114.440000", "133115.930000", "133117.420000", "133118.910000", "133120.400000", "133121.890000", "133123.380000", "133124.870000", "133126.360000", "133127.850000", "133129.340000", "133130.830000", "133132.320000", "133133.810000", "133135.300000", "133136.790000", "133138.280000", "133139.770000", "133141.260000", "133142.750000", "133144.240000", "133145.730000", "133147.220000", "133148.710000", "133150.200000", "133151.690000", "133153.180000", "133154.670000", "133156.160000", "133157.650000", "133159.140000", "133200.630000", "133202.120000", "133203.610000", "133205.100000", "133206.590000", "133208.080000", "133209.570000", "133211.060000", "133212.550000", "133214.040000", "133215.530000", "133217.020000", "133218.510000", "133220.000000", "133221.490000", "133222.980000", "133224.470000", "133225.960000", "133227.450000", "133228.940000", "133230.430000", "133231.920000", "133233.410000", "133234.900000", "133236.390000", "133237.880000", "133239.370000", "133240.860000", "133242.350000", "133243.840000", "133245.330000", "133246.820000", "133248.310000", "133249.800000", "133251.290000", "133252.780000", "133254.270000", "133255.760000", "133257.250000", "133258.740000", "133300.230000", "133301.720000", "133303.210000", "133304.700000", "133306.190000", "133307.680000", "133309.170000", "133310.660000", "133312.150000", "133313.640000", "133315.130000", "133316.620000", "133318.110000", "133319.600000", "133321.090000", "133322.580000", "133324.070000", "133325.560000", "133327.050000", "133328.540000", "133330.030000", "133331.520000", "133333.010000", "133334.500000", "133335.990000", "133337.480000", "133338.970000", "133340.460000", "133341.950000", "133343.440000", "133344.930000", "133346.420000", "133347.910000", "133349.400000", "133350.890000", "133352.380000", "133353.870000", "133355.360000", "133356.850000", "133358.340000", "133359.830000", "133401.320000", "133402.810000", "133404.300000", "133405.790000", "133407.280000", "133408.770000", "133410.260000", "133411.750000", "133413.240000", "133414.730000", "133416.220000", "133417.710000", "133419.200000", "133420.690000", "133422.180000", "133423.670000", "133425.160000", "133426.650000", "133428.140000", "133429.630000", "133431.120000", "133432.610000", "133434.100000", "133435.590000", "133437.080000", "133438.570000", "133440.060000", "133441.550000", "133443.040000", "133444.530000", "133446.020000", "133447.510000", "133449.000000", "133450.490000", "133451.980000", "133453.470000", "133454.960000", "133456.450000", "133457.940000", "133459.430000", "133500.920000", "133502.410000", "133503.900000", "133505.390000", "133506.880000", "133508.370000", "133509.860000", "133511.350000", "133512.840000", "133514.330000", "133515.820000", "133517.310000", "133518.800000", "133520.290000", "133521.780000", "133523.270000", "133524.760000", "133526.250000", "133527.740000", "133529.230000", "133530.720000", "133532.210000", "133533.700000", "133535.190000", "133536.680000", "133538.170000", "133539.660000", "133541.150000", "133542.640000", "133544.130000", "133545.620000", "133547.110000", "133548.600000", "133550.090000", "133551.580000", "133553.070000", "133554.560000", "133556.050000", "133557.540000", "133559.030000", "133600.520000", "133602.010000", "133603.500000", "133604.990000", "133606.480000", "133607.970000", "133609.460000", "133610.950000", "133612.440000", "133613.930000", "133615.420000", "133616.910000", "133618.400000", "133619.890000", "133621.380000", "133622.870000", "133624.360000", "133625.850000", "133627.340000", "133628.830000", "133630.320000", "133631.810000", "133633.300000", "133634.790000", "133636.280000", "133637.770000", "133639.260000", "133640.750000", "133642.240000", "133643.730000", "133645.220000", "133646.710000", "133648.200000", "133649.690000", "133651.180000", "133652.670000", "133654.160000", "133655.650000", "133657.140000", "133658.630000", "133700.120000", "133701.610000", "133703.100000", "133704.590000", "133706.080000", "133707.570000", "133709.060000", "133710.550000", "133712.040000", "133713.530000", "133715.020000", "133716.510000", "133718.000000", "133719.490000", "133720.980000", "133722.470000", "133723.960000", "133725.450000", "133726.940000", "133728.430000", "133729.920000", "133731.410000", "133732.900000", "133734.390000", "133735.880000", "133737.370000", "133738.860000", "133740.350000", "133741.840000", "133743.330000", "133744.820000", "133746.310000", "133747.800000", "133749.290000", "133750.780000", "133752.270000", "133753.760000", "133755.250000", "133756.740000", "133758.230000", "133759.720000", "133801.210000", "133802.700000", "133804.190000", "133805.680000", "133807.170000", "133808.660000", "133810.150000", "133811.640000", "133813.130000", "133814.620000", "133816.110000", "133817.600000", "133819.090000", "133820.580000", "133822.070000", "133823.560000", "133825.050000", "133826.540000", "133828.030000", "133829.520000", "133831.010000", "133832.500000", "133833.990000", "133835.480000", "133836.970000", "133838.460000", "133839.950000", "133841.440000", "133842.930000", "133844.420000", "133845.910000", "133847.400000", "133848.890000", "133850.380000", "133851.870000", "133853.360000", "133854.850000", "133856.340000", "133857.830000", "133859.320000", "133900.810000", "133902.300000", "133903.790000", "133905.280000", "133906.770000", "133908.260000", "133909.750000", "133911.240000", "133912.730000", "133914.220000", "133915.710000", "133917.200000", "133918.690000", "133920.180000", "133921.670000", "133923.160000", "133924.650000", "133926.140000", "133927.630000", "133929.120000", "133930.610000", "133932.100000", "133933.590000", "133935.080000", "133936.570000", "133938.060000", "133939.550000", "133941.040000", "133942.530000", "133944.020000", "133945.510000", "133947.000000", "133948.490000", "133949.980000", "133951.470000", "133952.960000", "133954.450000", "133955.940000", "133957.430000", "133958.920000", "134000.410000", "134001.900000", "134003.390000", "134004.880000", "134006.370000", "134007.860000", "134009.350000", "134010.840000", "134012.330000", "134013.820000", "134015.310000", "134016.800000", "134018.290000", "134019.780000", "134021.270000", "134022.760000", "134024.250000", "134025.740000", "134027.230000", "134028.720000", "134030.210000", "134031.700000", "134033.190000", "134034.680000", "134036.170000", "134037.660000", "134039.150000", "134040.640000", "134042.130000", "134043.620000", "134045.110000", "134046.600000", "134048.090000"],
      "ContentTime": ["132945.667000", "132945.669000", "132945.672000", "132945.675000", "132945.677000", "132945.680000", "132945.682000", "132945.685000", "132945.687000", "132945.690000", "132945.693000", "132945.695000", "132945.698000", "132945.700000", "132945.703000", "132945.705000", "132945.708000", "132945.715000", "132945.718000", "132945.720000", "132945.723000", "132945.725000", "132945.728000", "132945.730000", "132945.733000", "132945.735000", "132945.738000", "132945.741000", "132945.743000", "132945.746000", "132945.748000", "132945.751000", "132945.753000", "132945.756000", "132945.758000", "132945.761000", "133005.567000", "133005.569000", "133005.572000", "133005.574000", "133005.577000", "133005.580000", "133005.582000", "133005.585000", "133005.587000", "133005.590000", "133005.592000", "133005.595000", "133005.602000", "133005.604000", "133005.607000", "133005.609000", "133005.612000", "133005.614000", "133005.617000", "133005.619000", "133025.571000", "133025.574000", "133025.577000", "133025.579000", "133025.582000", "133025.584000", "133025.587000", "133025.590000", "133025.592000", "133025.595000", "133025.597000", "133025.600000", "133025.602000", "133025.605000", "133025.608000", "133025.610000", "133025.613000", "133025.615000", "133025.618000", "133025.620000", "133045.571000", "133045.573000", "133045.576000", "133045.578000", "133045.581000", "133045.584000", "133045.586000", "133045.589000", "133045.591000", "133045.594000", "133045.597000", "133045.599000", "133045.602000", "133045.604000", "133045.607000", "133045.609000", "133045.612000", "133045.614000", "133045.617000", "133045.620000", "133125.660000", "133125.662000", "133125.665000", "133125.668000", "133125.670000", "133125.673000", "133125.675000", "133125.678000", "133125.681000", "133125.683000", "133125.686000", "133125.688000", "133125.691000", "133125.693000", "133125.696000", "133125.699000", "133125.701000", "133125.704000", "133125.706000", "133125.709000", "133125.711000", "133125.714000", "133125.716000", "133125.719000", "133125.721000", "133125.724000", "133125.727000", "133125.729000", "133125.732000", "133125.734000", "133205.606000", "133205.609000", "133205.612000", "133205.614000", "133205.617000", "133205.619000", "133205.622000", "133205.625000", "133205.627000", "133205.630000", "133205.633000", "133205.635000", "133205.638000", "133205.640000", "133205.643000", "133205.645000", "133205.648000", "133205.651000", "133205.653000", "133205.656000", "133205.658000", "133205.661000", "133205.663000", "133205.666000", "133205.668000", "133205.671000", "133205.674000", "133225.548000", "133225.550000", "133225.553000", "133225.556000", "133225.558000", "133225.561000", "133225.563000", "133225.566000", "133225.568000", "133225.571000", "133225.574000", "133225.576000", "133225.579000", "133305.613000", "133305.616000", "133305.619000", "133305.621000", "133305.624000", "133305.627000", "133305.629000", "133305.632000", "133305.634000", "133305.637000", "133305.639000", "133305.642000", "133305.644000", "133305.647000", "133305.650000", "133305.653000", "133305.656000", "133305.658000", "133305.661000", "133305.663000", "133305.666000", "133305.669000", "133305.671000", "133305.674000", "133305.676000", "133305.679000", "133305.681000", "133345.581000", "133345.584000", "133345.586000", "133345.589000", "133345.597000", "133345.599000", "133345.602000", "133345.604000", "133345.607000", "133345.610000", "133345.612000", "133345.615000", "133345.618000", "133345.620000", "133345.623000", "133345.625000", "133345.628000", "133345.631000", "133345.633000", "133345.636000", "133345.638000", "133345.641000", "133345.644000", "133345.646000", "133345.649000", "133345.651000", "133345.654000", "133425.590000", "133425.593000", "133425.595000", "133425.598000", "133425.601000", "133425.603000", "133425.606000", "133425.608000", "133425.611000", "133425.613000", "133425.616000", "133425.619000", "133425.621000", "133425.624000", "133425.626000", "133425.629000", "133425.632000", "133425.634000", "133425.637000", "133425.639000", "133425.642000", "133425.645000", "133425.647000", "133425.650000", "133425.652000", "133425.655000", "133425.657000", "133505.593000", "133505.595000", "133505.598000", "133505.600000", "133505.603000", "133505.606000", "133505.608000", "133505.611000", "133505.614000", "133505.616000", "133505.619000", "133505.622000", "133505.624000", "133505.627000", "133505.630000", "133505.632000", "133505.635000", "133505.637000", "133505.640000", "133505.643000", "133505.645000", "133505.648000", "133505.650000", "133505.653000", "133505.655000", "133505.658000", "133505.661000", "133545.595000", "133545.598000", "133545.601000", "133545.603000", "133545.606000", "133545.608000", "133545.611000", "133545.614000", "133545.616000", "133545.619000", "133545.621000", "133545.624000", "133545.627000", "133545.629000", "133545.632000", "133545.634000", "133545.637000", "133545.640000", "133545.642000", "133545.645000", "133545.647000", "133545.650000", "133545.653000", "133545.655000", "133545.658000", "133545.660000", "133545.663000", "133625.593000", "133625.596000", "133625.598000", "133625.601000", "133625.604000", "133625.606000", "133625.609000", "133625.612000", "133625.614000", "133625.617000", "133625.620000", "133625.622000", "133625.625000", "133625.628000", "133625.630000", "133625.633000", "133625.636000", "133625.638000", "133625.641000", "133625.643000", "133625.646000", "133625.649000", "133625.651000", "133625.654000", "133625.657000", "133625.659000", "133625.662000", "133705.601000", "133705.605000", "133705.607000", "133705.611000", "133705.613000", "133705.616000", "133705.621000", "133705.625000", "133705.628000", "133705.631000", "133705.634000", "133705.637000", "133705.640000", "133705.642000", "133705.645000", "133705.647000", "133705.650000", "133705.653000", "133705.656000", "133705.658000", "133705.661000", "133705.663000", "133705.666000", "133705.669000", "133705.672000", "133705.674000", "133745.609000", "133745.612000", "133745.615000", "133745.617000", "133745.620000", "133745.622000", "133745.625000", "133745.628000", "133745.630000", "133745.633000", "133745.636000", "133745.638000", "133745.641000", "133745.643000", "133745.646000", "133745.648000", "133745.651000", "133745.654000", "133745.656000", "133745.659000", "133745.661000", "133745.664000", "133745.667000", "133745.669000", "133745.672000", "133745.674000", "133745.677000", "133825.606000", "133825.609000", "133825.612000", "133825.614000", "133825.617000", "133825.619000", "133825.622000", "133825.625000", "133825.627000", "133825.630000", "133825.632000", "133825.635000", "133825.637000", "133825.640000", "133825.642000", "133825.645000", "133825.648000", "133825.650000", "133825.653000", "133825.655000", "133825.658000", "133825.660000", "133825.663000", "133825.665000", "133825.668000", "133825.670000", "133825.673000", "133905.603000", "133905.606000", "133905.609000", "133905.612000", "133905.614000", "133905.617000", "133905.619000", "133905.622000", "133905.624000", "133905.627000", "133905.629000", "133905.632000", "133905.635000", "133905.638000", "133905.640000", "133905.643000", "133905.646000", "133905.648000", "133905.651000", "133905.653000", "133905.656000", "133905.658000", "133905.661000", "133905.664000", "133905.666000", "133905.669000", "133905.671000", "133945.589000", "133945.592000", "133945.595000", "133945.597000", "133945.600000", "133945.602000", "133945.605000", "133945.607000", "133945.610000", "133945.612000", "133945.615000", "133945.618000", "133945.620000", "133945.623000", "133945.626000", "133945.628000", "133945.631000", "133945.633000", "133945.636000", "133945.638000", "133945.641000", "133945.644000", "133945.646000", "133945.649000", "133945.651000", "133945.654000", "133945.657000", "134025.587000", "134025.589000", "134025.592000", "134025.594000", "134025.597000", "134025.600000", "134025.602000", "134025.605000", "134025.607000", "134025.610000", "134025.613000", "134025.615000", "134025.618000", "134025.621000", "134025.624000", "134025.626000", "134025.629000", "134025.632000", "134025.634000", "134025.637000", "134025.639000", "134025.642000", "134025.645000", "134025.647000", "134025.650000", "134025.652000", "134025.655000", "134051.621000", "134051.624000", "134051.626000", "134051.629000", "134051.632000", "134051.634000", "134051.637000", "134051.640000", "134051.643000", "134051.645000", "134051.648000", "134051.650000", "134051.653000", "134051.656000", "134051.658000", "134051.661000", "134051.663000"],
