{
  "AcquisitionMatrixPE": 104,
  "AcquisitionNumber": 1,
  "AcquisitionTime": "13:45:26.705000",
  "BandwidthPerPixelPhaseEncode": 17.17,
  "BaseResolution": 104,
  "BodyPartExamined": "BRAIN",
  "CoilCombinationMethod": "Sum of Squares",
  "ConsistencyInfo": "N4_VE11C_LATEST_20160120",
  "ConversionSoftware": "dcm2niix",
  "ConversionSoftwareVersion": "v1.0.20211006",
  "DerivedVendorReportedEchoSpacing": 0.000560011,
  "DeviceSerialNumber": "167006",
  "DwellTime": 2.1e-06,
  "EchoTime": 0.037,
  "EchoTime1": 0.037,
  "EchoTime2": 0.001,
  "EchoTrainLength": 104,
  "EffectiveEchoSpacing": 0.000560011,
  "FlipAngle": 52,
  "HeudiconvVersion": "0.10.0",
  "ImageComments": "Unaliased MB4/PE3/LB",
  "ImageOrientationPatientDICOM": [0.999772, 0.015895, 0.0142872, -0.00628182, 0.85751, -0.514428],
  "ImageOrientationText": "Tra>Cor(-31.0)>Sag(1.2)",
  "ImageType": [
    "ORIGINAL",
    "PRIMARY",
    "P",
    "MB",
    "ND",
    "MOSAIC",
    "PHASE"
],
  "ImagingFrequency": 123.259,
  "InPlanePhaseEncodingDirectionDICOM": "COL",
  "InstitutionAddress": "Chemin Queen-Mary 4565,Montreal,District,CA,H3W 1W5",
  "InstitutionName": "IUGM",
  "InstitutionalDepartmentName": "Department",
  "MRAcquisitionType": "2D",
  "MagneticFieldStrength": 3,
  "Manufacturer": "Siemens",
  "ManufacturersModelName": "Prisma_fit",
  "MatrixCoilMode": "SENSE",
  "Modality": "MR",
  "MultibandAccelerationFactor": 4,
  "PartialFourier": 1,
  "PatientPosition": "HFS",
  "PercentPhaseFOV": 100,
  "PercentSampling": 100,
  "PhaseEncodingDirection": "j",
  "PhaseEncodingSteps": 104,
  "PhaseResolution": 1,
  "PixelBandwidth": 2290,
  "ProcedureStepDescription": "games^mario",
  "ProtocolName": "func_task-mario_run-04",
  "PulseSequenceDetails": "%CustomerSeq%\\cmrr_mbep2d_bold",
  "ReceiveCoilActiveElements": "HC1-7;NC1,2",
  "ReceiveCoilName": "HeadNeck_64",
  "ReconMatrixPE": 104,
  "RepetitionTime": 1.49,
  "SAR": 0.0570451,
  "ScanOptions": "FS",
  "ScanningSequence": "EP",
  "SequenceName": "epfid2d1_104",
  "SequenceVariant": "SK\\SS",
  "SeriesDescription": "func_task-mario_run-04",
  "SeriesNumber": 20,
  "ShimSetting": [614, -7180, -8868, 257, 15, -157, -59, -27],
  "SliceThickness": 2,
  "SliceTiming": [0, 0.785, 0.1, 0.8825, 0.1975, 0.98, 0.295, 1.08, 0.3925, 1.1775, 0.49, 1.275, 0.59, 1.3725, 0.6875, 0, 0.785, 0.1, 0.8825, 0.1975, 0.98, 0.295, 1.08, 0.3925, 1.1775, 0.49, 1.275, 0.59, 1.3725, 0.6875, 0, 0.785, 0.1, 0.8825, 0.1975, 0.98, 0.295, 1.08, 0.3925, 1.1775, 0.49, 1.275, 0.59, 1.3725, 0.6875, 0, 0.785, 0.1, 0.8825, 0.1975, 0.98, 0.295, 1.08, 0.3925, 1.1775, 0.49, 1.275, 0.59, 1.3725, 0.6875],
  "SoftwareVersions": "syngo MR E11",
  "SpacingBetweenSlices": 2,
  "StationName": "MRC35049",
  "TaskName": "mario",
  "TotalReadoutTime": 0.0576811,
  "TxRefAmp": 288.97,
  "WipMemBlock": "ef877211-698c-4c83-9266-7f7ebfc30fe2||Sequence: R016 ve11c/master r/e634e98; Dec 19 2017 11:00:25 by eja",
  "dcmmeta_affine": [
    [-1.9995431900024414, -0.012563642114400864, 0.04085645452141762, 106.79358673095703],
    [-0.03178996592760086, 1.7150206565856934, -1.0284422636032104, -48.779998779296875],
    [0.028574343770742416, 1.0288567543029785, 1.7148287296295166, -91.54207611083984],
    [0.0, 0.0, 0.0, 1.0]
],
  "dcmmeta_reorient_transform": [
    [0.0, -1.0, 0.0, 103.0],
    [1.0, 0.0, 0.0, 0.0],
    [0.0, 0.0, 1.0, 0.0],
    [0.0, 0.0, 0.0, 1.0]
],
  "dcmmeta_shape": [104, 104, 60, 441],
  "dcmmeta_slice_dim": 2,
  "dcmmeta_version": 0.6,
  "global": {
    "const": {
      "AcquisitionMatrix": [104, 0, 0, 104],
      "AngioFlag": "N",
      "BitsAllocated": 16,
      "BitsStored": 16,
      "BodyPartExamined": "BRAIN",
      "Columns": 832,
      "EchoNumbers": 1,
      "EchoTime": 37.0,
      "EchoTrainLength": 104,
      "FlipAngle": 52.0,
      "HighBit": 15,
      "ImageOrientationPatient": [0.99977158704096, 0.01589498275844, 0.0142871714734, -0.0062818210733, 0.85751035495248, -0.5144283525169],
      "ImagePositionPatient": [-828.76008192663, -763.70621903335, 378.5329441956],
      "ImageType": [
        "ORIGINAL",
        "PRIMARY",
        "P",
        "MB",
        "ND",
        "MOSAIC"
],
      "ImagedNucleus": "1H",
      "ImagingFrequency": 123.258901,
      "InPlanePhaseEncodingDirection": "COL",
      "LargestImagePixelValue": 4095,
      "MRAcquisitionType": "2D",
      "MagneticFieldStrength": 3.0,
      "Manufacturer": "SIEMENS",
      "ManufacturerModelName": "Prisma_fit",
      "Modality": "MR",
      "NumberOfAverages": 1.0,
      "NumberOfPhaseEncodingSteps": 104,
      "PercentPhaseFieldOfView": 100.0,
      "PercentSampling": 100.0,
      "PerformedProcedureStepStartTime": "124344.807000",
      "PhotometricInterpretation": "MONOCHROME2",
      "PixelBandwidth": 2290.0,
      "PixelRepresentation": 0,
      "PixelSpacing": [2.0, 2.0],
      "ProtocolName": "func_task-mario_run-04",
      "RepetitionTime": 1490.0,
      "RescaleIntercept": -4096.0,
      "RescaleSlope": 2.0,
      "RescaleType": "US",
      "Rows": 832,
      "SAR": 0.057045077582,
      "SamplesPerPixel": 1,
      "ScanOptions": "FS",
      "ScanningSequence": "EP",
      "SequenceName": "epfid2d1_104",
      "SequenceVariant": [
        "SK",
        "SS"
],
      "SeriesDescription": "func_task-mario_run-04",
      "SeriesNumber": 20,
      "SeriesTime": "134624.426000",
      "SliceLocation": -51.224179725521,
      "SliceThickness": 2.0,
      "SmallestImagePixelValue": 0,
      "SoftwareVersions": "syngo MR E11",
      "SpacingBetweenSlices": 2.0000000179982,
      "SpecificCharacterSet": "ISO_IR 100",
      "StudyID": "1",
      "StudyTime": "124344.710000",
      "TransmitCoilName": "Body",
      "VariableFlipAngleFlag": "N",
      "WindowCenterWidthExplanation": "Algo1",
      "dBdt": 0.0},
    "slices": {}
  },
  "time": {
    "samples": {
      "AcquisitionNumber": [1, 2, 3, 4, 5, 6, 7, 8, 9, 10, 11, 12, 13, 14, 15, 16, 17, 18, 19, 20, 21, 22, 23, 24, 25, 26, 27, 28, 29, 30, 31, 32, 33, 34, 35, 36, 37, 38, 39, 40, 41, 42, 43, 44, 45, 46, 47, 48, 49, 50, 51, 52, 53, 54, 55, 56, 57, 58, 59, 60, 61, 62, 63, 64, 65, 66, 67, 68, 69, 70, 71, 72, 73, 74, 75, 76, 77, 78, 79, 80, 81, 82, 83, 84, 85, 86, 87, 88, 89, 90, 91, 92, 93, 94, 95, 96, 97, 98, 99, 100, 101, 102, 103, 104, 105, 106, 107, 108, 109, 110, 111, 112, 113, 114, 115, 116, 117, 118, 119, 120, 121, 122, 123, 124, 125, 126, 127, 128, 129, 130, 131, 132, 133, 134, 135, 136, 137, 138, 139, 140, 141, 142, 143, 144, 145, 146, 147, 148, 149, 150, 151, 152, 153, 154, 155, 156, 157, 158, 159, 160, 161, 162, 163, 164, 165, 166, 167, 168, 169, 170, 171, 172, 173, 174, 175, 176, 177, 178, 179, 180, 181, 182, 183, 184, 185, 186, 187, 188, 189, 190, 191, 192, 193, 194, 195, 196, 197, 198, 199, 200, 201, 202, 203, 204, 205, 206, 207, 208, 209, 210, 211, 212, 213, 214, 215, 216, 217, 218, 219, 220, 221, 222, 223, 224, 225, 226, 227, 228, 229, 230, 231, 232, 233, 234, 235, 236, 237, 238, 239, 240, 241, 242, 243, 244, 245, 246, 247, 248, 249, 250, 251, 252, 253, 254, 255, 256, 257, 258, 259, 260, 261, 262, 263, 264, 265, 266, 267, 268, 269, 270, 271, 272, 273, 274, 275, 276, 277, 278, 279, 280, 281, 282, 283, 284, 285, 286, 287, 288, 289, 290, 291, 292, 293, 294, 295, 296, 297, 298, 299, 300, 301, 302, 303, 304, 305, 306, 307, 308, 309, 310, 311, 312, 313, 314, 315, 316, 317, 318, 319, 320, 321, 322, 323, 324, 325, 326, 327, 328, 329, 330, 331, 332, 333, 334, 335, 336, 337, 338, 339, 340, 341, 342, 343, 344, 345, 346, 347, 348, 349, 350, 351, 352, 353, 354, 355, 356, 357, 358, 359, 360, 361, 362, 363, 364, 365, 366, 367, 368, 369, 370, 371, 372, 373, 374, 375, 376, 377, 378, 379, 380, 381, 382, 383, 384, 385, 386, 387, 388, 389, 390, 391, 392, 393, 394, 395, 396, 397, 398, 399, 400, 401, 402, 403, 404, 405, 406, 407, 408, 409, 410, 411, 412, 413, 414, 415, 416, 417, 418, 419, 420, 421, 422, 423, 424, 425, 426, 427, 428, 429, 430, 431, 432, 433, 434, 435, 436, 437, 438, 439, 440, 441],
      "AcquisitionTime": ["134526.705000", "134528.195000", "134529.685000", "134531.175000", "134532.665000", "134534.155000", "134535.645000", "134537.135000", "134538.625000", "134540.115000", "134541.605000", "134543.095000", "134544.585000", "134546.075000", "134547.565000", "134549.055000", "134550.545000", "134552.035000", "134553.525000", "134555.015000", "134556.505000", "134557.995000", "134559.485000", "134600.975000", "134602.465000", "134603.955000", "134605.445000", "134606.935000", "134608.425000", "134609.915000", "134611.405000", "134612.895000", "134614.385000", "134615.875000", "134617.365000", "134618.855000", "134620.345000", "134621.835000", "134623.325000", "134624.815000", "134626.305000", "134627.795000", "134629.285000", "134630.775000", "134632.265000", "134633.755000", "134635.245000", "134636.735000", "134638.225000", "134639.715000", "134641.205000", "134642.695000", "134644.185000", "134645.675000", "134647.165000", "134648.655000", "134650.145000", "134651.635000", "134653.125000", "134654.615000", "134656.105000", "134657.595000", "134659.085000", "134700.575000", "134702.065000", "134703.555000", "134705.045000", "134706.535000", "134708.025000", "134709.515000", "134711.005000", "134712.495000", "134713.985000", "134715.475000", "134716.965000", "134718.455000", "134719.945000", "134721.435000", "134722.925000", "134724.415000", "134725.905000", "134727.395000", "134728.885000", "134730.375000", "134731.865000", "134733.355000", "134734.845000", "134736.335000", "134737.825000", "134739.315000", "134740.805000", "134742.295000", "134743.785000", "134745.275000", "134746.765000", "134748.255000", "134749.745000", "134751.235000", "134752.725000", "134754.215000", "134755.705000", "134757.195000", "134758.685000", "134800.175000", "134801.665000", "134803.155000", "134804.645000", "134806.135000", "134807.625000", "134809.115000", "134810.605000", "134812.095000", "134813.585000", "134815.075000", "134816.565000", "134818.055000", "134819.545000", "134821.035000", "134822.525000", "134824.015000", "134825.505000", "134826.995000", "134828.485000", "134829.975000", "134831.465000", "134832.955000", "134834.445000", "134835.935000", "134837.425000", "134838.915000", "134840.405000", "134841.895000", "134843.385000", "134844.875000", "134846.365000", "134847.855000", "134849.345000", "134850.835000", "134852.325000", "134853.815000", "134855.305000", "134856.795000", "134858.285000", "134859.775000", "134901.265000", "134902.755000", "134904.245000", "134905.735000", "134907.225000", "134908.715000", "134910.205000", "134911.695000", "134913.185000", "134914.675000", "134916.165000", "134917.655000", "134919.145000", "134920.635000", "134922.125000", "134923.615000", "134925.105000", "134926.595000", "134928.085000", "134929.575000", "134931.065000", "134932.555000", "134934.045000", "134935.535000", "134937.025000", "134938.515000", "134940.005000", "134941.495000", "134942.985000", "134944.475000", "134945.965000", "134947.455000", "134948.945000", "134950.435000", "134951.925000", "134953.415000", "134954.905000", "134956.395000", "134957.885000", "134959.375000", "135000.865000", "135002.355000", "135003.845000", "135005.335000", "135006.825000", "135008.315000", "135009.805000", "135011.295000", "135012.785000", "135014.275000", "135015.765000", "135017.255000", "135018.745000", "135020.235000", "135021.725000", "135023.215000", "135024.705000", "135026.195000", "135027.685000", "135029.175000", "135030.665000", "135032.155000", "135033.645000", "135035.135000", "135036.625000", "135038.115000", "135039.605000", "135041.095000", "135042.585000", "135044.075000", "135045.565000", "135047.055000", "135048.545000", "135050.035000", "135051.525000", "135053.015000", "135054.505000", "135055.995000", "135057.485000", "135058.975000", "135100.465000", "135101.955000", "135103.445000", "135104.935000", "135106.425000", "135107.915000", "135109.405000", "135110.895000", "135112.385000", "135113.875000", "135115.365000", "135116.855000", "135118.345000", "135119.835000", "135121.325000", "135122.815000", "135124.305000", "135125.795000", "135127.285000", "135128.775000", "135130.265000", "135131.755000", "135133.245000", "135134.735000", "135136.225000", "135137.715000", "135139.205000", "135140.695000", "135142.185000", "135143.675000", "135145.165000", "135146.655000", "135148.145000", "135149.635000", "135151.125000", "135152.615000", "135154.105000", "135155.595000", "135157.085000", "135158.575000", "135200.065000", "135201.555000", "135203.045000", "135204.535000", "135206.025000", "135207.515000", "135209.005000", "135210.495000", "135211.985000", "135213.475000", "135214.965000", "135216.455000", "135217.945000", "135219.435000", "135220.925000", "135222.415000", "135223.905000", "135225.395000", "135226.885000", "135228.375000", "135229.865000", "135231.355000", "135232.845000", "135234.335000", "135235.825000", "135237.315000", "135238.805000", "135240.295000", "135241.785000", "135243.275000", "135244.765000", "135246.255000", "135247.745000", "135249.235000", "135250.725000", "135252.215000", "135253.705000", "135255.195000", "135256.685000", "135258.175000", "135259.665000", "135301.155000", "135302.645000", "135304.135000", "135305.625000", "135307.115000", "135308.605000", "135310.095000", "135311.585000", "135313.075000", "135314.565000", "135316.055000", "135317.545000", "135319.035000", "135320.525000", "135322.015000", "135323.505000", "135324.995000", "135326.485000", "135327.975000", "135329.465000", "135330.955000", "135332.445000", "135333.935000", "135335.425000", "135336.915000", "135338.405000", "135339.895000", "135341.385000", "135342.875000", "135344.365000", "135345.855000", "135347.345000", "135348.835000", "135350.325000", "135351.815000", "135353.305000", "135354.795000", "135356.285000", "135357.775000", "135359.265000", "135400.755000", "135402.245000", "135403.735000", "135405.225000", "135406.715000", "135408.205000", "135409.695000", "135411.185000", "135412.675000", "135414.165000", "135415.655000", "135417.145000", "135418.635000", "135420.125000", "135421.615000", "135423.105000", "135424.595000", "135426.085000", "135427.575000", "135429.065000", "135430.555000", "135432.045000", "135433.535000", "135435.025000", "135436.515000", "135438.005000", "135439.495000", "135440.985000", "135442.475000", "135443.965000", "135445.455000", "135446.945000", "135448.435000", "135449.925000", "135451.415000", "135452.905000", "135454.395000", "135455.885000", "135457.375000", "135458.865000", "135500.355000", "135501.845000", "135503.335000", "135504.825000", "135506.315000", "135507.805000", "135509.295000", "135510.785000", "135512.275000", "135513.765000", "135515.255000", "135516.745000", "135518.235000", "135519.725000", "135521.215000", "135522.705000", "135524.195000", "135525.685000", "135527.175000", "135528.665000", "135530.155000", "135531.645000", "135533.135000", "135534.625000", "135536.115000", "135537.605000", "135539.095000", "135540.585000", "135542.075000", "135543.565000", "135545.055000", "135546.545000", "135548.035000", "135549.525000", "135551.015000", "135552.505000", "135553.995000", "135555.485000", "135556.975000", "135558.465000", "135559.955000", "135601.445000", "135602.935000", "135604.425000", "135605.915000", "135607.405000", "135608.895000", "135610.385000", "135611.875000", "135613.365000", "135614.855000", "135616.345000", "135617.835000", "135619.325000", "135620.815000", "135622.305000"],
      "ContentTime": ["134624.428000", "134624.434000", "134624.437000", "134644.472000", "134644.474000", "134644.482000", "134644.485000", "134644.487000", "134644.490000", "134644.493000", "134644.495000", "134644.498000", "134644.500000", "134644.503000", "134644.506000", "134644.509000", "134644.511000", "134644.514000", "134644.517000", "134644.520000", "134644.522000", "134644.525000", "134644.527000", "134704.470000", "134704.473000", "134704.476000", "134704.478000", "134704.481000", "134704.483000", "134704.486000", "134704.488000", "134704.491000", "134704.494000", "134704.496000", "134704.499000", "134704.501000", "134704.504000", "134704.506000", "134704.509000", "134704.511000", "134704.514000", "134704.516000", "134704.519000", "134704.521000", "134724.470000", "134724.473000", "134724.476000", "134724.478000", "134724.481000", "134724.484000", "134724.486000", "134724.489000", "134724.491000", "134724.494000", "134724.496000", "134724.499000", "134724.501000", "134724.504000", "134724.506000", "134724.509000", "134724.511000", "134724.514000", "134724.526000", "134724.529000", "134744.474000", "134744.477000", "134744.480000", "134744.482000", "134744.485000", "134744.487000", "134744.490000", "134744.492000", "134744.495000", "134744.497000", "134744.500000", "134744.503000", "134744.505000", "134744.508000", "134744.510000", "134744.513000", "134744.515000", "134744.518000", "134744.520000", "134744.523000", "134804.478000", "134804.481000", "134804.484000", "134804.486000", "134804.489000", "134804.492000", "134804.494000", "134804.497000", "134804.499000", "134804.502000", "134804.504000", "134804.507000", "134804.509000", "134804.512000", "134804.514000", "134804.517000", "134804.520000", "134804.525000", "134804.528000", "134804.531000", "134844.499000", "134844.502000", "134844.504000", "134844.507000", "134844.510000", "134844.512000", "134844.515000", "134844.517000", "134844.520000", "134844.522000", "134844.525000", "134844.527000", "134844.530000", "134844.533000", "134844.535000", "134844.538000", "134844.540000", "134844.543000", "134844.545000", "134844.548000", "134844.551000", "134844.553000", "134844.556000", "134844.558000", "134844.561000", "134844.563000", "134844.566000", "134844.569000", "134924.506000", "134924.509000", "134924.511000", "134924.514000", "134924.516000", "134924.519000", "134924.522000", "134924.524000", "134924.527000", "134924.529000", "134924.532000", "134924.535000", "134924.537000", "134924.540000", "134924.542000", "134924.545000", "134924.547000", "134924.550000", "134924.553000", "134924.555000", "134924.558000", "134924.560000", "134924.563000", "134924.565000", "134924.568000", "134924.571000", "135004.496000", "135004.499000", "135004.502000", "135004.504000", "135004.507000", "135004.509000", "135004.513000", "135004.515000", "135004.518000", "135004.521000", "135004.523000", "135004.526000", "135004.528000", "135004.531000", "135004.533000", "135004.536000", "135004.539000", "135004.541000", "135004.544000", "135004.546000", "135004.549000", "135004.551000", "135004.554000", "135004.557000", "135004.559000", "135004.562000", "135004.564000", "135044.488000", "135044.491000", "135044.493000", "135044.496000", "135044.498000", "135044.501000", "135044.503000", "135044.506000", "135044.508000", "135044.511000", "135044.513000", "135044.516000", "135044.519000", "135044.521000", "135044.524000", "135044.526000", "135044.529000", "135044.532000", "135044.534000", "135044.537000", "135044.539000", "135044.542000", "135044.544000", "135044.547000", "135044.549000", "135044.552000", "135044.555000", "135124.490000", "135124.493000", "135124.495000", "135124.498000", "135124.500000", "135124.503000", "135124.505000", "135124.508000", "135124.511000", "135124.513000", "135124.516000", "135124.518000", "135124.521000", "135124.523000", "135124.526000", "135124.528000", "135124.531000", "135124.534000", "135124.536000", "135124.539000", "135124.542000", "135124.544000", "135124.547000", "135124.549000", "135124.552000", "135124.554000", "135124.557000", "135204.513000", "135204.516000", "135204.518000", "135204.521000", "135204.523000", "135204.526000", "135204.528000", "135204.531000", "135204.533000", "135204.536000", "135204.539000", "135204.541000", "135204.544000", "135204.546000", "135204.549000", "135204.551000", "135204.554000", "135204.556000", "135204.559000", "135204.562000", "135204.564000", "135204.567000", "135204.569000", "135204.572000", "135204.575000", "135204.577000", "135204.580000", "135244.494000", "135244.497000", "135244.499000", "135244.502000", "135244.504000", "135244.507000", "135244.509000", "135244.512000", "135244.514000", "135244.517000", "135244.520000", "135244.522000", "135244.525000", "135244.527000", "135244.530000", "135244.532000", "135244.535000", "135244.538000", "135244.540000", "135244.543000", "135244.545000", "135244.548000", "135244.551000", "135244.553000", "135244.556000", "135244.558000", "135244.561000", "135324.496000", "135324.499000", "135324.501000", "135324.504000", "135324.507000", "135324.509000", "135324.512000", "135324.514000", "135324.517000", "135324.519000", "135324.522000", "135324.524000", "135324.527000", "135324.530000", "135324.532000", "135324.535000", "135324.537000", "135324.540000", "135324.542000", "135324.545000", "135324.547000", "135324.550000", "135324.553000", "135324.555000", "135324.558000", "135324.560000", "135324.563000", "135404.509000", "135404.512000", "135404.515000", "135404.517000", "135404.520000", "135404.523000", "135404.525000", "135404.528000", "135404.530000", "135404.534000", "135404.537000", "135404.540000", "135404.543000", "135404.545000", "135404.548000", "135404.551000", "135404.554000", "135404.557000", "135404.560000", "135404.562000", "135404.565000", "135404.568000", "135404.570000", "135404.573000", "135404.575000", "135404.578000", "135444.489000", "135444.492000", "135444.494000", "135444.497000", "135444.500000", "135444.502000", "135444.505000", "135444.507000", "135444.510000", "135444.513000", "135444.515000", "135444.518000", "135444.520000", "135444.523000", "135444.525000", "135444.528000", "135444.531000", "135444.533000", "135444.536000", "135444.539000", "135444.541000", "135444.544000", "135444.546000", "135444.549000", "135444.552000", "135444.554000", "135444.557000", "135524.492000", "135524.495000", "135524.498000", "135524.500000", "135524.503000", "135524.506000", "135524.508000", "135524.511000", "135524.513000", "135524.516000", "135524.518000", "135524.521000", "135524.524000", "135524.526000", "135524.529000", "135524.531000", "135524.534000", "135524.536000", "135524.539000", "135524.542000", "135524.544000", "135524.547000", "135524.549000", "135524.552000", "135524.554000", "135524.557000", "135524.560000", "135604.512000", "135604.515000", "135604.517000", "135604.520000", "135604.522000", "135604.525000", "135604.528000", "135604.530000", "135604.533000", "135604.535000", "135604.538000", "135604.540000", "135604.543000", "135604.546000", "135604.548000", "135604.551000", "135604.553000", "135604.556000", "135604.558000", "135604.561000", "135604.564000", "135604.566000", "135604.569000", "135604.571000", "135604.574000", "135604.577000", "135604.579000", "135624.808000", "135624.810000", "135624.813000", "135624.816000", "135624.818000", "135624.821000", "135624.824000", "135624.826000", "135624.829000", "135624.831000", "135624.834000", "135624.837000", "135624.839000", "135624.842000"],
