{
  "AcquisitionMatrixPE": 104,
  "AcquisitionNumber": 1,
  "AcquisitionTime": "11:30:16.235000",
  "BandwidthPerPixelPhaseEncode": 17.17,
  "BaseResolution": 104,
  "BodyPartExamined": "BRAIN",
  "CoilString": "HC1-7;NC1_2",
  "ConsistencyInfo": "N4_VE11C_LATEST_20160120",
  "ConversionSoftware": "dcm2niix",
  "ConversionSoftwareVersion": "v1.0.20190902",
  "DerivedVendorReportedEchoSpacing": 0.000560011,
  "DeviceSerialNumber": "167006",
  "DwellTime": 2.1e-06,
  "EchoTime": 0.037,
  "EchoTrainLength": 104,
  "EffectiveEchoSpacing": 0.000560011,
  "FlipAngle": 52,
  "HeudiconvVersion": "0.10.0",
  "ImageComments": "Unaliased_MB4_PE3_LB",
  "ImageOrientationPatientDICOM": [0.999136, 0.021159, 0.0357666, -0.0101145, 0.958608, -0.28455],
  "ImageType": [
    "ORIGINAL",
    "PRIMARY",
    "M",
    "MB",
    "ND",
    "MOSAIC"
],
  "ImagingFrequency": 123.259,
  "InPlanePhaseEncodingDirectionDICOM": "COL",
  "InstitutionAddress": "Chemin_Queen-Mary_4565_Montreal_District_CA_H3W_1W5",
  "InstitutionName": "IUGM",
  "InstitutionalDepartmentName": "Department",
  "MRAcquisitionType": "2D",
  "MagneticFieldStrength": 3,
  "Manufacturer": "Siemens",
  "ManufacturersModelName": "Prisma_fit",
  "Modality": "MR",
  "MultibandAccelerationFactor": 4,
  "PartialFourier": 1,
  "PatientPosition": "HFS",
  "PercentPhaseFOV": 100,
  "PhaseEncodingDirection": "j",
  "PhaseEncodingSteps": 104,
  "PhaseResolution": 1,
  "PixelBandwidth": 2290,
  "ProcedureStepDescription": "games_mario",
  "ProtocolName": "func_task-mario_run-02",
  "PulseSequenceDetails": "%CustomerSeq%_cmrr_mbep2d_bold",
  "ReceiveCoilActiveElements": "HC1-7;NC1,2",
  "ReceiveCoilName": "HeadNeck_64",
  "ReconMatrixPE": 104,
  "RepetitionTime": 1.49,
  "SAR": 0.0468219,
  "ScanOptions": "FS",
  "ScanningSequence": "EP",
  "SequenceName": "epfid2d1_104",
  "SequenceVariant": "SK_SS",
  "SeriesDescription": "func_task-mario_run-02",
  "SeriesNumber": 13,
  "ShimSetting": [635, -7197, -8786, 704, 38, 30, 50, -15],
  "SliceThickness": 2,
  "SliceTiming": [0, 0.7825, 0.0975, 0.88, 0.195, 0.98, 0.2925, 1.0775, 0.39, 1.175, 0.49, 1.2725, 0.5875, 1.37, 0.685, 0, 0.7825, 0.0975, 0.88, 0.195, 0.98, 0.2925, 1.0775, 0.39, 1.175, 0.49, 1.2725, 0.5875, 1.37, 0.685, 0, 0.7825, 0.0975, 0.88, 0.195, 0.98, 0.2925, 1.0775, 0.39, 1.175, 0.49, 1.2725, 0.5875, 1.37, 0.685, 0, 0.7825, 0.0975, 0.88, 0.195, 0.98, 0.2925, 1.0775, 0.39, 1.175, 0.49, 1.2725, 0.5875, 1.37, 0.685],
  "SoftwareVersions": "syngo_MR_E11",
  "SpacingBetweenSlices": 2,
  "StationName": "MRC35049",
  "TaskName": "mario",
  "TotalReadoutTime": 0.0576811,
  "TxRefAmp": 227.78,
  "WipMemBlock": "912970ea-bba6-42ab-aec2-4c197625f74e||Sequence: R016 ve11c/master r/e634e98; Dec 19 2017 11:00:25 by eja",
  "dcmmeta_affine": [
    [-1.9982722997665405, -0.020229097455739975, 0.08061395585536957, 107.92132568359375],
    [-0.04231807589530945, 1.9172154664993286, -0.5678855776786804, -69.6091537475586],
    [0.07153325527906418, 0.5691006779670715, 1.915987253189087, -66.30850982666016],
    [0.0, 0.0, 0.0, 1.0]
],
  "dcmmeta_reorient_transform": [
    [0.0, -1.0, 0.0, 103.0],
    [1.0, 0.0, 0.0, 0.0],
    [0.0, 0.0, 1.0, 0.0],
    [0.0, 0.0, 0.0, 1.0]
],
  "dcmmeta_shape": [104, 104, 60, 567],
  "dcmmeta_slice_dim": 2,
  "dcmmeta_version": 0.6,
  "global": {
    "const": {
      "AcquisitionMatrix": [104, 0, 0, 104],
      "AngioFlag": "N",
      "BitsAllocated": 16,
      "BitsStored": 16,
      "BodyPartExamined": "BRAIN",
      "Columns": 832,
      "EchoNumbers": 1,
      "EchoTime": 37.0,
      "EchoTrainLength": 104,
      "FlipAngle": 52.0,
      "HighBit": 15,
      "ImageOrientationPatient": [0.99913614865261, 0.0211590375252, 0.03576662671584, -0.0101145482841, 0.95860773656844, -0.2845503528449],
      "ImagePositionPatient": [-825.84545010424, -841.13425400428, 173.4234162795],
      "ImageType": [
        "ORIGINAL",
        "PRIMARY",
        "M",
        "MB",
        "ND",
        "MOSAIC"
],
      "ImagedNucleus": "1H",
      "ImagingFrequency": 123.2589,
      "InPlanePhaseEncodingDirection": "COL",
      "MRAcquisitionType": "2D",
      "MagneticFieldStrength": 3.0,
      "Manufacturer": "SIEMENS",
      "ManufacturerModelName": "Prisma_fit",
      "Modality": "MR",
      "NumberOfAverages": 1.0,
      "NumberOfPhaseEncodingSteps": 104,
      "PercentPhaseFieldOfView": 100.0,
      "PercentSampling": 100.0,
      "PerformedProcedureStepStartTime": "095059.334000",
      "PhotometricInterpretation": "MONOCHROME2",
      "PixelBandwidth": 2290.0,
      "PixelRepresentation": 0,
      "PixelSpacing": [2.0, 2.0],
      "ProtocolName": "func_task-mario_run-02",
      "RepetitionTime": 1490.0,
      "Rows": 832,
      "SAR": 0.0468219225766,
      "SamplesPerPixel": 1,
      "ScanOptions": "FS",
      "ScanningSequence": "EP",
      "SequenceName": "epfid2d1_104",
      "SequenceVariant": [
        "SK",
        "SS"
],
      "SeriesDescription": "func_task-mario_run-02",
      "SeriesNumber": 13,
      "SeriesTime": "113148.336000",
      "SliceLocation": -39.408132836023,
      "SliceThickness": 2.0,
      "SmallestImagePixelValue": 0,
      "SoftwareVersions": "syngo MR E11",
      "SpacingBetweenSlices": 1.9999999935538,
      "SpecificCharacterSet": "ISO_IR 100",
      "StudyID": "1",
      "StudyTime": "095059.198000",
      "TransmitCoilName": "Body",
      "VariableFlipAngleFlag": "N",
      "WindowCenterWidthExplanation": "Algo1",
      "dBdt": 0.0},
    "slices": {}
  },
  "time": {
    "samples": {
      "AcquisitionNumber": [1, 2, 3, 4, 5, 6, 7, 8, 9, 10, 11, 12, 13, 14, 15, 16, 17, 18, 19, 20, 21, 22, 23, 24, 25, 26, 27, 28, 29, 30, 31, 32, 33, 34, 35, 36, 37, 38, 39, 40, 41, 42, 43, 44, 45, 46, 47, 48, 49, 50, 51, 52, 53, 54, 55, 56, 57, 58, 59, 60, 61, 62, 63, 64, 65, 66, 67, 68, 69, 70, 71, 72, 73, 74, 75, 76, 77, 78, 79, 80, 81, 82, 83, 84, 85, 86, 87, 88, 89, 90, 91, 92, 93, 94, 95, 96, 97, 98, 99, 100, 101, 102, 103, 104, 105, 106, 107, 108, 109, 110, 111, 112, 113, 114, 115, 116, 117, 118, 119, 120, 121, 122, 123, 124, 125, 126, 127, 128, 129, 130, 131, 132, 133, 134, 135, 136, 137, 138, 139, 140, 141, 142, 143, 144, 145, 146, 147, 148, 149, 150, 151, 152, 153, 154, 155, 156, 157, 158, 159, 160, 161, 162, 163, 164, 165, 166, 167, 168, 169, 170, 171, 172, 173, 174, 175, 176, 177, 178, 179, 180, 181, 182, 183, 184, 185, 186, 187, 188, 189, 190, 191, 192, 193, 194, 195, 196, 197, 198, 199, 200, 201, 202, 203, 204, 205, 206, 207, 208, 209, 210, 211, 212, 213, 214, 215, 216, 217, 218, 219, 220, 221, 222, 223, 224, 225, 226, 227, 228, 229, 230, 231, 232, 233, 234, 235, 236, 237, 238, 239, 240, 241, 242, 243, 244, 245, 246, 247, 248, 249, 250, 251, 252, 253, 254, 255, 256, 257, 258, 259, 260, 261, 262, 263, 264, 265, 266, 267, 268, 269, 270, 271, 272, 273, 274, 275, 276, 277, 278, 279, 280, 281, 282, 283, 284, 285, 286, 287, 288, 289, 290, 291, 292, 293, 294, 295, 296, 297, 298, 299, 300, 301, 302, 303, 304, 305, 306, 307, 308, 309, 310, 311, 312, 313, 314, 315, 316, 317, 318, 319, 320, 321, 322, 323, 324, 325, 326, 327, 328, 329, 330, 331, 332, 333, 334, 335, 336, 337, 338, 339, 340, 341, 342, 343, 344, 345, 346, 347, 348, 349, 350, 351, 352, 353, 354, 355, 356, 357, 358, 359, 360, 361, 362, 363, 364, 365, 366, 367, 368, 369, 370, 371, 372, 373, 374, 375, 376, 377, 378, 379, 380, 381, 382, 383, 384, 385, 386, 387, 388, 389, 390, 391, 392, 393, 394, 395, 396, 397, 398, 399, 400, 401, 402, 403, 404, 405, 406, 407, 408, 409, 410, 411, 412, 413, 414, 415, 416, 417, 418, 419, 420, 421, 422, 423, 424, 425, 426, 427, 428, 429, 430, 431, 432, 433, 434, 435, 436, 437, 438, 439, 440, 441, 442, 443, 444, 445, 446, 447, 448, 449, 450, 451, 452, 453, 454, 455, 456, 457, 458, 459, 460, 461, 462, 463, 464, 465, 466, 467, 468, 469, 470, 471, 472, 473, 474, 475, 476, 477, 478, 479, 480, 481, 482, 483, 484, 485, 486, 487, 488, 489, 490, 491, 492, 493, 494, 495, 496, 497, 498, 499, 500, 501, 502, 503, 504, 505, 506, 507, 508, 509, 510, 511, 512, 513, 514, 515, 516, 517, 518, 519, 520, 521, 522, 523, 524, 525, 526, 527, 528, 529, 530, 531, 532, 533, 534, 535, 536, 537, 538, 539, 540, 541, 542, 543, 544, 545, 546, 547, 548, 549, 550, 551, 552, 553, 554, 555, 556, 557, 558, 559, 560, 561, 562, 563, 564, 565, 566, 567],
      "AcquisitionTime": ["113016.235000", "113017.725000", "113019.215000", "113020.705000", "113022.195000", "113023.685000", "113025.175000", "113026.665000", "113028.155000", "113029.645000", "113031.135000", "113032.625000", "113034.115000", "113035.605000", "113037.095000", "113038.585000", "113040.075000", "113041.565000", "113043.055000", "113044.545000", "113046.035000", "113047.525000", "113049.015000", "113050.505000", "113051.995000", "113053.485000", "113054.975000", "113056.465000", "113057.955000", "113059.445000", "113100.935000", "113102.425000", "113103.915000", "113105.405000", "113106.895000", "113108.385000", "113109.875000", "113111.365000", "113112.855000", "113114.345000", "113115.835000", "113117.325000", "113118.815000", "113120.305000", "113121.795000", "113123.285000", "113124.775000", "113126.265000", "113127.755000", "113129.245000", "113130.735000", "113132.225000", "113133.715000", "113135.205000", "113136.695000", "113138.185000", "113139.675000", "113141.165000", "113142.655000", "113144.145000", "113145.635000", "113147.125000", "113148.615000", "113150.105000", "113151.595000", "113153.085000", "113154.575000", "113156.065000", "113157.555000", "113159.045000", "113200.535000", "113202.025000", "113203.515000", "113205.005000", "113206.495000", "113207.985000", "113209.475000", "113210.965000", "113212.455000", "113213.945000", "113215.435000", "113216.925000", "113218.415000", "113219.905000", "113221.395000", "113222.885000", "113224.375000", "113225.865000", "113227.355000", "113228.845000", "113230.335000", "113231.825000", "113233.315000", "113234.805000", "113236.295000", "113237.785000", "113239.275000", "113240.765000", "113242.255000", "113243.745000", "113245.235000", "113246.725000", "113248.215000", "113249.705000", "113251.195000", "113252.685000", "113254.175000", "113255.665000", "113257.155000", "113258.645000", "113300.135000", "113301.625000", "113303.115000", "113304.605000", "113306.095000", "113307.585000", "113309.075000", "113310.565000", "113312.055000", "113313.545000", "113315.035000", "113316.525000", "113318.015000", "113319.505000", "113320.995000", "113322.485000", "113323.975000", "113325.465000", "113326.955000", "113328.445000", "113329.935000", "113331.425000", "113332.915000", "113334.405000", "113335.895000", "113337.385000", "113338.875000", "113340.365000", "113341.855000", "113343.345000", "113344.835000", "113346.325000", "113347.815000", "113349.305000", "113350.795000", "113352.285000", "113353.775000", "113355.265000", "113356.755000", "113358.245000", "113359.735000", "113401.225000", "113402.715000", "113404.205000", "113405.695000", "113407.185000", "113408.675000", "113410.165000", "113411.655000", "113413.145000", "113414.635000", "113416.125000", "113417.615000", "113419.105000", "113420.595000", "113422.085000", "113423.575000", "113425.065000", "113426.555000", "113428.045000", "113429.535000", "113431.025000", "113432.515000", "113434.005000", "113435.495000", "113436.985000", "113438.475000", "113439.965000", "113441.455000", "113442.945000", "113444.435000", "113445.925000", "113447.415000", "113448.905000", "113450.395000", "113451.885000", "113453.375000", "113454.865000", "113456.355000", "113457.845000", "113459.335000", "113500.825000", "113502.315000", "113503.805000", "113505.295000", "113506.785000", "113508.275000", "113509.765000", "113511.255000", "113512.745000", "113514.235000", "113515.725000", "113517.215000", "113518.705000", "113520.195000", "113521.685000", "113523.175000", "113524.665000", "113526.155000", "113527.645000", "113529.135000", "113530.625000", "113532.115000", "113533.605000", "113535.095000", "113536.585000", "113538.075000", "113539.565000", "113541.055000", "113542.545000", "113544.035000", "113545.525000", "113547.015000", "113548.505000", "113549.995000", "113551.485000", "113552.975000", "113554.465000", "113555.955000", "113557.445000", "113558.935000", "113600.425000", "113601.915000", "113603.405000", "113604.895000", "113606.385000", "113607.875000", "113609.365000", "113610.855000", "113612.345000", "113613.835000", "113615.325000", "113616.815000", "113618.305000", "113619.795000", "113621.285000", "113622.775000", "113624.265000", "113625.755000", "113627.245000", "113628.735000", "113630.225000", "113631.715000", "113633.205000", "113634.695000", "113636.185000", "113637.675000", "113639.165000", "113640.655000", "113642.145000", "113643.635000", "113645.125000", "113646.615000", "113648.105000", "113649.595000", "113651.085000", "113652.575000", "113654.065000", "113655.555000", "113657.045000", "113658.535000", "113700.025000", "113701.515000", "113703.005000", "113704.495000", "113705.985000", "113707.475000", "113708.965000", "113710.455000", "113711.945000", "113713.435000", "113714.925000", "113716.415000", "113717.905000", "113719.395000", "113720.885000", "113722.375000", "113723.865000", "113725.355000", "113726.845000", "113728.335000", "113729.825000", "113731.315000", "113732.805000", "113734.295000", "113735.785000", "113737.275000", "113738.765000", "113740.255000", "113741.745000", "113743.235000", "113744.725000", "113746.215000", "113747.705000", "113749.195000", "113750.685000", "113752.175000", "113753.665000", "113755.155000", "113756.645000", "113758.135000", "113759.625000", "113801.115000", "113802.605000", "113804.095000", "113805.585000", "113807.075000", "113808.565000", "113810.055000", "113811.545000", "113813.035000", "113814.525000", "113816.015000", "113817.505000", "113818.995000", "113820.485000", "113821.975000", "113823.465000", "113824.955000", "113826.445000", "113827.935000", "113829.425000", "113830.915000", "113832.405000", "113833.895000", "113835.385000", "113836.875000", "113838.365000", "113839.855000", "113841.345000", "113842.835000", "113844.325000", "113845.815000", "113847.305000", "113848.795000", "113850.285000", "113851.775000", "113853.265000", "113854.755000", "113856.245000", "113857.735000", "113859.225000", "113900.715000", "113902.205000", "113903.695000", "113905.185000", "113906.675000", "113908.165000", "113909.655000", "113911.145000", "113912.635000", "113914.125000", "113915.615000", "113917.105000", "113918.595000", "113920.085000", "113921.575000", "113923.065000", "113924.555000", "113926.045000", "113927.535000", "113929.025000", "113930.515000", "113932.005000", "113933.495000", "113934.985000", "113936.475000", "113937.965000", "113939.455000", "113940.945000", "113942.435000", "113943.925000", "113945.415000", "113946.905000", "113948.395000", "113949.885000", "113951.375000", "113952.865000", "113954.355000", "113955.845000", "113957.335000", "113958.825000", "114000.315000", "114001.805000", "114003.295000", "114004.785000", "114006.275000", "114007.765000", "114009.255000", "114010.745000", "114012.235000", "114013.725000", "114015.215000", "114016.705000", "114018.195000", "114019.685000", "114021.175000", "114022.665000", "114024.155000", "114025.645000", "114027.135000", "114028.625000", "114030.115000", "114031.605000", "114033.095000", "114034.585000", "114036.075000", "114037.565000", "114039.055000", "114040.545000", "114042.035000", "114043.525000", "114045.015000", "114046.505000", "114047.995000", "114049.485000", "114050.975000", "114052.465000", "114053.955000", "114055.445000", "114056.935000", "114058.425000", "114059.915000", "114101.405000", "114102.895000", "114104.385000", "114105.875000", "114107.365000", "114108.855000", "114110.345000", "114111.835000", "114113.325000", "114114.815000", "114116.305000", "114117.795000", "114119.285000", "114120.775000", "114122.265000", "114123.755000", "114125.245000", "114126.735000", "114128.225000", "114129.715000", "114131.205000", "114132.695000", "114134.185000", "114135.675000", "114137.165000", "114138.655000", "114140.145000", "114141.635000", "114143.125000", "114144.615000", "114146.105000", "114147.595000", "114149.085000", "114150.575000", "114152.065000", "114153.555000", "114155.045000", "114156.535000", "114158.025000", "114159.515000", "114201.005000", "114202.495000", "114203.985000", "114205.475000", "114206.965000", "114208.455000", "114209.945000", "114211.435000", "114212.925000", "114214.415000", "114215.905000", "114217.395000", "114218.885000", "114220.375000", "114221.865000", "114223.355000", "114224.845000", "114226.335000", "114227.825000", "114229.315000", "114230.805000", "114232.295000", "114233.785000", "114235.275000", "114236.765000", "114238.255000", "114239.745000", "114241.235000", "114242.725000", "114244.215000", "114245.705000", "114247.195000", "114248.685000", "114250.175000", "114251.665000", "114253.155000", "114254.645000", "114256.135000", "114257.625000", "114259.115000", "114300.605000", "114302.095000", "114303.585000", "114305.075000", "114306.565000", "114308.055000", "114309.545000", "114311.035000", "114312.525000", "114314.015000", "114315.505000", "114316.995000", "114318.485000", "114319.975000", "114321.465000", "114322.955000", "114324.445000", "114325.935000", "114327.425000", "114328.915000", "114330.405000", "114331.895000", "114333.385000", "114334.875000", "114336.365000", "114337.855000", "114339.345000", "114340.835000", "114342.325000", "114343.815000", "114345.305000", "114346.795000", "114348.285000", "114349.775000", "114351.265000", "114352.755000", "114354.245000", "114355.735000", "114357.225000", "114358.715000", "114400.205000", "114401.695000", "114403.185000", "114404.675000", "114406.165000", "114407.655000", "114409.145000", "114410.635000", "114412.125000", "114413.615000", "114415.105000", "114416.595000", "114418.085000", "114419.575000"],
      "ContentTime": ["113148.340000", "113148.344000", "113148.347000", "113148.350000", "113148.353000", "113148.357000", "113148.360000", "113148.363000", "113148.367000", "113148.370000", "113148.373000", "113148.376000", "113148.380000", "113148.383000", "113148.389000", "113148.392000", "113148.396000", "113148.399000", "113148.402000", "113148.405000", "113148.409000", "113148.412000", "113148.415000", "113148.419000", "113148.422000", "113148.426000", "113148.429000", "113148.433000", "113148.447000", "113148.451000", "113148.454000", "113148.457000", "113148.460000", "113148.464000", "113148.467000", "113148.470000", "113148.473000", "113148.477000", "113208.308000", "113208.312000", "113208.315000", "113208.318000", "113208.322000", "113208.325000", "113208.328000", "113208.332000", "113208.335000", "113208.338000", "113208.342000", "113208.345000", "113208.348000", "113208.351000", "113208.355000", "113208.358000", "113208.362000", "113208.365000", "113208.368000", "113208.372000", "113228.308000", "113228.312000", "113228.315000", "113228.318000", "113228.322000", "113228.325000", "113228.328000", "113228.331000", "113228.335000", "113228.338000", "113228.341000", "113228.345000", "113228.348000", "113228.351000", "113228.354000", "113228.358000", "113228.361000", "113228.364000", "113228.367000", "113228.371000", "113248.308000", "113248.312000", "113248.315000", "113248.318000", "113248.322000", "113248.325000", "113248.329000", "113248.332000", "113248.335000", "113248.339000", "113248.342000", "113248.345000", "113248.348000", "113248.352000", "113248.355000", "113248.358000", "113248.362000", "113248.365000", "113248.368000", "113248.371000", "113328.308000", "113328.312000", "113328.315000", "113328.318000", "113328.321000", "113328.325000", "113328.328000", "113328.332000", "113328.335000", "113328.338000", "113328.342000", "113328.345000", "113328.348000", "113328.352000", "113328.355000", "113328.358000", "113328.361000", "113328.365000", "113328.368000", "113328.371000", "113328.375000", "113328.378000", "113328.381000", "113328.384000", "113328.388000", "113328.391000", "113328.394000", "113328.397000", "113328.401000", "113328.404000", "113408.308000", "113408.312000", "113408.315000", "113408.318000", "113408.322000", "113408.325000", "113408.328000", "113408.332000", "113408.335000", "113408.338000", "113408.342000", "113408.345000", "113408.348000", "113408.352000", "113408.355000", "113408.358000", "113408.362000", "113408.365000", "113408.368000", "113408.371000", "113408.375000", "113408.378000", "113408.381000", "113408.384000", "113408.388000", "113408.391000", "113408.394000", "113448.308000", "113448.321000", "113448.325000", "113448.328000", "113448.331000", "113448.334000", "113448.338000", "113448.341000", "113448.344000", "113448.348000", "113448.351000", "113448.354000", "113448.358000", "113448.362000", "113448.366000", "113448.370000", "113448.373000", "113448.377000", "113448.381000", "113448.384000", "113448.388000", "113448.391000", "113448.394000", "113448.398000", "113448.401000", "113448.404000", "113528.307000", "113528.311000", "113528.314000", "113528.317000", "113528.321000", "113528.324000", "113528.327000", "113528.331000", "113528.334000", "113528.337000", "113528.340000", "113528.344000", "113528.347000", "113528.350000", "113528.354000", "113528.357000", "113528.360000", "113528.363000", "113528.367000", "113528.370000", "113528.373000", "113528.377000", "113528.380000", "113528.383000", "113528.387000", "113528.390000", "113528.393000", "113608.308000", "113608.312000", "113608.315000", "113608.319000", "113608.322000", "113608.325000", "113608.328000", "113608.332000", "113608.335000", "113608.338000", "113608.341000", "113608.345000", "113608.348000", "113608.351000", "113608.363000", "113608.366000", "113608.369000", "113608.373000", "113608.376000", "113608.379000", "113608.382000", "113608.386000", "113608.389000", "113608.392000", "113608.396000", "113608.399000", "113608.402000", "113648.308000", "113648.312000", "113648.315000", "113648.318000", "113648.322000", "113648.325000", "113648.328000", "113648.332000", "113648.335000", "113648.338000", "113648.341000", "113648.345000", "113648.348000", "113648.351000", "113648.355000", "113648.358000", "113648.361000", "113648.365000", "113648.368000", "113648.371000", "113648.375000", "113648.378000", "113648.381000", "113648.384000", "113648.388000", "113648.391000", "113648.394000", "113728.308000", "113728.312000", "113728.315000", "113728.319000", "113728.322000", "113728.325000", "113728.329000", "113728.332000", "113728.335000", "113728.338000", "113728.342000", "113728.345000", "113728.348000", "113728.352000", "113728.355000", "113728.358000", "113728.362000", "113728.365000", "113728.368000", "113728.371000", "113728.375000", "113728.378000", "113728.381000", "113728.384000", "113728.388000", "113728.391000", "113728.394000", "113808.308000", "113808.312000", "113808.315000", "113808.318000", "113808.322000", "113808.325000", "113808.328000", "113808.332000", "113808.335000", "113808.338000", "113808.341000", "113808.345000", "113808.348000", "113808.351000", "113808.354000", "113808.358000", "113808.361000", "113808.364000", "113808.368000", "113808.371000", "113808.374000", "113808.377000", "113808.381000", "113808.384000", "113808.387000", "113808.391000", "113808.394000", "113848.308000", "113848.312000", "113848.315000", "113848.318000", "113848.322000", "113848.325000", "113848.329000", "113848.332000", "113848.335000", "113848.339000", "113848.342000", "113848.345000", "113848.349000", "113848.352000", "113848.355000", "113848.359000", "113848.362000", "113848.365000", "113848.369000", "113848.372000", "113848.375000", "113848.378000", "113848.382000", "113848.385000", "113848.388000", "113848.392000", "113848.395000", "113928.308000", "113928.312000", "113928.315000", "113928.319000", "113928.322000", "113928.325000", "113928.329000", "113928.332000", "113928.336000", "113928.340000", "113928.343000", "113928.347000", "113928.350000", "113928.353000", "113928.357000", "113928.360000", "113928.363000", "113928.367000", "113928.370000", "113928.373000", "113928.376000", "113928.380000", "113928.383000", "113928.387000", "113928.390000", "113928.394000", "114008.307000", "114008.311000", "114008.314000", "114008.317000", "114008.321000", "114008.324000", "114008.327000", "114008.331000", "114008.334000", "114008.337000", "114008.340000", "114008.344000", "114008.347000", "114008.350000", "114008.353000", "114008.357000", "114008.360000", "114008.363000", "114008.366000", "114008.370000", "114008.373000", "114008.376000", "114008.380000", "114008.383000", "114008.386000", "114008.390000", "114008.393000", "114048.308000", "114048.312000", "114048.315000", "114048.318000", "114048.322000", "114048.325000", "114048.328000", "114048.348000", "114048.351000", "114048.355000", "114048.358000", "114048.362000", "114048.365000", "114048.368000", "114048.372000", "114048.375000", "114048.378000", "114048.382000", "114048.385000", "114048.388000", "114048.392000", "114048.395000", "114048.398000", "114048.401000", "114048.405000", "114048.408000", "114048.411000", "114128.308000", "114128.312000", "114128.315000", "114128.319000", "114128.322000", "114128.325000", "114128.328000", "114128.332000", "114128.335000", "114128.338000", "114128.342000", "114128.345000", "114128.348000", "114128.352000", "114128.355000", "114128.358000", "114128.362000", "114128.365000", "114128.368000", "114128.372000", "114128.375000", "114128.378000", "114128.382000", "114128.385000", "114128.388000", "114128.391000", "114128.395000", "114208.308000", "114208.312000", "114208.315000", "114208.318000", "114208.322000", "114208.325000", "114208.328000", "114208.332000", "114208.335000", "114208.338000", "114208.341000", "114208.345000", "114208.348000", "114208.351000", "114208.354000", "114208.358000", "114208.361000", "114208.364000", "114208.368000", "114208.371000", "114208.374000", "114208.378000", "114208.381000", "114208.384000", "114208.388000", "114208.391000", "114208.394000", "114228.307000", "114228.311000", "114228.314000", "114228.317000", "114228.321000", "114228.324000", "114228.327000", "114228.331000", "114228.334000", "114228.337000", "114228.340000", "114228.360000", "114228.364000", "114308.308000", "114308.312000", "114308.315000", "114308.318000", "114308.322000", "114308.325000", "114308.328000", "114308.332000", "114308.335000", "114308.338000", "114308.341000", "114308.345000", "114308.348000", "114308.351000", "114308.354000", "114308.358000", "114308.361000", "114308.364000", "114308.368000", "114308.371000", "114308.374000", "114308.378000", "114308.381000", "114308.384000", "114308.387000", "114308.391000", "114308.394000", "114348.308000", "114348.312000", "114348.315000", "114348.319000", "114348.322000", "114348.325000", "114348.328000", "114348.332000", "114348.335000", "114348.338000", "114348.342000", "114348.345000", "114348.348000", "114348.351000", "114348.355000", "114348.358000", "114348.361000", "114348.365000", "114348.368000", "114348.371000", "114348.374000", "114348.378000", "114348.381000", "114348.384000", "114348.388000", "114348.391000", "114348.394000", "114422.434000", "114422.438000", "114422.441000", "114422.444000", "114422.448000", "114422.451000", "114422.454000", "114422.457000", "114422.461000", "114422.464000", "114422.467000", "114422.471000", "114422.474000", "114422.477000", "114422.481000", "114422.484000", "114422.487000", "114422.490000", "114422.494000", "114422.497000", "114422.500000", "114422.503000", "114422.507000"],
