{
  "AcquisitionMatrixPE": 104,
  "AcquisitionNumber": 1,
  "AcquisitionTime": "11:16:58.780000",
  "BandwidthPerPixelPhaseEncode": 17.17,
  "BaseResolution": 104,
  "BodyPartExamined": "BRAIN",
  "CoilString": "HC1-7;NC1_2",
  "ConsistencyInfo": "N4_VE11C_LATEST_20160120",
  "ConversionSoftware": "dcm2niix",
  "ConversionSoftwareVersion": "v1.0.20190902",
  "DerivedVendorReportedEchoSpacing": 0.000560011,
  "DeviceSerialNumber": "167006",
  "DwellTime": 2.1e-06,
  "EchoTime": 0.037,
  "EchoTrainLength": 104,
  "EffectiveEchoSpacing": 0.000560011,
  "FlipAngle": 52,
  "HeudiconvVersion": "0.10.0",
  "ImageComments": "Unaliased_MB4_PE3_LB",
  "ImageOrientationPatientDICOM": [0.999136, 0.021159, 0.0357666, -0.0101145, 0.958608, -0.28455],
  "ImageType": [
    "ORIGINAL",
    "PRIMARY",
    "P",
    "MB",
    "ND",
    "MOSAIC"
],
  "ImagingFrequency": 123.259,
  "InPlanePhaseEncodingDirectionDICOM": "COL",
  "InstitutionAddress": "Chemin_Queen-Mary_4565_Montreal_District_CA_H3W_1W5",
  "InstitutionName": "IUGM",
  "InstitutionalDepartmentName": "Department",
  "MRAcquisitionType": "2D",
  "MagneticFieldStrength": 3,
  "Manufacturer": "Siemens",
  "ManufacturersModelName": "Prisma_fit",
  "Modality": "MR",
  "MultibandAccelerationFactor": 4,
  "PartialFourier": 1,
  "PatientPosition": "HFS",
  "PercentPhaseFOV": 100,
  "PhaseEncodingDirection": "j",
  "PhaseEncodingSteps": 104,
  "PhaseResolution": 1,
  "PixelBandwidth": 2290,
  "ProcedureStepDescription": "games_mario",
  "ProtocolName": "func_task-mario_run-01",
  "PulseSequenceDetails": "%CustomerSeq%_cmrr_mbep2d_bold",
  "ReceiveCoilActiveElements": "HC1-7;NC1,2",
  "ReceiveCoilName": "HeadNeck_64",
  "ReconMatrixPE": 104,
  "RepetitionTime": 1.49,
  "SAR": 0.0468219,
  "ScanOptions": "FS",
  "ScanningSequence": "EP",
  "SequenceName": "epfid2d1_104",
  "SequenceVariant": "SK_SS",
  "SeriesDescription": "func_task-mario_run-01",
  "SeriesNumber": 11,
  "ShimSetting": [635, -7197, -8786, 704, 38, 30, 50, -15],
  "SliceThickness": 2,
  "SliceTiming": [0, 0.7825, 0.0975, 0.8825, 0.195, 0.98, 0.2925, 1.0775, 0.3925, 1.175, 0.49, 1.2725, 0.5875, 1.3725, 0.685, 0, 0.7825, 0.0975, 0.8825, 0.195, 0.98, 0.2925, 1.0775, 0.3925, 1.175, 0.49, 1.2725, 0.5875, 1.3725, 0.685, 0, 0.7825, 0.0975, 0.8825, 0.195, 0.98, 0.2925, 1.0775, 0.3925, 1.175, 0.49, 1.2725, 0.5875, 1.3725, 0.685, 0, 0.7825, 0.0975, 0.8825, 0.195, 0.98, 0.2925, 1.0775, 0.3925, 1.175, 0.49, 1.2725, 0.5875, 1.3725, 0.685],
  "SoftwareVersions": "syngo_MR_E11",
  "SpacingBetweenSlices": 2,
  "StationName": "MRC35049",
  "TaskName": "mario",
  "TotalReadoutTime": 0.0576811,
  "TxRefAmp": 227.78,
  "WipMemBlock": "39b9cff1-8023-45a0-8cdf-108cc0dc7a12||Sequence: R016 ve11c/master r/e634e98; Dec 19 2017 11:00:25 by eja",
  "dcmmeta_affine": [
    [-1.9982722997665405, -0.020229097455739975, 0.08061395585536957, 107.92132568359375],
    [-0.04231807589530945, 1.9172154664993286, -0.5678855776786804, -69.6091537475586],
    [0.07153325527906418, 0.5691006779670715, 1.915987253189087, -66.30850982666016],
    [0.0, 0.0, 0.0, 1.0]
],
  "dcmmeta_reorient_transform": [
    [0.0, -1.0, 0.0, 103.0],
    [1.0, 0.0, 0.0, 0.0],
    [0.0, 0.0, 1.0, 0.0],
    [0.0, 0.0, 0.0, 1.0]
],
  "dcmmeta_shape": [104, 104, 60, 480],
  "dcmmeta_slice_dim": 2,
  "dcmmeta_version": 0.6,
  "global": {
    "const": {
      "AcquisitionMatrix": [104, 0, 0, 104],
      "AngioFlag": "N",
      "BitsAllocated": 16,
      "BitsStored": 16,
      "BodyPartExamined": "BRAIN",
      "Columns": 832,
      "EchoNumbers": 1,
      "EchoTime": 37.0,
      "EchoTrainLength": 104,
      "FlipAngle": 52.0,
      "HighBit": 15,
      "ImageOrientationPatient": [0.99913614865261, 0.0211590375252, 0.03576662671584, -0.0101145482841, 0.95860773656844, -0.2845503528449],
      "ImagePositionPatient": [-825.84545010424, -841.13425400428, 173.4234162795],
      "ImageType": [
        "ORIGINAL",
        "PRIMARY",
        "P",
        "MB",
        "ND",
        "MOSAIC"
],
      "ImagedNucleus": "1H",
      "ImagingFrequency": 123.258884,
      "InPlanePhaseEncodingDirection": "COL",
      "LargestImagePixelValue": 4095,
      "MRAcquisitionType": "2D",
      "MagneticFieldStrength": 3.0,
      "Manufacturer": "SIEMENS",
      "ManufacturerModelName": "Prisma_fit",
      "Modality": "MR",
      "NumberOfAverages": 1.0,
      "NumberOfPhaseEncodingSteps": 104,
      "PercentPhaseFieldOfView": 100.0,
      "PercentSampling": 100.0,
      "PerformedProcedureStepStartTime": "095059.334000",
      "PhotometricInterpretation": "MONOCHROME2",
      "PixelBandwidth": 2290.0,
      "PixelRepresentation": 0,
      "PixelSpacing": [2.0, 2.0],
      "ProtocolName": "func_task-mario_run-01",
      "RepetitionTime": 1490.0,
      "RescaleIntercept": -4096.0,
      "RescaleSlope": 2.0,
      "RescaleType": "US",
      "Rows": 832,
      "SAR": 0.0468219225766,
      "SamplesPerPixel": 1,
      "ScanOptions": "FS",
      "ScanningSequence": "EP",
      "SequenceName": "epfid2d1_104",
      "SequenceVariant": [
        "SK",
        "SS"
],
      "SeriesDescription": "func_task-mario_run-01",
      "SeriesNumber": 11,
      "SeriesTime": "111819.690000",
      "SliceLocation": -39.408132836023,
      "SliceThickness": 2.0,
      "SmallestImagePixelValue": 0,
      "SoftwareVersions": "syngo MR E11",
      "SpacingBetweenSlices": 1.9999999935538,
      "SpecificCharacterSet": "ISO_IR 100",
      "StudyID": "1",
      "StudyTime": "095059.198000",
      "TransmitCoilName": "Body",
      "VariableFlipAngleFlag": "N",
      "WindowCenterWidthExplanation": "Algo1",
      "dBdt": 0.0},
    "slices": {}
  },
  "time": {
    "samples": {
      "AcquisitionNumber": [1, 2, 3, 4, 5, 6, 7, 8, 9, 10, 11, 12, 13, 14, 15, 16, 17, 18, 19, 20, 21, 22, 23, 24, 25, 26, 27, 28, 29, 30, 31, 32, 33, 34, 35, 36, 37, 38, 39, 40, 41, 42, 43, 44, 45, 46, 47, 48, 49, 50, 51, 52, 53, 54, 55, 56, 57, 58, 59, 60, 61, 62, 63, 64, 65, 66, 67, 68, 69, 70, 71, 72, 73, 74, 75, 76, 77, 78, 79, 80, 81, 82, 83, 84, 85, 86, 87, 88, 89, 90, 91, 92, 93, 94, 95, 96, 97, 98, 99, 100, 101, 102, 103, 104, 105, 106, 107, 108, 109, 110, 111, 112, 113, 114, 115, 116, 117, 118, 119, 120, 121, 122, 123, 124, 125, 126, 127, 128, 129, 130, 131, 132, 133, 134, 135, 136, 137, 138, 139, 140, 141, 142, 143, 144, 145, 146, 147, 148, 149, 150, 151, 152, 153, 154, 155, 156, 157, 158, 159, 160, 161, 162, 163, 164, 165, 166, 167, 168, 169, 170, 171, 172, 173, 174, 175, 176, 177, 178, 179, 180, 181, 182, 183, 184, 185, 186, 187, 188, 189, 190, 191, 192, 193, 194, 195, 196, 197, 198, 199, 200, 201, 202, 203, 204, 205, 206, 207, 208, 209, 210, 211, 212, 213, 214, 215, 216, 217, 218, 219, 220, 221, 222, 223, 224, 225, 226, 227, 228, 229, 230, 231, 232, 233, 234, 235, 236, 237, 238, 239, 240, 241, 242, 243, 244, 245, 246, 247, 248, 249, 250, 251, 252, 253, 254, 255, 256, 257, 258, 259, 260, 261, 262, 263, 264, 265, 266, 267, 268, 269, 270, 271, 272, 273, 274, 275, 276, 277, 278, 279, 280, 281, 282, 283, 284, 285, 286, 287, 288, 289, 290, 291, 292, 293, 294, 295, 296, 297, 298, 299, 300, 301, 302, 303, 304, 305, 306, 307, 308, 309, 310, 311, 312, 313, 314, 315, 316, 317, 318, 319, 320, 321, 322, 323, 324, 325, 326, 327, 328, 329, 330, 331, 332, 333, 334, 335, 336, 337, 338, 339, 340, 341, 342, 343, 344, 345, 346, 347, 348, 349, 350, 351, 352, 353, 354, 355, 356, 357, 358, 359, 360, 361, 362, 363, 364, 365, 366, 367, 368, 369, 370, 371, 372, 373, 374, 375, 376, 377, 378, 379, 380, 381, 382, 383, 384, 385, 386, 387, 388, 389, 390, 391, 392, 393, 394, 395, 396, 397, 398, 399, 400, 401, 402, 403, 404, 405, 406, 407, 408, 409, 410, 411, 412, 413, 414, 415, 416, 417, 418, 419, 420, 421, 422, 423, 424, 425, 426, 427, 428, 429, 430, 431, 432, 433, 434, 435, 436, 437, 438, 439, 440, 441, 442, 443, 444, 445, 446, 447, 448, 449, 450, 451, 452, 453, 454, 455, 456, 457, 458, 459, 460, 461, 462, 463, 464, 465, 466, 467, 468, 469, 470, 471, 472, 473, 474, 475, 476, 477, 478, 479, 480],
      "AcquisitionTime": ["111658.780000", "111700.270000", "111701.760000", "111703.250000", "111704.740000", "111706.230000", "111707.720000", "111709.210000", "111710.700000", "111712.190000", "111713.680000", "111715.170000", "111716.660000", "111718.150000", "111719.640000", "111721.130000", "111722.620000", "111724.110000", "111725.600000", "111727.090000", "111728.580000", "111730.070000", "111731.560000", "111733.050000", "111734.540000", "111736.030000", "111737.520000", "111739.010000", "111740.500000", "111741.990000", "111743.480000", "111744.970000", "111746.460000", "111747.950000", "111749.440000", "111750.930000", "111752.420000", "111753.910000", "111755.400000", "111756.890000", "111758.380000", "111759.870000", "111801.360000", "111802.850000", "111804.340000", "111805.830000", "111807.320000", "111808.810000", "111810.300000", "111811.790000", "111813.280000", "111814.770000", "111816.260000", "111817.750000", "111819.240000", "111820.730000", "111822.220000", "111823.710000", "111825.200000", "111826.690000", "111828.180000", "111829.670000", "111831.160000", "111832.650000", "111834.140000", "111835.630000", "111837.120000", "111838.610000", "111840.100000", "111841.590000", "111843.080000", "111844.570000", "111846.060000", "111847.550000", "111849.040000", "111850.530000", "111852.020000", "111853.510000", "111855.000000", "111856.490000", "111857.980000", "111859.470000", "111900.960000", "111902.450000", "111903.940000", "111905.430000", "111906.920000", "111908.410000", "111909.900000", "111911.390000", "111912.880000", "111914.370000", "111915.860000", "111917.350000", "111918.840000", "111920.330000", "111921.820000", "111923.310000", "111924.800000", "111926.290000", "111927.780000", "111929.270000", "111930.760000", "111932.250000", "111933.740000", "111935.230000", "111936.720000", "111938.210000", "111939.700000", "111941.190000", "111942.680000", "111944.170000", "111945.660000", "111947.150000", "111948.640000", "111950.130000", "111951.620000", "111953.110000", "111954.600000", "111956.090000", "111957.580000", "111959.070000", "112000.560000", "112002.050000", "112003.540000", "112005.030000", "112006.520000", "112008.010000", "112009.500000", "112010.990000", "112012.480000", "112013.970000", "112015.460000", "112016.950000", "112018.440000", "112019.930000", "112021.420000", "112022.910000", "112024.400000", "112025.890000", "112027.380000", "112028.870000", "112030.360000", "112031.850000", "112033.340000", "112034.830000", "112036.320000", "112037.810000", "112039.300000", "112040.790000", "112042.280000", "112043.770000", "112045.260000", "112046.750000", "112048.240000", "112049.730000", "112051.220000", "112052.710000", "112054.200000", "112055.690000", "112057.180000", "112058.670000", "112100.160000", "112101.650000", "112103.140000", "112104.630000", "112106.120000", "112107.610000", "112109.100000", "112110.590000", "112112.080000", "112113.570000", "112115.060000", "112116.550000", "112118.040000", "112119.530000", "112121.020000", "112122.510000", "112124.000000", "112125.490000", "112126.980000", "112128.470000", "112129.960000", "112131.450000", "112132.940000", "112134.430000", "112135.920000", "112137.410000", "112138.900000", "112140.390000", "112141.880000", "112143.370000", "112144.860000", "112146.350000", "112147.840000", "112149.330000", "112150.820000", "112152.310000", "112153.800000", "112155.290000", "112156.780000", "112158.270000", "112159.760000", "112201.250000", "112202.740000", "112204.230000", "112205.720000", "112207.210000", "112208.700000", "112210.190000", "112211.680000", "112213.170000", "112214.660000", "112216.150000", "112217.640000", "112219.130000", "112220.620000", "112222.110000", "112223.600000", "112225.090000", "112226.580000", "112228.070000", "112229.560000", "112231.050000", "112232.540000", "112234.030000", "112235.520000", "112237.010000", "112238.500000", "112239.990000", "112241.480000", "112242.970000", "112244.460000", "112245.950000", "112247.440000", "112248.930000", "112250.420000", "112251.910000", "112253.400000", "112254.890000", "112256.380000", "112257.870000", "112259.360000", "112300.850000", "112302.340000", "112303.830000", "112305.320000", "112306.810000", "112308.300000", "112309.790000", "112311.280000", "112312.770000", "112314.260000", "112315.750000", "112317.240000", "112318.730000", "112320.220000", "112321.710000", "112323.200000", "112324.690000", "112326.180000", "112327.670000", "112329.160000", "112330.650000", "112332.140000", "112333.630000", "112335.120000", "112336.610000", "112338.100000", "112339.590000", "112341.080000", "112342.570000", "112344.060000", "112345.550000", "112347.040000", "112348.530000", "112350.020000", "112351.510000", "112353.000000", "112354.490000", "112355.980000", "112357.470000", "112358.960000", "112400.450000", "112401.940000", "112403.430000", "112404.920000", "112406.410000", "112407.900000", "112409.390000", "112410.880000", "112412.370000", "112413.860000", "112415.350000", "112416.840000", "112418.330000", "112419.820000", "112421.310000", "112422.800000", "112424.290000", "112425.780000", "112427.270000", "112428.760000", "112430.250000", "112431.740000", "112433.230000", "112434.720000", "112436.210000", "112437.700000", "112439.190000", "112440.680000", "112442.170000", "112443.660000", "112445.150000", "112446.640000", "112448.130000", "112449.620000", "112451.110000", "112452.600000", "112454.090000", "112455.580000", "112457.070000", "112458.560000", "112500.050000", "112501.540000", "112503.030000", "112504.520000", "112506.010000", "112507.500000", "112508.990000", "112510.480000", "112511.970000", "112513.460000", "112514.950000", "112516.440000", "112517.930000", "112519.420000", "112520.910000", "112522.400000", "112523.890000", "112525.380000", "112526.870000", "112528.360000", "112529.850000", "112531.340000", "112532.830000", "112534.320000", "112535.810000", "112537.300000", "112538.790000", "112540.280000", "112541.770000", "112543.260000", "112544.750000", "112546.240000", "112547.730000", "112549.220000", "112550.710000", "112552.200000", "112553.690000", "112555.180000", "112556.670000", "112558.160000", "112559.650000", "112601.140000", "112602.630000", "112604.120000", "112605.610000", "112607.100000", "112608.590000", "112610.080000", "112611.570000", "112613.060000", "112614.550000", "112616.040000", "112617.530000", "112619.020000", "112620.510000", "112622.000000", "112623.490000", "112624.980000", "112626.470000", "112627.960000", "112629.450000", "112630.940000", "112632.430000", "112633.920000", "112635.410000", "112636.900000", "112638.390000", "112639.880000", "112641.370000", "112642.860000", "112644.350000", "112645.840000", "112647.330000", "112648.820000", "112650.310000", "112651.800000", "112653.290000", "112654.780000", "112656.270000", "112657.760000", "112659.250000", "112700.740000", "112702.230000", "112703.720000", "112705.210000", "112706.700000", "112708.190000", "112709.680000", "112711.170000", "112712.660000", "112714.150000", "112715.640000", "112717.130000", "112718.620000", "112720.110000", "112721.600000", "112723.090000", "112724.580000", "112726.070000", "112727.560000", "112729.050000", "112730.540000", "112732.030000", "112733.520000", "112735.010000", "112736.500000", "112737.990000", "112739.480000", "112740.970000", "112742.460000", "112743.950000", "112745.440000", "112746.930000", "112748.420000", "112749.910000", "112751.400000", "112752.890000", "112754.380000", "112755.870000", "112757.360000", "112758.850000", "112800.340000", "112801.830000", "112803.320000", "112804.810000", "112806.300000", "112807.790000", "112809.280000", "112810.770000", "112812.260000", "112813.750000", "112815.240000", "112816.730000", "112818.220000", "112819.710000", "112821.200000", "112822.690000", "112824.180000", "112825.670000", "112827.160000", "112828.650000", "112830.140000", "112831.630000", "112833.120000", "112834.610000", "112836.100000", "112837.590000", "112839.080000", "112840.570000", "112842.060000", "112843.550000", "112845.040000", "112846.530000", "112848.020000", "112849.510000", "112851.000000", "112852.490000"],
      "ContentTime": ["111819.692000", "111819.695000", "111819.698000", "111819.708000", "111819.710000", "111819.713000", "111819.715000", "111819.718000", "111819.720000", "111819.723000", "111819.725000", "111819.728000", "111819.730000", "111819.732000", "111819.735000", "111819.738000", "111819.747000", "111819.749000", "111819.752000", "111819.754000", "111819.757000", "111819.759000", "111819.762000", "111819.764000", "111839.633000", "111839.635000", "111839.638000", "111839.640000", "111839.643000", "111839.645000", "111839.648000", "111839.651000", "111839.653000", "111839.656000", "111839.658000", "111839.661000", "111839.663000", "111839.666000", "111839.668000", "111839.671000", "111839.673000", "111839.680000", "111839.683000", "111839.685000", "111859.637000", "111859.640000", "111859.642000", "111859.645000", "111859.647000", "111859.650000", "111859.652000", "111859.655000", "111859.657000", "111859.660000", "111859.662000", "111859.664000", "111859.667000", "111859.669000", "111859.672000", "111859.674000", "111859.677000", "111859.679000", "111859.682000", "111859.684000", "111919.636000", "111919.639000", "111919.641000", "111919.644000", "111919.646000", "111919.649000", "111919.651000", "111919.654000", "111919.656000", "111919.659000", "111919.661000", "111919.664000", "111919.666000", "111919.669000", "111919.671000", "111919.674000", "111919.676000", "111919.679000", "111919.681000", "111919.684000", "111939.658000", "111939.661000", "111939.663000", "111939.666000", "111939.668000", "111939.671000", "111939.673000", "111939.675000", "111939.678000", "111939.680000", "111939.683000", "111939.685000", "111939.688000", "111939.690000", "111939.693000", "111939.695000", "111939.698000", "111939.700000", "111939.703000", "111939.705000", "112019.689000", "112019.692000", "112019.694000", "112019.697000", "112019.699000", "112019.702000", "112019.704000", "112019.707000", "112019.709000", "112019.712000", "112019.714000", "112019.717000", "112019.719000", "112019.722000", "112019.724000", "112019.727000", "112019.729000", "112019.732000", "112019.734000", "112019.737000", "112019.739000", "112019.742000", "112019.744000", "112019.747000", "112019.749000", "112019.752000", "112019.754000", "112019.757000", "112019.759000", "112019.761000", "112059.675000", "112059.677000", "112059.680000", "112059.682000", "112059.685000", "112059.687000", "112059.690000", "112059.692000", "112059.695000", "112059.697000", "112059.700000", "112059.702000", "112059.705000", "112059.707000", "112059.709000", "112059.712000", "112059.714000", "112059.717000", "112059.719000", "112059.722000", "112059.724000", "112059.727000", "112059.729000", "112059.732000", "112059.734000", "112059.737000", "112059.739000", "112139.659000", "112139.662000", "112139.664000", "112139.667000", "112139.669000", "112139.672000", "112139.674000", "112139.677000", "112139.679000", "112139.682000", "112139.685000", "112139.687000", "112139.690000", "112139.692000", "112139.694000", "112139.697000", "112139.699000", "112139.702000", "112139.704000", "112139.707000", "112139.709000", "112139.712000", "112139.714000", "112139.717000", "112139.719000", "112139.722000", "112139.724000", "112219.644000", "112219.647000", "112219.649000", "112219.658000", "112219.660000", "112219.663000", "112219.665000", "112219.668000", "112219.670000", "112219.673000", "112219.675000", "112219.678000", "112219.681000", "112219.683000", "112219.685000", "112219.688000", "112219.691000", "112219.693000", "112219.696000", "112219.698000", "112219.701000", "112219.703000", "112219.705000", "112219.708000", "112219.711000", "112219.713000", "112219.716000", "112239.602000", "112239.605000", "112239.608000", "112239.610000", "112239.613000", "112239.615000", "112239.618000", "112239.620000", "112239.623000", "112239.625000", "112239.628000", "112239.630000", "112239.633000", "112319.680000", "112319.682000", "112319.685000", "112319.687000", "112319.690000", "112319.692000", "112319.695000", "112319.697000", "112319.700000", "112319.702000", "112319.705000", "112319.707000", "112319.710000", "112319.712000", "112319.715000", "112319.717000", "112319.720000", "112319.722000", "112319.725000", "112319.727000", "112319.730000", "112319.732000", "112319.735000", "112319.737000", "112319.740000", "112319.742000", "112319.745000", "112359.659000", "112359.662000", "112359.664000", "112359.667000", "112359.669000", "112359.672000", "112359.674000", "112359.677000", "112359.679000", "112359.682000", "112359.684000", "112359.687000", "112359.689000", "112359.692000", "112359.694000", "112359.697000", "112359.699000", "112359.702000", "112359.704000", "112359.707000", "112359.709000", "112359.712000", "112359.714000", "112359.717000", "112359.719000", "112359.722000", "112359.724000", "112439.667000", "112439.670000", "112439.672000", "112439.675000", "112439.677000", "112439.680000", "112439.682000", "112439.685000", "112439.687000", "112439.690000", "112439.692000", "112439.695000", "112439.697000", "112439.700000", "112439.702000", "112439.705000", "112439.707000", "112439.710000", "112439.712000", "112439.715000", "112439.717000", "112439.720000", "112439.723000", "112439.725000", "112439.728000", "112439.730000", "112439.732000", "112519.676000", "112519.678000", "112519.681000", "112519.684000", "112519.686000", "112519.688000", "112519.691000", "112519.693000", "112519.696000", "112519.698000", "112519.701000", "112519.703000", "112519.706000", "112519.708000", "112519.711000", "112519.713000", "112519.716000", "112519.718000", "112519.721000", "112519.723000", "112519.726000", "112519.728000", "112519.731000", "112519.733000", "112519.736000", "112519.738000", "112559.691000", "112559.693000", "112559.696000", "112559.698000", "112559.701000", "112559.703000", "112559.706000", "112559.708000", "112559.711000", "112559.713000", "112559.716000", "112559.718000", "112559.721000", "112559.723000", "112559.726000", "112559.728000", "112559.731000", "112559.733000", "112559.736000", "112559.738000", "112559.741000", "112559.743000", "112559.746000", "112559.749000", "112559.751000", "112559.753000", "112559.756000", "112639.669000", "112639.672000", "112639.674000", "112639.677000", "112639.679000", "112639.682000", "112639.684000", "112639.687000", "112639.689000", "112639.692000", "112639.694000", "112639.697000", "112639.699000", "112639.702000", "112639.704000", "112639.707000", "112639.709000", "112639.712000", "112639.714000", "112639.717000", "112639.719000", "112639.722000", "112639.724000", "112639.727000", "112639.729000", "112639.732000", "112639.734000", "112720.042000", "112720.045000", "112720.048000", "112720.050000", "112720.053000", "112720.055000", "112720.058000", "112720.060000", "112720.063000", "112720.065000", "112720.068000", "112720.070000", "112720.072000", "112720.075000", "112720.077000", "112720.080000", "112720.082000", "112720.085000", "112720.087000", "112720.090000", "112720.092000", "112720.103000", "112720.106000", "112720.108000", "112720.111000", "112720.114000", "112720.116000", "112759.657000", "112759.659000", "112759.662000", "112759.664000", "112759.667000", "112759.669000", "112759.672000", "112759.674000", "112759.677000", "112759.679000", "112759.682000", "112759.684000", "112759.687000", "112759.689000", "112759.692000", "112759.694000", "112759.697000", "112759.699000", "112759.702000", "112759.704000", "112759.707000", "112759.709000", "112759.712000", "112759.714000", "112759.717000", "112759.719000", "112759.722000", "112839.665000", "112839.668000", "112839.670000", "112839.673000", "112839.675000", "112839.678000", "112839.680000", "112839.683000", "112839.685000", "112839.697000", "112839.699000", "112839.702000", "112839.704000", "112839.707000", "112839.709000", "112839.712000", "112839.714000", "112839.717000", "112839.719000", "112839.722000", "112839.724000", "112839.727000", "112839.729000", "112839.732000", "112839.734000", "112839.737000", "112839.739000", "112855.022000", "112855.024000", "112855.027000", "112855.030000", "112855.032000", "112855.035000", "112855.037000", "112855.040000", "112855.042000", "112855.045000"],
