{
  "AcquisitionMatrixPE": 104,
  "AcquisitionNumber": 1,
  "AcquisitionTime": "13:48:48.685000",
  "BandwidthPerPixelPhaseEncode": 17.17,
  "BaseResolution": 104,
  "BodyPartExamined": "BRAIN",
  "CoilString": "HC1-7;NC1_2",
  "ConsistencyInfo": "N4_VE11C_LATEST_20160120",
  "ConversionSoftware": "dcm2niix",
  "ConversionSoftwareVersion": "v1.0.20190902",
  "DerivedVendorReportedEchoSpacing": 0.000560011,
  "DeviceSerialNumber": "167006",
  "DwellTime": 2.1e-06,
  "EchoTime": 0.037,
  "EchoTrainLength": 104,
  "EffectiveEchoSpacing": 0.000560011,
  "FlipAngle": 52,
  "HeudiconvVersion": "0.10.0",
  "ImageComments": "Unaliased_MB4_PE3_LB",
  "ImageOrientationPatientDICOM": [0.999818, 0.0105602, 0.015885, -0.00122155, 0.866509, -0.49916],
  "ImageType": [
    "ORIGINAL",
    "PRIMARY",
    "M",
    "MB",
    "ND",
    "MOSAIC"
],
  "ImagingFrequency": 123.259,
  "InPlanePhaseEncodingDirectionDICOM": "COL",
  "InstitutionAddress": "Chemin_Queen-Mary_4565_Montreal_District_CA_H3W_1W5",
  "InstitutionName": "IUGM",
  "InstitutionalDepartmentName": "Department",
  "MRAcquisitionType": "2D",
  "MagneticFieldStrength": 3,
  "Manufacturer": "Siemens",
  "ManufacturersModelName": "Prisma_fit",
  "Modality": "MR",
  "MultibandAccelerationFactor": 4,
  "PartialFourier": 1,
  "PatientPosition": "HFS",
  "PercentPhaseFOV": 100,
  "PhaseEncodingDirection": "j",
  "PhaseEncodingSteps": 104,
  "PhaseResolution": 1,
  "PixelBandwidth": 2290,
  "ProcedureStepDescription": "games_mario",
  "ProtocolName": "func_task-mario_run-01",
  "PulseSequenceDetails": "%CustomerSeq%_cmrr_mbep2d_bold",
  "ReceiveCoilActiveElements": "HC1-7;NC1,2",
  "ReceiveCoilName": "HeadNeck_64",
  "ReconMatrixPE": 104,
  "RepetitionTime": 1.49,
  "SAR": 0.0556959,
  "ScanOptions": "FS",
  "ScanningSequence": "EP",
  "SequenceName": "epfid2d1_104",
  "SequenceVariant": "SK_SS",
  "SeriesDescription": "func_task-mario_run-01",
  "SeriesNumber": 10,
  "ShimSetting": [622, -7175, -8866, 337, 30, -163, -80, -11],
  "SliceThickness": 2,
  "SliceTiming": [0, 0.785, 0.1, 0.8825, 0.1975, 0.98, 0.295, 1.08, 0.3925, 1.1775, 0.49, 1.275, 0.59, 1.3725, 0.6875, 0, 0.785, 0.1, 0.8825, 0.1975, 0.98, 0.295, 1.08, 0.3925, 1.1775, 0.49, 1.275, 0.59, 1.3725, 0.6875, 0, 0.785, 0.1, 0.8825, 0.1975, 0.98, 0.295, 1.08, 0.3925, 1.1775, 0.49, 1.275, 0.59, 1.3725, 0.6875, 0, 0.785, 0.1, 0.8825, 0.1975, 0.98, 0.295, 1.08, 0.3925, 1.1775, 0.49, 1.275, 0.59, 1.3725, 0.6875],
  "SoftwareVersions": "syngo_MR_E11",
  "SpacingBetweenSlices": 2,
  "StationName": "MRC35049",
  "TaskName": "mario",
  "TotalReadoutTime": 0.0576811,
  "TxRefAmp": 283.464,
  "WipMemBlock": "ee124ed0-b6ba-4506-a2a8-590d97bf627e||Sequence: R016 ve11c/master r/e634e98; Dec 19 2017 11:00:25 by eja",
  "dcmmeta_affine": [
    [-1.999636173248291, -0.002443107310682535, 0.038071341812610626, 106.25328063964844],
    [-0.021120328456163406, 1.7330174446105957, -0.9981005191802979, -51.99673080444336],
    [0.03176991268992424, 0.998320996761322, 1.7327278852462769, -100.45938873291016],
    [0.0, 0.0, 0.0, 1.0]
],
  "dcmmeta_reorient_transform": [
    [0.0, -1.0, 0.0, 103.0],
    [1.0, 0.0, 0.0, 0.0],
    [0.0, 0.0, 1.0, 0.0],
    [0.0, 0.0, 0.0, 1.0]
],
  "dcmmeta_shape": [104, 104, 60, 449],
  "dcmmeta_slice_dim": 2,
  "dcmmeta_version": 0.6,
  "global": {
    "const": {
      "AcquisitionMatrix": [104, 0, 0, 104],
      "AngioFlag": "N",
      "BitsAllocated": 16,
      "BitsStored": 16,
      "BodyPartExamined": "BRAIN",
      "Columns": 832,
      "EchoNumbers": 1,
      "EchoTime": 37.0,
      "EchoTrainLength": 104,
      "FlipAngle": 52.0,
      "HighBit": 15,
      "ImageOrientationPatient": [0.99981805898917, 0.01056016423779, 0.01588495673304, -0.0012215536703, 0.8665086946383, -0.4991604851377],
      "ImagePositionPatient": [-832.97989283766, -765.01018905293, 354.19225333504],
      "ImageType": [
        "ORIGINAL",
        "PRIMARY",
        "M",
        "MB",
        "ND",
        "MOSAIC"
],
      "ImagedNucleus": "1H",
      "ImagingFrequency": 123.258931,
      "InPlanePhaseEncodingDirection": "COL",
      "MRAcquisitionType": "2D",
      "MagneticFieldStrength": 3.0,
      "Manufacturer": "SIEMENS",
      "ManufacturerModelName": "Prisma_fit",
      "Modality": "MR",
      "NumberOfAverages": 1.0,
      "NumberOfPhaseEncodingSteps": 104,
      "PercentPhaseFieldOfView": 100.0,
      "PercentSampling": 100.0,
      "PerformedProcedureStepStartTime": "132038.262000",
      "PhotometricInterpretation": "MONOCHROME2",
      "PixelBandwidth": 2290.0,
      "PixelRepresentation": 0,
      "PixelSpacing": [2.0, 2.0],
      "ProtocolName": "func_task-mario_run-01",
      "RepetitionTime": 1490.0,
      "Rows": 832,
      "SAR": 0.05569585650454,
      "SamplesPerPixel": 1,
      "ScanOptions": "FS",
      "ScanningSequence": "EP",
      "SequenceName": "epfid2d1_104",
      "SequenceVariant": [
        "SK",
        "SS"
],
      "SeriesDescription": "func_task-mario_run-01",
      "SeriesNumber": 10,
      "SeriesTime": "135006.662000",
      "SliceLocation": -59.062809404735,
      "SliceThickness": 2.0,
      "SmallestImagePixelValue": 0,
      "SoftwareVersions": "syngo MR E11",
      "SpacingBetweenSlices": 2.000000030056,
      "SpecificCharacterSet": "ISO_IR 100",
      "StudyID": "1",
      "StudyTime": "132038.148000",
      "TransmitCoilName": "Body",
      "VariableFlipAngleFlag": "N",
      "WindowCenterWidthExplanation": "Algo1",
      "dBdt": 0.0},
    "slices": {}
  },
  "time": {
    "samples": {
      "AcquisitionNumber": [1, 2, 3, 4, 5, 6, 7, 8, 9, 10, 11, 12, 13, 14, 15, 16, 17, 18, 19, 20, 21, 22, 23, 24, 25, 26, 27, 28, 29, 30, 31, 32, 33, 34, 35, 36, 37, 38, 39, 40, 41, 42, 43, 44, 45, 46, 47, 48, 49, 50, 51, 52, 53, 54, 55, 56, 57, 58, 59, 60, 61, 62, 63, 64, 65, 66, 67, 68, 69, 70, 71, 72, 73, 74, 75, 76, 77, 78, 79, 80, 81, 82, 83, 84, 85, 86, 87, 88, 89, 90, 91, 92, 93, 94, 95, 96, 97, 98, 99, 100, 101, 102, 103, 104, 105, 106, 107, 108, 109, 110, 111, 112, 113, 114, 115, 116, 117, 118, 119, 120, 121, 122, 123, 124, 125, 126, 127, 128, 129, 130, 131, 132, 133, 134, 135, 136, 137, 138, 139, 140, 141, 142, 143, 144, 145, 146, 147, 148, 149, 150, 151, 152, 153, 154, 155, 156, 157, 158, 159, 160, 161, 162, 163, 164, 165, 166, 167, 168, 169, 170, 171, 172, 173, 174, 175, 176, 177, 178, 179, 180, 181, 182, 183, 184, 185, 186, 187, 188, 189, 190, 191, 192, 193, 194, 195, 196, 197, 198, 199, 200, 201, 202, 203, 204, 205, 206, 207, 208, 209, 210, 211, 212, 213, 214, 215, 216, 217, 218, 219, 220, 221, 222, 223, 224, 225, 226, 227, 228, 229, 230, 231, 232, 233, 234, 235, 236, 237, 238, 239, 240, 241, 242, 243, 244, 245, 246, 247, 248, 249, 250, 251, 252, 253, 254, 255, 256, 257, 258, 259, 260, 261, 262, 263, 264, 265, 266, 267, 268, 269, 270, 271, 272, 273, 274, 275, 276, 277, 278, 279, 280, 281, 282, 283, 284, 285, 286, 287, 288, 289, 290, 291, 292, 293, 294, 295, 296, 297, 298, 299, 300, 301, 302, 303, 304, 305, 306, 307, 308, 309, 310, 311, 312, 313, 314, 315, 316, 317, 318, 319, 320, 321, 322, 323, 324, 325, 326, 327, 328, 329, 330, 331, 332, 333, 334, 335, 336, 337, 338, 339, 340, 341, 342, 343, 344, 345, 346, 347, 348, 349, 350, 351, 352, 353, 354, 355, 356, 357, 358, 359, 360, 361, 362, 363, 364, 365, 366, 367, 368, 369, 370, 371, 372, 373, 374, 375, 376, 377, 378, 379, 380, 381, 382, 383, 384, 385, 386, 387, 388, 389, 390, 391, 392, 393, 394, 395, 396, 397, 398, 399, 400, 401, 402, 403, 404, 405, 406, 407, 408, 409, 410, 411, 412, 413, 414, 415, 416, 417, 418, 419, 420, 421, 422, 423, 424, 425, 426, 427, 428, 429, 430, 431, 432, 433, 434, 435, 436, 437, 438, 439, 440, 441, 442, 443, 444, 445, 446, 447, 448, 449],
      "AcquisitionTime": ["134848.685000", "134850.175000", "134851.665000", "134853.155000", "134854.645000", "134856.135000", "134857.625000", "134859.115000", "134900.605000", "134902.095000", "134903.585000", "134905.075000", "134906.565000", "134908.055000", "134909.545000", "134911.035000", "134912.525000", "134914.015000", "134915.505000", "134916.995000", "134918.485000", "134919.975000", "134921.465000", "134922.955000", "134924.445000", "134925.935000", "134927.425000", "134928.915000", "134930.405000", "134931.895000", "134933.385000", "134934.875000", "134936.365000", "134937.855000", "134939.345000", "134940.835000", "134942.325000", "134943.815000", "134945.305000", "134946.795000", "134948.285000", "134949.775000", "134951.265000", "134952.755000", "134954.245000", "134955.735000", "134957.225000", "134958.715000", "135000.205000", "135001.695000", "135003.185000", "135004.675000", "135006.165000", "135007.655000", "135009.145000", "135010.635000", "135012.125000", "135013.615000", "135015.105000", "135016.595000", "135018.085000", "135019.575000", "135021.065000", "135022.555000", "135024.045000", "135025.535000", "135027.025000", "135028.515000", "135030.005000", "135031.495000", "135032.985000", "135034.475000", "135035.965000", "135037.455000", "135038.945000", "135040.435000", "135041.925000", "135043.415000", "135044.905000", "135046.395000", "135047.885000", "135049.375000", "135050.865000", "135052.355000", "135053.845000", "135055.335000", "135056.825000", "135058.315000", "135059.805000", "135101.295000", "135102.785000", "135104.275000", "135105.765000", "135107.255000", "135108.745000", "135110.235000", "135111.725000", "135113.215000", "135114.705000", "135116.195000", "135117.685000", "135119.175000", "135120.665000", "135122.155000", "135123.645000", "135125.135000", "135126.625000", "135128.115000", "135129.605000", "135131.095000", "135132.585000", "135134.075000", "135135.565000", "135137.055000", "135138.545000", "135140.035000", "135141.525000", "135143.015000", "135144.505000", "135145.995000", "135147.485000", "135148.975000", "135150.465000", "135151.955000", "135153.445000", "135154.935000", "135156.425000", "135157.915000", "135159.405000", "135200.895000", "135202.385000", "135203.875000", "135205.365000", "135206.855000", "135208.345000", "135209.835000", "135211.325000", "135212.815000", "135214.305000", "135215.795000", "135217.285000", "135218.775000", "135220.265000", "135221.755000", "135223.245000", "135224.735000", "135226.225000", "135227.715000", "135229.205000", "135230.695000", "135232.185000", "135233.675000", "135235.165000", "135236.655000", "135238.145000", "135239.635000", "135241.125000", "135242.615000", "135244.105000", "135245.595000", "135247.085000", "135248.575000", "135250.065000", "135251.555000", "135253.045000", "135254.535000", "135256.025000", "135257.515000", "135259.005000", "135300.495000", "135301.985000", "135303.475000", "135304.965000", "135306.455000", "135307.945000", "135309.435000", "135310.925000", "135312.415000", "135313.905000", "135315.395000", "135316.885000", "135318.375000", "135319.865000", "135321.355000", "135322.845000", "135324.335000", "135325.825000", "135327.315000", "135328.805000", "135330.295000", "135331.785000", "135333.275000", "135334.765000", "135336.255000", "135337.745000", "135339.235000", "135340.725000", "135342.215000", "135343.705000", "135345.195000", "135346.685000", "135348.175000", "135349.665000", "135351.155000", "135352.645000", "135354.135000", "135355.625000", "135357.115000", "135358.605000", "135400.095000", "135401.585000", "135403.075000", "135404.565000", "135406.055000", "135407.545000", "135409.035000", "135410.525000", "135412.015000", "135413.505000", "135414.995000", "135416.485000", "135417.975000", "135419.465000", "135420.955000", "135422.445000", "135423.935000", "135425.425000", "135426.915000", "135428.405000", "135429.895000", "135431.385000", "135432.875000", "135434.365000", "135435.855000", "135437.345000", "135438.835000", "135440.325000", "135441.815000", "135443.305000", "135444.795000", "135446.285000", "135447.775000", "135449.265000", "135450.755000", "135452.245000", "135453.735000", "135455.225000", "135456.715000", "135458.205000", "135459.695000", "135501.185000", "135502.675000", "135504.165000", "135505.655000", "135507.145000", "135508.635000", "135510.125000", "135511.615000", "135513.105000", "135514.595000", "135516.085000", "135517.575000", "135519.065000", "135520.555000", "135522.045000", "135523.535000", "135525.025000", "135526.515000", "135528.005000", "135529.495000", "135530.985000", "135532.475000", "135533.965000", "135535.455000", "135536.945000", "135538.435000", "135539.925000", "135541.415000", "135542.905000", "135544.395000", "135545.885000", "135547.375000", "135548.865000", "135550.355000", "135551.845000", "135553.335000", "135554.825000", "135556.315000", "135557.805000", "135559.295000", "135600.785000", "135602.275000", "135603.765000", "135605.255000", "135606.745000", "135608.235000", "135609.725000", "135611.215000", "135612.705000", "135614.195000", "135615.685000", "135617.175000", "135618.665000", "135620.155000", "135621.645000", "135623.135000", "135624.625000", "135626.115000", "135627.605000", "135629.095000", "135630.585000", "135632.075000", "135633.565000", "135635.055000", "135636.545000", "135638.035000", "135639.525000", "135641.015000", "135642.505000", "135643.995000", "135645.485000", "135646.975000", "135648.465000", "135649.955000", "135651.445000", "135652.935000", "135654.425000", "135655.915000", "135657.405000", "135658.895000", "135700.385000", "135701.875000", "135703.365000", "135704.855000", "135706.345000", "135707.835000", "135709.325000", "135710.815000", "135712.305000", "135713.795000", "135715.285000", "135716.775000", "135718.265000", "135719.755000", "135721.245000", "135722.735000", "135724.225000", "135725.715000", "135727.205000", "135728.695000", "135730.185000", "135731.675000", "135733.165000", "135734.655000", "135736.145000", "135737.635000", "135739.125000", "135740.615000", "135742.105000", "135743.595000", "135745.085000", "135746.575000", "135748.065000", "135749.555000", "135751.045000", "135752.535000", "135754.025000", "135755.515000", "135757.005000", "135758.495000", "135759.985000", "135801.475000", "135802.965000", "135804.455000", "135805.945000", "135807.435000", "135808.925000", "135810.415000", "135811.905000", "135813.395000", "135814.885000", "135816.375000", "135817.865000", "135819.355000", "135820.845000", "135822.335000", "135823.825000", "135825.315000", "135826.805000", "135828.295000", "135829.785000", "135831.275000", "135832.765000", "135834.255000", "135835.745000", "135837.235000", "135838.725000", "135840.215000", "135841.705000", "135843.195000", "135844.685000", "135846.175000", "135847.665000", "135849.155000", "135850.645000", "135852.135000", "135853.625000", "135855.115000", "135856.605000", "135858.095000", "135859.585000", "135901.075000", "135902.565000", "135904.055000", "135905.545000", "135907.035000", "135908.525000", "135910.015000", "135911.505000", "135912.995000", "135914.485000", "135915.975000", "135917.465000", "135918.955000", "135920.445000", "135921.935000", "135923.425000", "135924.915000", "135926.405000", "135927.895000", "135929.385000", "135930.875000", "135932.365000", "135933.855000", "135935.345000", "135936.835000", "135938.325000", "135939.815000", "135941.305000", "135942.795000", "135944.285000", "135945.775000", "135947.265000", "135948.755000", "135950.245000", "135951.735000", "135953.225000", "135954.715000", "135956.205000"],
      "ContentTime": ["135006.665000", "135006.669000", "135006.672000", "135006.676000", "135006.679000", "135006.682000", "135006.686000", "135006.690000", "135006.694000", "135006.699000", "135006.703000", "135006.706000", "135006.710000", "135006.714000", "135006.718000", "135006.721000", "135006.725000", "135006.728000", "135006.732000", "135006.735000", "135006.738000", "135006.742000", "135026.605000", "135026.609000", "135026.612000", "135026.615000", "135026.618000", "135026.622000", "135026.625000", "135026.628000", "135026.632000", "135026.635000", "135026.638000", "135026.641000", "135026.645000", "135026.648000", "135026.651000", "135026.654000", "135026.658000", "135026.661000", "135026.664000", "135026.667000", "135046.605000", "135046.609000", "135046.612000", "135046.615000", "135046.618000", "135046.622000", "135046.625000", "135046.628000", "135046.631000", "135046.635000", "135046.638000", "135046.641000", "135046.644000", "135046.648000", "135046.651000", "135046.654000", "135046.657000", "135046.660000", "135046.664000", "135046.667000", "135106.606000", "135106.610000", "135106.613000", "135106.616000", "135106.619000", "135106.623000", "135106.626000", "135106.629000", "135106.632000", "135106.636000", "135106.639000", "135106.642000", "135106.645000", "135106.649000", "135106.652000", "135106.655000", "135106.658000", "135106.662000", "135106.665000", "135106.668000", "135106.671000", "135126.605000", "135126.609000", "135126.612000", "135126.615000", "135126.618000", "135126.622000", "135126.625000", "135126.628000", "135126.632000", "135126.635000", "135126.638000", "135126.641000", "135126.645000", "135126.648000", "135126.651000", "135126.663000", "135126.666000", "135126.669000", "135126.672000", "135126.676000", "135206.605000", "135206.609000", "135206.612000", "135206.615000", "135206.619000", "135206.622000", "135206.625000", "135206.629000", "135206.632000", "135206.635000", "135206.638000", "135206.641000", "135206.645000", "135206.648000", "135206.651000", "135206.654000", "135206.658000", "135206.661000", "135206.664000", "135206.668000", "135206.671000", "135206.674000", "135206.677000", "135206.681000", "135206.684000", "135206.687000", "135206.690000", "135206.694000", "135206.697000", "135246.605000", "135246.609000", "135246.612000", "135246.615000", "135246.619000", "135246.622000", "135246.625000", "135246.629000", "135246.632000", "135246.635000", "135246.639000", "135246.642000", "135246.645000", "135246.648000", "135246.652000", "135246.655000", "135246.658000", "135246.661000", "135246.665000", "135246.668000", "135246.671000", "135246.674000", "135246.678000", "135246.681000", "135246.684000", "135246.687000", "135246.691000", "135326.606000", "135326.610000", "135326.613000", "135326.616000", "135326.620000", "135326.623000", "135326.626000", "135326.629000", "135326.633000", "135326.636000", "135326.639000", "135326.642000", "135326.646000", "135326.649000", "135326.652000", "135326.656000", "135326.659000", "135326.662000", "135326.665000", "135326.669000", "135326.672000", "135326.675000", "135326.678000", "135326.682000", "135326.685000", "135326.688000", "135326.691000", "135406.605000", "135406.618000", "135406.621000", "135406.625000", "135406.628000", "135406.632000", "135406.635000", "135406.638000", "135406.641000", "135406.664000", "135406.667000", "135406.671000", "135406.674000", "135406.677000", "135406.681000", "135406.692000", "135406.695000", "135406.698000", "135406.702000", "135406.705000", "135406.708000", "135406.711000", "135406.715000", "135406.718000", "135406.721000", "135406.724000", "135406.728000", "135446.606000", "135446.610000", "135446.613000", "135446.617000", "135446.620000", "135446.623000", "135446.626000", "135446.630000", "135446.633000", "135446.636000", "135446.640000", "135446.643000", "135446.646000", "135446.649000", "135446.653000", "135446.656000", "135446.659000", "135446.663000", "135446.666000", "135446.669000", "135446.673000", "135446.676000", "135446.679000", "135446.683000", "135446.686000", "135446.689000", "135526.606000", "135526.610000", "135526.613000", "135526.616000", "135526.620000", "135526.623000", "135526.626000", "135526.630000", "135526.633000", "135526.636000", "135526.639000", "135526.643000", "135526.646000", "135526.649000", "135526.652000", "135526.656000", "135526.659000", "135526.662000", "135526.666000", "135526.669000", "135526.672000", "135526.675000", "135526.679000", "135526.682000", "135526.685000", "135526.689000", "135526.692000", "135606.605000", "135606.609000", "135606.612000", "135606.615000", "135606.619000", "135606.622000", "135606.625000", "135606.629000", "135606.633000", "135606.636000", "135606.639000", "135606.643000", "135606.646000", "135606.649000", "135606.653000", "135606.656000", "135606.659000", "135606.662000", "135606.666000", "135606.669000", "135606.672000", "135606.675000", "135606.679000", "135606.682000", "135606.685000", "135606.689000", "135606.692000", "135646.605000", "135646.609000", "135646.612000", "135646.616000", "135646.619000", "135646.622000", "135646.625000", "135646.629000", "135646.632000", "135646.635000", "135646.639000", "135646.642000", "135646.645000", "135646.649000", "135646.652000", "135646.655000", "135646.658000", "135646.662000", "135646.665000", "135646.668000", "135646.672000", "135646.675000", "135646.678000", "135646.681000", "135646.685000", "135646.688000", "135646.691000", "135726.605000", "135726.609000", "135726.612000", "135726.615000", "135726.619000", "135726.622000", "135726.625000", "135726.629000", "135726.632000", "135726.635000", "135726.639000", "135726.642000", "135726.646000", "135726.649000", "135726.652000", "135726.655000", "135726.659000", "135726.662000", "135726.665000", "135726.669000", "135726.672000", "135726.675000", "135726.679000", "135726.682000", "135726.685000", "135726.688000", "135726.692000", "135806.607000", "135806.610000", "135806.613000", "135806.617000", "135806.620000", "135806.623000", "135806.627000", "135806.630000", "135806.633000", "135806.637000", "135806.640000", "135806.643000", "135806.647000", "135806.650000", "135806.653000", "135806.656000", "135806.660000", "135806.663000", "135806.666000", "135806.669000", "135806.673000", "135806.676000", "135806.679000", "135806.682000", "135806.686000", "135806.689000", "135806.692000", "135846.605000", "135846.609000", "135846.624000", "135846.628000", "135846.632000", "135846.637000", "135846.640000", "135846.644000", "135846.648000", "135846.651000", "135846.655000", "135846.658000", "135846.661000", "135846.665000", "135846.668000", "135846.672000", "135846.675000", "135846.678000", "135846.681000", "135846.685000", "135846.688000", "135846.691000", "135846.695000", "135846.698000", "135846.701000", "135846.704000", "135926.605000", "135926.609000", "135926.612000", "135926.616000", "135926.619000", "135926.622000", "135926.626000", "135926.629000", "135926.632000", "135926.635000", "135926.639000", "135926.642000", "135926.645000", "135926.649000", "135926.652000", "135926.655000", "135926.658000", "135926.662000", "135926.665000", "135926.668000", "135926.672000", "135926.675000", "135926.678000", "135926.681000", "135926.685000", "135926.688000", "135926.691000", "135959.246000", "135959.250000", "135959.253000", "135959.256000", "135959.260000", "135959.263000", "135959.266000", "135959.269000", "135959.273000", "135959.276000", "135959.279000", "135959.283000", "135959.286000", "135959.289000", "135959.292000", "135959.296000", "135959.299000", "135959.302000", "135959.306000", "135959.309000", "135959.312000", "135959.316000"],
