{
  "AcquisitionMatrixPE": 104,
  "AcquisitionNumber": 1,
  "AcquisitionTime": "14:14:12.605000",
  "BandwidthPerPixelPhaseEncode": 17.17,
  "BaseResolution": 104,
  "BodyPartExamined": "BRAIN",
  "CoilString": "HC1-7;NC1_2",
  "ConsistencyInfo": "N4_VE11C_LATEST_20160120",
  "ConversionSoftware": "dcm2niix",
  "ConversionSoftwareVersion": "v1.0.20190902",
  "DerivedVendorReportedEchoSpacing": 0.000560011,
  "DeviceSerialNumber": "167006",
  "DwellTime": 2.1e-06,
  "EchoTime": 0.037,
  "EchoTrainLength": 104,
  "EffectiveEchoSpacing": 0.000560011,
  "FlipAngle": 52,
  "HeudiconvVersion": "0.10.0",
  "ImageComments": "Unaliased_MB4_PE3_LB",
  "ImageOrientationPatientDICOM": [0.999818, 0.0105602, 0.015885, -0.00122155, 0.866509, -0.49916],
  "ImageType": [
    "ORIGINAL",
    "PRIMARY",
    "P",
    "MB",
    "ND",
    "MOSAIC"
],
  "ImagingFrequency": 123.259,
  "InPlanePhaseEncodingDirectionDICOM": "COL",
  "InstitutionAddress": "Chemin_Queen-Mary_4565_Montreal_District_CA_H3W_1W5",
  "InstitutionName": "IUGM",
  "InstitutionalDepartmentName": "Department",
  "MRAcquisitionType": "2D",
  "MagneticFieldStrength": 3,
  "Manufacturer": "Siemens",
  "ManufacturersModelName": "Prisma_fit",
  "Modality": "MR",
  "MultibandAccelerationFactor": 4,
  "PartialFourier": 1,
  "PatientPosition": "HFS",
  "PercentPhaseFOV": 100,
  "PhaseEncodingDirection": "j",
  "PhaseEncodingSteps": 104,
  "PhaseResolution": 1,
  "PixelBandwidth": 2290,
  "ProcedureStepDescription": "games_mario",
  "ProtocolName": "func_task-mario_run-03",
  "PulseSequenceDetails": "%CustomerSeq%_cmrr_mbep2d_bold",
  "ReceiveCoilActiveElements": "HC1-7;NC1,2",
  "ReceiveCoilName": "HeadNeck_64",
  "ReconMatrixPE": 104,
  "RepetitionTime": 1.49,
  "SAR": 0.0556959,
  "ScanOptions": "FS",
  "ScanningSequence": "EP",
  "SequenceName": "epfid2d1_104",
  "SequenceVariant": "SK_SS",
  "SeriesDescription": "func_task-mario_run-03",
  "SeriesNumber": 17,
  "ShimSetting": [622, -7175, -8866, 337, 30, -163, -80, -11],
  "SliceThickness": 2,
  "SliceTiming": [0, 0.785, 0.0975, 0.8825, 0.1975, 0.98, 0.295, 1.0775, 0.3925, 1.1775, 0.49, 1.275, 0.5875, 1.3725, 0.6875, 0, 0.785, 0.0975, 0.8825, 0.1975, 0.98, 0.295, 1.0775, 0.3925, 1.1775, 0.49, 1.275, 0.5875, 1.3725, 0.6875, 0, 0.785, 0.0975, 0.8825, 0.1975, 0.98, 0.295, 1.0775, 0.3925, 1.1775, 0.49, 1.275, 0.5875, 1.3725, 0.6875, 0, 0.785, 0.0975, 0.8825, 0.1975, 0.98, 0.295, 1.0775, 0.3925, 1.1775, 0.49, 1.275, 0.5875, 1.3725, 0.6875],
  "SoftwareVersions": "syngo_MR_E11",
  "SpacingBetweenSlices": 2,
  "StationName": "MRC35049",
  "TaskName": "mario",
  "TotalReadoutTime": 0.0576811,
  "TxRefAmp": 283.464,
  "WipMemBlock": "20914198-ebd8-449a-890d-c52d4158558c||Sequence: R016 ve11c/master r/e634e98; Dec 19 2017 11:00:25 by eja",
  "dcmmeta_affine": [
    [-1.999636173248291, -0.002443107310682535, 0.038071341812610626, 106.25328063964844],
    [-0.021120328456163406, 1.7330174446105957, -0.9981005191802979, -51.99673080444336],
    [0.03176991268992424, 0.998320996761322, 1.7327278852462769, -100.45938873291016],
    [0.0, 0.0, 0.0, 1.0]
],
  "dcmmeta_reorient_transform": [
    [0.0, -1.0, 0.0, 103.0],
    [1.0, 0.0, 0.0, 0.0],
    [0.0, 0.0, 1.0, 0.0],
    [0.0, 0.0, 0.0, 1.0]
],
  "dcmmeta_shape": [104, 104, 60, 427],
  "dcmmeta_slice_dim": 2,
  "dcmmeta_version": 0.6,
  "global": {
    "const": {
      "AcquisitionMatrix": [104, 0, 0, 104],
      "AngioFlag": "N",
      "BitsAllocated": 16,
      "BitsStored": 16,
      "BodyPartExamined": "BRAIN",
      "Columns": 832,
      "EchoNumbers": 1,
      "EchoTime": 37.0,
      "EchoTrainLength": 104,
      "FlipAngle": 52.0,
      "HighBit": 15,
      "ImageOrientationPatient": [0.99981805898917, 0.01056016423779, 0.01588495673304, -0.0012215536703, 0.8665086946383, -0.4991604851377],
      "ImagePositionPatient": [-832.97989283766, -765.01018905293, 354.19225333504],
      "ImageType": [
        "ORIGINAL",
        "PRIMARY",
        "P",
        "MB",
        "ND",
        "MOSAIC"
],
      "ImagedNucleus": "1H",
      "ImagingFrequency": 123.25895,
      "InPlanePhaseEncodingDirection": "COL",
      "LargestImagePixelValue": 4095,
      "MRAcquisitionType": "2D",
      "MagneticFieldStrength": 3.0,
      "Manufacturer": "SIEMENS",
      "ManufacturerModelName": "Prisma_fit",
      "Modality": "MR",
      "NumberOfAverages": 1.0,
      "NumberOfPhaseEncodingSteps": 104,
      "PercentPhaseFieldOfView": 100.0,
      "PercentSampling": 100.0,
      "PerformedProcedureStepStartTime": "132038.262000",
      "PhotometricInterpretation": "MONOCHROME2",
      "PixelBandwidth": 2290.0,
      "PixelRepresentation": 0,
      "PixelSpacing": [2.0, 2.0],
      "ProtocolName": "func_task-mario_run-03",
      "RepetitionTime": 1490.0,
      "RescaleIntercept": -4096.0,
      "RescaleSlope": 2.0,
      "RescaleType": "US",
      "Rows": 832,
      "SAR": 0.05569585650454,
      "SamplesPerPixel": 1,
      "ScanOptions": "FS",
      "ScanningSequence": "EP",
      "SequenceName": "epfid2d1_104",
      "SequenceVariant": [
        "SK",
        "SS"
],
      "SeriesDescription": "func_task-mario_run-03",
      "SeriesNumber": 17,
      "SeriesTime": "141528.471000",
      "SliceLocation": -59.062809404735,
      "SliceThickness": 2.0,
      "SmallestImagePixelValue": 0,
      "SoftwareVersions": "syngo MR E11",
      "SpacingBetweenSlices": 2.000000030056,
      "SpecificCharacterSet": "ISO_IR 100",
      "StudyID": "1",
      "StudyTime": "132038.148000",
      "TransmitCoilName": "Body",
      "VariableFlipAngleFlag": "N",
      "WindowCenterWidthExplanation": "Algo1",
      "dBdt": 0.0},
    "slices": {}
  },
  "time": {
    "samples": {
      "AcquisitionNumber": [1, 2, 3, 4, 5, 6, 7, 8, 9, 10, 11, 12, 13, 14, 15, 16, 17, 18, 19, 20, 21, 22, 23, 24, 25, 26, 27, 28, 29, 30, 31, 32, 33, 34, 35, 36, 37, 38, 39, 40, 41, 42, 43, 44, 45, 46, 47, 48, 49, 50, 51, 52, 53, 54, 55, 56, 57, 58, 59, 60, 61, 62, 63, 64, 65, 66, 67, 68, 69, 70, 71, 72, 73, 74, 75, 76, 77, 78, 79, 80, 81, 82, 83, 84, 85, 86, 87, 88, 89, 90, 91, 92, 93, 94, 95, 96, 97, 98, 99, 100, 101, 102, 103, 104, 105, 106, 107, 108, 109, 110, 111, 112, 113, 114, 115, 116, 117, 118, 119, 120, 121, 122, 123, 124, 125, 126, 127, 128, 129, 130, 131, 132, 133, 134, 135, 136, 137, 138, 139, 140, 141, 142, 143, 144, 145, 146, 147, 148, 149, 150, 151, 152, 153, 154, 155, 156, 157, 158, 159, 160, 161, 162, 163, 164, 165, 166, 167, 168, 169, 170, 171, 172, 173, 174, 175, 176, 177, 178, 179, 180, 181, 182, 183, 184, 185, 186, 187, 188, 189, 190, 191, 192, 193, 194, 195, 196, 197, 198, 199, 200, 201, 202, 203, 204, 205, 206, 207, 208, 209, 210, 211, 212, 213, 214, 215, 216, 217, 218, 219, 220, 221, 222, 223, 224, 225, 226, 227, 228, 229, 230, 231, 232, 233, 234, 235, 236, 237, 238, 239, 240, 241, 242, 243, 244, 245, 246, 247, 248, 249, 250, 251, 252, 253, 254, 255, 256, 257, 258, 259, 260, 261, 262, 263, 264, 265, 266, 267, 268, 269, 270, 271, 272, 273, 274, 275, 276, 277, 278, 279, 280, 281, 282, 283, 284, 285, 286, 287, 288, 289, 290, 291, 292, 293, 294, 295, 296, 297, 298, 299, 300, 301, 302, 303, 304, 305, 306, 307, 308, 309, 310, 311, 312, 313, 314, 315, 316, 317, 318, 319, 320, 321, 322, 323, 324, 325, 326, 327, 328, 329, 330, 331, 332, 333, 334, 335, 336, 337, 338, 339, 340, 341, 342, 343, 344, 345, 346, 347, 348, 349, 350, 351, 352, 353, 354, 355, 356, 357, 358, 359, 360, 361, 362, 363, 364, 365, 366, 367, 368, 369, 370, 371, 372, 373, 374, 375, 376, 377, 378, 379, 380, 381, 382, 383, 384, 385, 386, 387, 388, 389, 390, 391, 392, 393, 394, 395, 396, 397, 398, 399, 400, 401, 402, 403, 404, 405, 406, 407, 408, 409, 410, 411, 412, 413, 414, 415, 416, 417, 418, 419, 420, 421, 422, 423, 424, 425, 426, 427],
      "AcquisitionTime": ["141412.605000", "141414.095000", "141415.585000", "141417.075000", "141418.565000", "141420.055000", "141421.545000", "141423.035000", "141424.525000", "141426.015000", "141427.505000", "141428.995000", "141430.485000", "141431.975000", "141433.465000", "141434.955000", "141436.445000", "141437.935000", "141439.425000", "141440.915000", "141442.405000", "141443.895000", "141445.385000", "141446.875000", "141448.365000", "141449.855000", "141451.345000", "141452.835000", "141454.325000", "141455.815000", "141457.305000", "141458.795000", "141500.285000", "141501.775000", "141503.265000", "141504.755000", "141506.245000", "141507.735000", "141509.225000", "141510.715000", "141512.205000", "141513.695000", "141515.185000", "141516.675000", "141518.165000", "141519.655000", "141521.145000", "141522.635000", "141524.125000", "141525.615000", "141527.105000", "141528.595000", "141530.085000", "141531.575000", "141533.065000", "141534.555000", "141536.045000", "141537.535000", "141539.025000", "141540.515000", "141542.005000", "141543.495000", "141544.985000", "141546.475000", "141547.965000", "141549.455000", "141550.945000", "141552.435000", "141553.925000", "141555.415000", "141556.905000", "141558.395000", "141559.885000", "141601.375000", "141602.865000", "141604.355000", "141605.845000", "141607.335000", "141608.825000", "141610.315000", "141611.805000", "141613.295000", "141614.785000", "141616.275000", "141617.765000", "141619.255000", "141620.745000", "141622.235000", "141623.725000", "141625.215000", "141626.705000", "141628.195000", "141629.685000", "141631.175000", "141632.665000", "141634.155000", "141635.645000", "141637.135000", "141638.625000", "141640.115000", "141641.605000", "141643.095000", "141644.585000", "141646.075000", "141647.565000", "141649.055000", "141650.545000", "141652.035000", "141653.525000", "141655.015000", "141656.505000", "141657.995000", "141659.485000", "141700.975000", "141702.465000", "141703.955000", "141705.445000", "141706.935000", "141708.425000", "141709.915000", "141711.405000", "141712.895000", "141714.385000", "141715.875000", "141717.365000", "141718.855000", "141720.345000", "141721.835000", "141723.325000", "141724.815000", "141726.305000", "141727.795000", "141729.285000", "141730.775000", "141732.265000", "141733.755000", "141735.245000", "141736.735000", "141738.225000", "141739.715000", "141741.205000", "141742.695000", "141744.185000", "141745.675000", "141747.165000", "141748.655000", "141750.145000", "141751.635000", "141753.125000", "141754.615000", "141756.105000", "141757.595000", "141759.085000", "141800.575000", "141802.065000", "141803.555000", "141805.045000", "141806.535000", "141808.025000", "141809.515000", "141811.005000", "141812.495000", "141813.985000", "141815.475000", "141816.965000", "141818.455000", "141819.945000", "141821.435000", "141822.925000", "141824.415000", "141825.905000", "141827.395000", "141828.885000", "141830.375000", "141831.865000", "141833.355000", "141834.845000", "141836.335000", "141837.825000", "141839.315000", "141840.805000", "141842.295000", "141843.785000", "141845.275000", "141846.765000", "141848.255000", "141849.745000", "141851.235000", "141852.725000", "141854.215000", "141855.705000", "141857.195000", "141858.685000", "141900.175000", "141901.665000", "141903.155000", "141904.645000", "141906.135000", "141907.625000", "141909.115000", "141910.605000", "141912.095000", "141913.585000", "141915.075000", "141916.565000", "141918.055000", "141919.545000", "141921.035000", "141922.525000", "141924.015000", "141925.505000", "141926.995000", "141928.485000", "141929.975000", "141931.465000", "141932.955000", "141934.445000", "141935.935000", "141937.425000", "141938.915000", "141940.405000", "141941.895000", "141943.385000", "141944.875000", "141946.365000", "141947.855000", "141949.345000", "141950.835000", "141952.325000", "141953.815000", "141955.305000", "141956.795000", "141958.285000", "141959.775000", "142001.265000", "142002.755000", "142004.245000", "142005.735000", "142007.225000", "142008.715000", "142010.205000", "142011.695000", "142013.185000", "142014.675000", "142016.165000", "142017.655000", "142019.145000", "142020.635000", "142022.125000", "142023.615000", "142025.105000", "142026.595000", "142028.085000", "142029.575000", "142031.065000", "142032.555000", "142034.045000", "142035.535000", "142037.025000", "142038.515000", "142040.005000", "142041.495000", "142042.985000", "142044.475000", "142045.965000", "142047.455000", "142048.945000", "142050.435000", "142051.925000", "142053.415000", "142054.905000", "142056.395000", "142057.885000", "142059.375000", "142100.865000", "142102.355000", "142103.845000", "142105.335000", "142106.825000", "142108.315000", "142109.805000", "142111.295000", "142112.785000", "142114.275000", "142115.765000", "142117.255000", "142118.745000", "142120.235000", "142121.725000", "142123.215000", "142124.705000", "142126.195000", "142127.685000", "142129.175000", "142130.665000", "142132.155000", "142133.645000", "142135.135000", "142136.625000", "142138.115000", "142139.605000", "142141.095000", "142142.585000", "142144.075000", "142145.565000", "142147.055000", "142148.545000", "142150.035000", "142151.525000", "142153.015000", "142154.505000", "142155.995000", "142157.485000", "142158.975000", "142200.465000", "142201.955000", "142203.445000", "142204.935000", "142206.425000", "142207.915000", "142209.405000", "142210.895000", "142212.385000", "142213.875000", "142215.365000", "142216.855000", "142218.345000", "142219.835000", "142221.325000", "142222.815000", "142224.305000", "142225.795000", "142227.285000", "142228.775000", "142230.265000", "142231.755000", "142233.245000", "142234.735000", "142236.225000", "142237.715000", "142239.205000", "142240.695000", "142242.185000", "142243.675000", "142245.165000", "142246.655000", "142248.145000", "142249.635000", "142251.125000", "142252.615000", "142254.105000", "142255.595000", "142257.085000", "142258.575000", "142300.065000", "142301.555000", "142303.045000", "142304.535000", "142306.025000", "142307.515000", "142309.005000", "142310.495000", "142311.985000", "142313.475000", "142314.965000", "142316.455000", "142317.945000", "142319.435000", "142320.925000", "142322.415000", "142323.905000", "142325.395000", "142326.885000", "142328.375000", "142329.865000", "142331.355000", "142332.845000", "142334.335000", "142335.825000", "142337.315000", "142338.805000", "142340.295000", "142341.785000", "142343.275000", "142344.765000", "142346.255000", "142347.745000", "142349.235000", "142350.725000", "142352.215000", "142353.705000", "142355.195000", "142356.685000", "142358.175000", "142359.665000", "142401.155000", "142402.645000", "142404.135000", "142405.625000", "142407.115000", "142408.605000", "142410.095000", "142411.585000", "142413.075000", "142414.565000", "142416.055000", "142417.545000", "142419.035000", "142420.525000", "142422.015000", "142423.505000", "142424.995000", "142426.485000", "142427.975000", "142429.465000", "142430.955000", "142432.445000", "142433.935000", "142435.425000", "142436.915000", "142438.405000", "142439.895000", "142441.385000", "142442.875000", "142444.365000", "142445.855000", "142447.345000"],
      "ContentTime": ["141528.473000", "141528.476000", "141528.478000", "141528.481000", "141528.483000", "141528.486000", "141528.488000", "141528.491000", "141528.493000", "141528.496000", "141528.498000", "141528.501000", "141528.503000", "141528.506000", "141528.508000", "141528.515000", "141528.517000", "141528.520000", "141528.522000", "141528.525000", "141528.527000", "141528.530000", "141548.402000", "141548.404000", "141548.407000", "141548.409000", "141548.412000", "141548.414000", "141548.417000", "141548.419000", "141548.422000", "141548.424000", "141548.427000", "141548.429000", "141548.432000", "141548.434000", "141548.436000", "141548.439000", "141548.441000", "141548.444000", "141548.446000", "141548.449000", "141608.413000", "141608.416000", "141608.418000", "141608.421000", "141608.423000", "141608.426000", "141608.428000", "141608.431000", "141608.433000", "141608.436000", "141608.438000", "141608.441000", "141608.443000", "141608.446000", "141608.448000", "141608.451000", "141608.453000", "141608.456000", "141608.458000", "141608.461000", "141608.463000", "141628.395000", "141628.398000", "141628.400000", "141628.403000", "141628.405000", "141628.408000", "141628.410000", "141628.413000", "141628.415000", "141628.418000", "141628.420000", "141628.423000", "141628.425000", "141628.428000", "141628.430000", "141628.433000", "141628.437000", "141628.439000", "141628.442000", "141628.445000", "141648.428000", "141648.431000", "141648.434000", "141648.436000", "141648.439000", "141648.441000", "141648.444000", "141648.446000", "141648.449000", "141648.451000", "141648.454000", "141648.457000", "141648.459000", "141648.462000", "141648.464000", "141648.467000", "141648.469000", "141648.471000", "141648.474000", "141648.477000", "141728.453000", "141728.456000", "141728.458000", "141728.461000", "141728.464000", "141728.466000", "141728.468000", "141728.471000", "141728.474000", "141728.476000", "141728.478000", "141728.481000", "141728.484000", "141728.486000", "141728.488000", "141728.491000", "141728.494000", "141728.496000", "141728.498000", "141728.501000", "141728.503000", "141728.506000", "141728.508000", "141728.511000", "141728.513000", "141728.516000", "141728.518000", "141728.521000", "141808.426000", "141808.429000", "141808.431000", "141808.434000", "141808.436000", "141808.444000", "141808.446000", "141808.449000", "141808.451000", "141808.454000", "141808.456000", "141808.459000", "141808.461000", "141808.464000", "141808.466000", "141808.469000", "141808.471000", "141808.474000", "141808.476000", "141808.479000", "141808.481000", "141808.484000", "141808.486000", "141808.489000", "141808.491000", "141808.494000", "141848.435000", "141848.438000", "141848.440000", "141848.443000", "141848.454000", "141848.457000", "141848.459000", "141848.462000", "141848.464000", "141848.467000", "141848.469000", "141848.472000", "141848.474000", "141848.477000", "141848.479000", "141848.482000", "141848.484000", "141848.487000", "141848.490000", "141848.492000", "141848.495000", "141848.498000", "141848.500000", "141848.503000", "141848.505000", "141848.508000", "141848.510000", "141928.456000", "141928.459000", "141928.462000", "141928.464000", "141928.467000", "141928.469000", "141928.472000", "141928.474000", "141928.477000", "141928.479000", "141928.482000", "141928.485000", "141928.487000", "141928.489000", "141928.492000", "141928.494000", "141928.497000", "141928.499000", "141928.502000", "141928.505000", "141928.507000", "141928.509000", "141928.512000", "141928.514000", "141928.517000", "141928.519000", "141928.522000", "142008.435000", "142008.438000", "142008.441000", "142008.443000", "142008.446000", "142008.448000", "142008.451000", "142008.453000", "142008.456000", "142008.458000", "142008.461000", "142008.463000", "142008.466000", "142008.469000", "142008.471000", "142008.473000", "142008.476000", "142008.479000", "142008.481000", "142008.483000", "142008.486000", "142008.489000", "142008.491000", "142008.493000", "142008.496000", "142008.499000", "142008.501000", "142048.433000", "142048.436000", "142048.438000", "142048.441000", "142048.443000", "142048.446000", "142048.448000", "142048.451000", "142048.453000", "142048.456000", "142048.458000", "142048.461000", "142048.463000", "142048.466000", "142048.469000", "142048.471000", "142048.474000", "142048.476000", "142048.479000", "142048.481000", "142048.484000", "142048.486000", "142048.489000", "142048.491000", "142048.494000", "142048.496000", "142048.499000", "142128.440000", "142128.443000", "142128.446000", "142128.448000", "142128.451000", "142128.453000", "142128.456000", "142128.458000", "142128.461000", "142128.464000", "142128.466000", "142128.469000", "142128.471000", "142128.474000", "142128.477000", "142128.479000", "142128.482000", "142128.484000", "142128.487000", "142128.489000", "142128.492000", "142128.494000", "142128.497000", "142128.499000", "142128.502000", "142128.504000", "142128.507000", "142208.437000", "142208.440000", "142208.442000", "142208.445000", "142208.447000", "142208.450000", "142208.452000", "142208.455000", "142208.457000", "142208.460000", "142208.462000", "142208.465000", "142208.467000", "142208.470000", "142208.472000", "142208.475000", "142208.477000", "142208.480000", "142208.483000", "142208.485000", "142208.488000", "142208.490000", "142208.493000", "142208.495000", "142208.498000", "142208.500000", "142208.503000", "142228.373000", "142228.376000", "142228.378000", "142228.381000", "142228.383000", "142228.386000", "142228.389000", "142228.391000", "142228.394000", "142228.396000", "142228.399000", "142228.401000", "142228.404000", "142308.428000", "142308.430000", "142308.433000", "142308.435000", "142308.438000", "142308.440000", "142308.443000", "142308.445000", "142308.448000", "142308.450000", "142308.475000", "142308.478000", "142308.480000", "142308.483000", "142308.485000", "142308.488000", "142308.490000", "142308.493000", "142308.495000", "142308.498000", "142308.500000", "142308.503000", "142308.505000", "142308.508000", "142308.510000", "142308.513000", "142308.515000", "142348.441000", "142348.444000", "142348.447000", "142348.449000", "142348.452000", "142348.454000", "142348.457000", "142348.459000", "142348.462000", "142348.464000", "142348.467000", "142348.469000", "142348.472000", "142348.475000", "142348.477000", "142348.480000", "142348.482000", "142348.485000", "142348.487000", "142348.490000", "142348.492000", "142348.495000", "142348.497000", "142348.500000", "142348.502000", "142348.505000", "142348.508000", "142428.444000", "142428.446000", "142428.449000", "142428.451000", "142428.454000", "142428.456000", "142428.459000", "142428.462000", "142428.464000", "142428.466000", "142428.469000", "142428.472000", "142428.474000", "142428.477000", "142428.479000", "142428.482000", "142428.484000", "142428.487000", "142428.489000", "142428.492000", "142428.494000", "142428.497000", "142428.499000", "142428.502000", "142428.504000", "142428.507000", "142449.304000", "142449.306000", "142449.317000", "142449.319000", "142449.322000", "142449.324000", "142449.327000", "142449.329000", "142449.332000", "142449.334000", "142449.337000", "142449.339000", "142449.342000", "142449.344000", "142449.347000"],
      "InstanceCreationTime": ["141528.473000", "141528.476000", "141528.478000", "141528.481000", "141528.483000", "141528.486000", "141528.488000", "141528.491000", "141528.493000", "141528.496000", "141528.498000", "141528.501000", "141528.503000", "141528.506000", "141528.508000", "141528.515000", "141528.517000", "141528.520000", "141528.522000", "141528.525000", "141528.527000", "141528.530000", "141548.402000", "141548.404000", "141548.407000", "141548.409000", "141548.412000", "141548.414000", "141548.417000", "141548.419000", "141548.422000", "141548.424000", "141548.427000", "141548.429000", "141548.432000", "141548.434000", "141548.436000", "141548.439000", "141548.441000", "141548.444000", "141548.446000", "141548.449000", "141608.413000", "141608.416000", "141608.418000", "141608.421000", "141608.423000", "141608.426000", "141608.428000", "141608.431000", "141608.433000", "141608.436000", "141608.438000", "141608.441000", "141608.443000", "141608.446000", "141608.448000", "141608.451000", "141608.453000", "141608.456000", "141608.458000", "141608.461000", "141608.463000", "141628.395000", "141628.398000", "141628.400000", "141628.403000", "141628.405000", "141628.408000", "141628.410000", "141628.413000", "141628.415000", "141628.418000", "141628.420000", "141628.423000", "141628.425000", "141628.428000", "141628.430000", "141628.433000", "141628.437000", "141628.439000", "141628.442000", "141628.445000", "141648.428000", "141648.431000", "141648.434000", "141648.436000", "141648.439000", "141648.441000", "141648.444000", "141648.446000", "141648.449000", "141648.451000", "141648.454000", "141648.457000", "141648.459000", "141648.462000", "141648.464000", "141648.467000", "141648.469000", "141648.471000", "141648.474000", "141648.477000", "141728.453000", "141728.456000", "141728.458000", "141728.461000", "141728.464000", "141728.466000", "141728.468000", "141728.471000", "141728.474000", "141728.476000", "141728.478000", "141728.481000", "141728.484000", "141728.486000", "141728.488000", "141728.491000", "141728.494000", "141728.496000", "141728.498000", "141728.501000", "141728.503000", "141728.506000", "141728.508000", "141728.511000", "141728.513000", "141728.516000", "141728.518000", "141728.521000", "141808.426000", "141808.429000", "141808.431000", "141808.434000", "141808.436000", "141808.444000", "141808.446000", "141808.449000", "141808.451000", "141808.454000", "141808.456000", "141808.459000", "141808.461000", "141808.464000", "141808.466000", "141808.469000", "141808.471000", "141808.474000", "141808.476000", "141808.479000", "141808.481000", "141808.484000", "141808.486000", "141808.489000", "141808.491000", "141808.494000", "141848.435000", "141848.438000", "141848.440000", "141848.443000", "141848.454000", "141848.457000", "141848.459000", "141848.462000", "141848.464000", "141848.467000", "141848.469000", "141848.472000", "141848.474000", "141848.477000", "141848.479000", "141848.482000", "141848.484000", "141848.487000", "141848.490000", "141848.492000", "141848.495000", "141848.498000", "141848.500000", "141848.503000", "141848.505000", "141848.508000", "141848.510000", "141928.456000", "141928.459000", "141928.462000", "141928.464000", "141928.467000", "141928.469000", "141928.472000", "141928.474000", "141928.477000", "141928.479000", "141928.482000", "141928.485000", "141928.487000", "141928.489000", "141928.492000", "141928.494000", "141928.497000", "141928.499000", "141928.502000", "141928.505000", "141928.507000", "141928.509000", "141928.512000", "141928.514000", "141928.517000", "141928.519000", "141928.522000", "142008.435000", "142008.438000", "142008.441000", "142008.443000", "142008.446000", "142008.448000", "142008.451000", "142008.453000", "142008.456000", "142008.458000", "142008.461000", "142008.463000", "142008.466000", "142008.469000", "142008.471000", "142008.473000", "142008.476000", "142008.479000", "142008.481000", "142008.483000", "142008.486000", "142008.489000", "142008.491000", "142008.493000", "142008.496000", "142008.499000", "142008.501000", "142048.433000", "142048.436000", "142048.438000", "142048.441000", "142048.443000", "142048.446000", "142048.448000", "142048.451000", "142048.453000", "142048.456000", "142048.458000", "142048.461000", "142048.463000", "142048.466000", "142048.469000", "142048.471000", "142048.474000", "142048.476000", "142048.479000", "142048.481000", "142048.484000", "142048.486000", "142048.489000", "142048.491000", "142048.494000", "142048.496000", "142048.499000", "142128.440000", "142128.443000", "142128.446000", "142128.448000", "142128.451000", "142128.453000", "142128.456000", "142128.458000", "142128.461000", "142128.464000", "142128.466000", "142128.469000", "142128.471000", "142128.474000", "142128.477000", "142128.479000", "142128.482000", "142128.484000", "142128.487000", "142128.489000", "142128.492000", "142128.494000", "142128.497000", "142128.499000", "142128.502000", "142128.504000", "142128.507000", "142208.437000", "142208.440000", "142208.442000", "142208.445000", "142208.447000", "142208.450000", "142208.452000", "142208.455000", "142208.457000", "142208.460000", "142208.462000", "142208.465000", "142208.467000", "142208.470000", "142208.472000", "142208.475000", "142208.477000", "142208.480000", "142208.483000", "142208.485000", "142208.488000", "142208.490000", "142208.493000", "142208.495000", "142208.498000", "142208.500000", "142208.503000", "142228.373000", "142228.376000", "142228.378000", "142228.381000", "142228.383000", "142228.386000", "142228.389000", "142228.391000", "142228.394000", "142228.396000", "142228.399000", "142228.401000", "142228.404000", "142308.428000", "142308.430000", "142308.433000", "142308.435000", "142308.438000", "142308.440000", "142308.443000", "142308.445000", "142308.448000", "142308.450000", "142308.475000", "142308.478000", "142308.480000", "142308.483000", "142308.485000", "142308.488000", "142308.490000", "142308.493000", "142308.495000", "142308.498000", "142308.500000", "142308.503000", "142308.505000", "142308.508000", "142308.510000", "142308.513000", "142308.515000", "142348.441000", "142348.444000", "142348.447000", "142348.449000", "142348.452000", "142348.454000", "142348.457000", "142348.459000", "142348.462000", "142348.464000", "142348.467000", "142348.469000", "142348.472000", "142348.475000", "142348.477000", "142348.480000", "142348.482000", "142348.485000", "142348.487000", "142348.490000", "142348.492000", "142348.495000", "142348.497000", "142348.500000", "142348.502000", "142348.505000", "142348.508000", "142428.444000", "142428.446000", "142428.449000", "142428.451000", "142428.454000", "142428.456000", "142428.459000", "142428.462000", "142428.464000", "142428.466000", "142428.469000", "142428.472000", "142428.474000", "142428.477000", "142428.479000", "142428.482000", "142428.484000", "142428.487000", "142428.489000", "142428.492000", "142428.494000", "142428.497000", "142428.499000", "142428.502000", "142428.504000", "142428.507000", "142449.304000", "142449.306000", "142449.317000", "142449.319000", "142449.322000", "142449.324000", "142449.327000", "142449.329000", "142449.332000", "142449.334000", "142449.337000", "142449.339000", "142449.342000", "142449.344000", "142449.347000"],
