{
  "AcquisitionMatrixPE": 104,
  "AcquisitionNumber": 1,
  "AcquisitionTime": "14:26:16.927500",
  "BandwidthPerPixelPhaseEncode": 17.17,
  "BaseResolution": 104,
  "BodyPartExamined": "BRAIN",
  "CoilString": "HC1-7;NC1_2",
  "ConsistencyInfo": "N4_VE11C_LATEST_20160120",
  "ConversionSoftware": "dcm2niix",
  "ConversionSoftwareVersion": "v1.0.20190902",
  "DerivedVendorReportedEchoSpacing": 0.000560011,
  "DeviceSerialNumber": "167006",
  "DwellTime": 2.1e-06,
  "EchoTime": 0.037,
  "EchoTrainLength": 104,
  "EffectiveEchoSpacing": 0.000560011,
  "FlipAngle": 52,
  "HeudiconvVersion": "0.10.0",
  "ImageComments": "Unaliased_MB4_PE3_LB",
  "ImageOrientationPatientDICOM": [0.999818, 0.0105602, 0.015885, -0.00122155, 0.866509, -0.49916],
  "ImageType": [
    "ORIGINAL",
    "PRIMARY",
    "M",
    "MB",
    "ND",
    "MOSAIC"
],
  "ImagingFrequency": 123.259,
  "InPlanePhaseEncodingDirectionDICOM": "COL",
  "InstitutionAddress": "Chemin_Queen-Mary_4565_Montreal_District_CA_H3W_1W5",
  "InstitutionName": "IUGM",
  "InstitutionalDepartmentName": "Department",
  "MRAcquisitionType": "2D",
  "MagneticFieldStrength": 3,
  "Manufacturer": "Siemens",
  "ManufacturersModelName": "Prisma_fit",
  "Modality": "MR",
  "MultibandAccelerationFactor": 4,
  "PartialFourier": 1,
  "PatientPosition": "HFS",
  "PercentPhaseFOV": 100,
  "PhaseEncodingDirection": "j",
  "PhaseEncodingSteps": 104,
  "PhaseResolution": 1,
  "PixelBandwidth": 2290,
  "ProcedureStepDescription": "games_mario",
  "ProtocolName": "func_task-mario_run-04",
  "PulseSequenceDetails": "%CustomerSeq%_cmrr_mbep2d_bold",
  "ReceiveCoilActiveElements": "HC1-7;NC1,2",
  "ReceiveCoilName": "HeadNeck_64",
  "ReconMatrixPE": 104,
  "RepetitionTime": 1.49,
  "SAR": 0.0556959,
  "ScanOptions": "FS",
  "ScanningSequence": "EP",
  "SequenceName": "epfid2d1_104",
  "SequenceVariant": "SK_SS",
  "SeriesDescription": "func_task-mario_run-04",
  "SeriesNumber": 19,
  "ShimSetting": [622, -7175, -8866, 337, 30, -163, -80, -11],
  "SliceThickness": 2,
  "SliceTiming": [0, 0.785, 0.1, 0.8825, 0.1975, 0.98, 0.295, 1.08, 0.3925, 1.1775, 0.49, 1.275, 0.59, 1.3725, 0.6875, 0, 0.785, 0.1, 0.8825, 0.1975, 0.98, 0.295, 1.08, 0.3925, 1.1775, 0.49, 1.275, 0.59, 1.3725, 0.6875, 0, 0.785, 0.1, 0.8825, 0.1975, 0.98, 0.295, 1.08, 0.3925, 1.1775, 0.49, 1.275, 0.59, 1.3725, 0.6875, 0, 0.785, 0.1, 0.8825, 0.1975, 0.98, 0.295, 1.08, 0.3925, 1.1775, 0.49, 1.275, 0.59, 1.3725, 0.6875],
  "SoftwareVersions": "syngo_MR_E11",
  "SpacingBetweenSlices": 2,
  "StationName": "MRC35049",
  "TaskName": "mario",
  "TotalReadoutTime": 0.0576811,
  "TxRefAmp": 283.464,
  "WipMemBlock": "25f6c9ab-5dcc-4bfb-bd2b-ee450b34dcfb||Sequence: R016 ve11c/master r/e634e98; Dec 19 2017 11:00:25 by eja",
  "dcmmeta_affine": [
    [-1.999636173248291, -0.002443107310682535, 0.038071341812610626, 106.25328063964844],
    [-0.021120328456163406, 1.7330174446105957, -0.9981005191802979, -51.99673080444336],
    [0.03176991268992424, 0.998320996761322, 1.7327278852462769, -100.45938873291016],
    [0.0, 0.0, 0.0, 1.0]
],
  "dcmmeta_reorient_transform": [
    [0.0, -1.0, 0.0, 103.0],
    [1.0, 0.0, 0.0, 0.0],
    [0.0, 0.0, 1.0, 0.0],
    [0.0, 0.0, 0.0, 1.0]
],
  "dcmmeta_shape": [104, 104, 60, 418],
  "dcmmeta_slice_dim": 2,
  "dcmmeta_version": 0.6,
  "global": {
    "const": {
      "AcquisitionMatrix": [104, 0, 0, 104],
      "AngioFlag": "N",
      "BitsAllocated": 16,
      "BitsStored": 16,
      "BodyPartExamined": "BRAIN",
      "Columns": 832,
      "EchoNumbers": 1,
      "EchoTime": 37.0,
      "EchoTrainLength": 104,
      "FlipAngle": 52.0,
      "HighBit": 15,
      "ImageOrientationPatient": [0.99981805898917, 0.01056016423779, 0.01588495673304, -0.0012215536703, 0.8665086946383, -0.4991604851377],
      "ImagePositionPatient": [-832.97989283766, -765.01018905293, 354.19225333504],
      "ImageType": [
        "ORIGINAL",
        "PRIMARY",
        "M",
        "MB",
        "ND",
        "MOSAIC"
],
      "ImagedNucleus": "1H",
      "ImagingFrequency": 123.258954,
      "InPlanePhaseEncodingDirection": "COL",
      "MRAcquisitionType": "2D",
      "MagneticFieldStrength": 3.0,
      "Manufacturer": "SIEMENS",
      "ManufacturerModelName": "Prisma_fit",
      "Modality": "MR",
      "NumberOfAverages": 1.0,
      "NumberOfPhaseEncodingSteps": 104,
      "PercentPhaseFieldOfView": 100.0,
      "PercentSampling": 100.0,
      "PerformedProcedureStepStartTime": "132038.262000",
      "PhotometricInterpretation": "MONOCHROME2",
      "PixelBandwidth": 2290.0,
      "PixelRepresentation": 0,
      "PixelSpacing": [2.0, 2.0],
      "ProtocolName": "func_task-mario_run-04",
      "RepetitionTime": 1490.0,
      "Rows": 832,
      "SAR": 0.05569585650454,
      "SamplesPerPixel": 1,
      "ScanOptions": "FS",
      "ScanningSequence": "EP",
      "SequenceName": "epfid2d1_104",
      "SequenceVariant": [
        "SK",
        "SS"
],
      "SeriesDescription": "func_task-mario_run-04",
      "SeriesNumber": 19,
      "SeriesTime": "142746.645000",
      "SliceLocation": -59.062809404735,
      "SliceThickness": 2.0,
      "SmallestImagePixelValue": 0,
      "SoftwareVersions": "syngo MR E11",
      "SpacingBetweenSlices": 2.000000030056,
      "SpecificCharacterSet": "ISO_IR 100",
      "StudyID": "1",
      "StudyTime": "132038.148000",
      "TransmitCoilName": "Body",
      "VariableFlipAngleFlag": "N",
      "WindowCenterWidthExplanation": "Algo1",
      "dBdt": 0.0},
    "slices": {}
  },
  "time": {
    "samples": {
      "AcquisitionNumber": [1, 2, 3, 4, 5, 6, 7, 8, 9, 10, 11, 12, 13, 14, 15, 16, 17, 18, 19, 20, 21, 22, 23, 24, 25, 26, 27, 28, 29, 30, 31, 32, 33, 34, 35, 36, 37, 38, 39, 40, 41, 42, 43, 44, 45, 46, 47, 48, 49, 50, 51, 52, 53, 54, 55, 56, 57, 58, 59, 60, 61, 62, 63, 64, 65, 66, 67, 68, 69, 70, 71, 72, 73, 74, 75, 76, 77, 78, 79, 80, 81, 82, 83, 84, 85, 86, 87, 88, 89, 90, 91, 92, 93, 94, 95, 96, 97, 98, 99, 100, 101, 102, 103, 104, 105, 106, 107, 108, 109, 110, 111, 112, 113, 114, 115, 116, 117, 118, 119, 120, 121, 122, 123, 124, 125, 126, 127, 128, 129, 130, 131, 132, 133, 134, 135, 136, 137, 138, 139, 140, 141, 142, 143, 144, 145, 146, 147, 148, 149, 150, 151, 152, 153, 154, 155, 156, 157, 158, 159, 160, 161, 162, 163, 164, 165, 166, 167, 168, 169, 170, 171, 172, 173, 174, 175, 176, 177, 178, 179, 180, 181, 182, 183, 184, 185, 186, 187, 188, 189, 190, 191, 192, 193, 194, 195, 196, 197, 198, 199, 200, 201, 202, 203, 204, 205, 206, 207, 208, 209, 210, 211, 212, 213, 214, 215, 216, 217, 218, 219, 220, 221, 222, 223, 224, 225, 226, 227, 228, 229, 230, 231, 232, 233, 234, 235, 236, 237, 238, 239, 240, 241, 242, 243, 244, 245, 246, 247, 248, 249, 250, 251, 252, 253, 254, 255, 256, 257, 258, 259, 260, 261, 262, 263, 264, 265, 266, 267, 268, 269, 270, 271, 272, 273, 274, 275, 276, 277, 278, 279, 280, 281, 282, 283, 284, 285, 286, 287, 288, 289, 290, 291, 292, 293, 294, 295, 296, 297, 298, 299, 300, 301, 302, 303, 304, 305, 306, 307, 308, 309, 310, 311, 312, 313, 314, 315, 316, 317, 318, 319, 320, 321, 322, 323, 324, 325, 326, 327, 328, 329, 330, 331, 332, 333, 334, 335, 336, 337, 338, 339, 340, 341, 342, 343, 344, 345, 346, 347, 348, 349, 350, 351, 352, 353, 354, 355, 356, 357, 358, 359, 360, 361, 362, 363, 364, 365, 366, 367, 368, 369, 370, 371, 372, 373, 374, 375, 376, 377, 378, 379, 380, 381, 382, 383, 384, 385, 386, 387, 388, 389, 390, 391, 392, 393, 394, 395, 396, 397, 398, 399, 400, 401, 402, 403, 404, 405, 406, 407, 408, 409, 410, 411, 412, 413, 414, 415, 416, 417, 418],
      "AcquisitionTime": ["142616.927500", "142618.417500", "142619.907500", "142621.397500", "142622.887500", "142624.377500", "142625.867500", "142627.357500", "142628.847500", "142630.337500", "142631.827500", "142633.317500", "142634.807500", "142636.297500", "142637.787500", "142639.277500", "142640.767500", "142642.257500", "142643.747500", "142645.237500", "142646.727500", "142648.217500", "142649.707500", "142651.197500", "142652.687500", "142654.177500", "142655.667500", "142657.157500", "142658.647500", "142700.137500", "142701.627500", "142703.117500", "142704.607500", "142706.097500", "142707.587500", "142709.077500", "142710.567500", "142712.057500", "142713.547500", "142715.037500", "142716.527500", "142718.017500", "142719.507500", "142720.997500", "142722.487500", "142723.977500", "142725.467500", "142726.957500", "142728.447500", "142729.937500", "142731.427500", "142732.917500", "142734.407500", "142735.897500", "142737.387500", "142738.877500", "142740.367500", "142741.857500", "142743.347500", "142744.837500", "142746.327500", "142747.817500", "142749.307500", "142750.797500", "142752.287500", "142753.777500", "142755.267500", "142756.757500", "142758.247500", "142759.737500", "142801.227500", "142802.717500", "142804.207500", "142805.697500", "142807.187500", "142808.677500", "142810.167500", "142811.657500", "142813.147500", "142814.637500", "142816.127500", "142817.617500", "142819.107500", "142820.597500", "142822.087500", "142823.577500", "142825.067500", "142826.557500", "142828.047500", "142829.537500", "142831.027500", "142832.517500", "142834.007500", "142835.497500", "142836.987500", "142838.477500", "142839.967500", "142841.457500", "142842.947500", "142844.437500", "142845.927500", "142847.417500", "142848.907500", "142850.397500", "142851.887500", "142853.377500", "142854.867500", "142856.357500", "142857.847500", "142859.337500", "142900.827500", "142902.317500", "142903.807500", "142905.297500", "142906.787500", "142908.277500", "142909.767500", "142911.257500", "142912.747500", "142914.237500", "142915.727500", "142917.217500", "142918.707500", "142920.197500", "142921.687500", "142923.177500", "142924.667500", "142926.157500", "142927.647500", "142929.137500", "142930.627500", "142932.117500", "142933.607500", "142935.097500", "142936.587500", "142938.077500", "142939.567500", "142941.057500", "142942.547500", "142944.037500", "142945.527500", "142947.017500", "142948.507500", "142949.997500", "142951.487500", "142952.977500", "142954.467500", "142955.957500", "142957.447500", "142958.937500", "143000.427500", "143001.917500", "143003.407500", "143004.897500", "143006.387500", "143007.877500", "143009.367500", "143010.857500", "143012.347500", "143013.837500", "143015.327500", "143016.817500", "143018.307500", "143019.797500", "143021.287500", "143022.777500", "143024.267500", "143025.757500", "143027.247500", "143028.737500", "143030.227500", "143031.717500", "143033.207500", "143034.697500", "143036.187500", "143037.677500", "143039.167500", "143040.657500", "143042.147500", "143043.637500", "143045.127500", "143046.617500", "143048.107500", "143049.597500", "143051.087500", "143052.577500", "143054.067500", "143055.557500", "143057.047500", "143058.537500", "143100.027500", "143101.517500", "143103.007500", "143104.497500", "143105.987500", "143107.477500", "143108.967500", "143110.457500", "143111.947500", "143113.437500", "143114.927500", "143116.417500", "143117.907500", "143119.397500", "143120.887500", "143122.377500", "143123.867500", "143125.357500", "143126.847500", "143128.337500", "143129.827500", "143131.317500", "143132.807500", "143134.297500", "143135.787500", "143137.277500", "143138.767500", "143140.257500", "143141.747500", "143143.237500", "143144.727500", "143146.217500", "143147.707500", "143149.197500", "143150.687500", "143152.177500", "143153.667500", "143155.157500", "143156.647500", "143158.137500", "143159.627500", "143201.117500", "143202.607500", "143204.097500", "143205.587500", "143207.077500", "143208.567500", "143210.057500", "143211.547500", "143213.037500", "143214.527500", "143216.017500", "143217.507500", "143218.997500", "143220.487500", "143221.977500", "143223.467500", "143224.957500", "143226.447500", "143227.937500", "143229.427500", "143230.917500", "143232.407500", "143233.897500", "143235.387500", "143236.877500", "143238.367500", "143239.857500", "143241.347500", "143242.837500", "143244.327500", "143245.817500", "143247.307500", "143248.797500", "143250.287500", "143251.777500", "143253.267500", "143254.757500", "143256.247500", "143257.737500", "143259.227500", "143300.717500", "143302.207500", "143303.697500", "143305.187500", "143306.677500", "143308.167500", "143309.657500", "143311.147500", "143312.637500", "143314.127500", "143315.617500", "143317.107500", "143318.597500", "143320.087500", "143321.577500", "143323.067500", "143324.557500", "143326.047500", "143327.537500", "143329.027500", "143330.517500", "143332.007500", "143333.497500", "143334.987500", "143336.477500", "143337.967500", "143339.457500", "143340.947500", "143342.437500", "143343.927500", "143345.417500", "143346.907500", "143348.397500", "143349.887500", "143351.377500", "143352.867500", "143354.357500", "143355.847500", "143357.337500", "143358.827500", "143400.317500", "143401.807500", "143403.297500", "143404.787500", "143406.277500", "143407.767500", "143409.257500", "143410.747500", "143412.237500", "143413.727500", "143415.217500", "143416.707500", "143418.197500", "143419.687500", "143421.177500", "143422.667500", "143424.157500", "143425.647500", "143427.137500", "143428.627500", "143430.117500", "143431.607500", "143433.097500", "143434.587500", "143436.077500", "143437.567500", "143439.057500", "143440.547500", "143442.037500", "143443.527500", "143445.017500", "143446.507500", "143447.997500", "143449.487500", "143450.977500", "143452.467500", "143453.957500", "143455.447500", "143456.937500", "143458.427500", "143459.917500", "143501.407500", "143502.897500", "143504.387500", "143505.877500", "143507.367500", "143508.857500", "143510.347500", "143511.837500", "143513.327500", "143514.817500", "143516.307500", "143517.797500", "143519.287500", "143520.777500", "143522.267500", "143523.757500", "143525.247500", "143526.737500", "143528.227500", "143529.717500", "143531.207500", "143532.697500", "143534.187500", "143535.677500", "143537.167500", "143538.657500", "143540.147500", "143541.637500", "143543.127500", "143544.617500", "143546.107500", "143547.597500", "143549.087500", "143550.577500", "143552.067500", "143553.557500", "143555.047500", "143556.537500", "143558.027500", "143559.517500", "143601.007500", "143602.497500", "143603.987500", "143605.477500", "143606.967500", "143608.457500", "143609.947500", "143611.437500", "143612.927500", "143614.417500", "143615.907500", "143617.397500", "143618.887500", "143620.377500", "143621.867500", "143623.357500", "143624.847500", "143626.337500", "143627.827500", "143629.317500", "143630.807500", "143632.297500", "143633.787500", "143635.277500", "143636.767500", "143638.257500"],
      "ContentTime": ["142746.648000", "142746.652000", "142746.655000", "142746.658000", "142746.662000", "142746.665000", "142746.668000", "142746.672000", "142746.675000", "142746.678000", "142746.682000", "142746.685000", "142746.688000", "142746.692000", "142746.695000", "142746.698000", "142746.702000", "142746.705000", "142746.708000", "142746.711000", "142746.715000", "142746.718000", "142746.721000", "142746.725000", "142746.728000", "142746.731000", "142746.734000", "142746.738000", "142746.741000", "142746.753000", "142746.756000", "142746.759000", "142746.763000", "142746.766000", "142746.769000", "142806.606000", "142806.610000", "142806.613000", "142806.616000", "142806.620000", "142806.623000", "142806.626000", "142806.629000", "142806.633000", "142806.636000", "142806.639000", "142806.642000", "142806.646000", "142806.649000", "142806.652000", "142806.655000", "142806.659000", "142806.662000", "142806.665000", "142806.668000", "142826.606000", "142826.610000", "142826.614000", "142826.618000", "142826.621000", "142826.625000", "142826.629000", "142826.633000", "142826.636000", "142826.640000", "142826.644000", "142826.647000", "142826.650000", "142826.654000", "142826.657000", "142826.660000", "142826.664000", "142826.667000", "142826.670000", "142826.673000", "142846.605000", "142846.609000", "142846.612000", "142846.616000", "142846.619000", "142846.622000", "142846.626000", "142846.629000", "142846.632000", "142846.636000", "142846.640000", "142846.643000", "142846.647000", "142846.650000", "142846.653000", "142846.656000", "142846.660000", "142846.677000", "142846.680000", "142846.684000", "142846.687000", "142926.605000", "142926.609000", "142926.612000", "142926.615000", "142926.619000", "142926.622000", "142926.625000", "142926.629000", "142926.632000", "142926.635000", "142926.639000", "142926.642000", "142926.645000", "142926.648000", "142926.652000", "142926.655000", "142926.659000", "142926.662000", "142926.665000", "142926.668000", "142926.672000", "142926.675000", "142926.678000", "142926.682000", "142926.685000", "142926.688000", "142926.692000", "142926.695000", "142926.698000", "142926.701000", "143006.605000", "143006.609000", "143006.612000", "143006.616000", "143006.619000", "143006.622000", "143006.626000", "143006.629000", "143006.632000", "143006.636000", "143006.639000", "143006.642000", "143006.646000", "143006.649000", "143006.652000", "143006.655000", "143006.659000", "143006.662000", "143006.665000", "143006.669000", "143006.673000", "143006.676000", "143006.679000", "143006.683000", "143006.686000", "143006.690000", "143006.693000", "143046.606000", "143046.610000", "143046.613000", "143046.617000", "143046.620000", "143046.623000", "143046.627000", "143046.630000", "143046.633000", "143046.636000", "143046.640000", "143046.643000", "143046.646000", "143046.650000", "143046.653000", "143046.656000", "143046.659000", "143046.663000", "143046.666000", "143046.669000", "143046.673000", "143046.676000", "143046.686000", "143046.689000", "143046.693000", "143046.696000", "143046.699000", "143126.605000", "143126.616000", "143126.619000", "143126.623000", "143126.626000", "143126.629000", "143126.633000", "143126.636000", "143126.639000", "143126.643000", "143126.646000", "143126.649000", "143126.653000", "143126.656000", "143126.659000", "143126.662000", "143126.666000", "143126.669000", "143126.672000", "143126.676000", "143126.679000", "143126.682000", "143126.686000", "143126.689000", "143126.692000", "143126.696000", "143126.699000", "143206.605000", "143206.609000", "143206.612000", "143206.616000", "143206.619000", "143206.622000", "143206.626000", "143206.629000", "143206.632000", "143206.636000", "143206.639000", "143206.642000", "143206.646000", "143206.649000", "143206.652000", "143206.655000", "143206.659000", "143206.662000", "143206.665000", "143206.669000", "143206.672000", "143206.675000", "143206.679000", "143206.682000", "143206.685000", "143206.688000", "143206.692000", "143246.606000", "143246.610000", "143246.613000", "143246.616000", "143246.620000", "143246.623000", "143246.627000", "143246.630000", "143246.633000", "143246.637000", "143246.640000", "143246.643000", "143246.648000", "143246.652000", "143246.657000", "143246.662000", "143246.665000", "143246.669000", "143246.673000", "143246.676000", "143246.680000", "143246.683000", "143246.687000", "143246.690000", "143246.693000", "143246.697000", "143326.605000", "143326.609000", "143326.612000", "143326.615000", "143326.619000", "143326.622000", "143326.626000", "143326.629000", "143326.632000", "143326.636000", "143326.639000", "143326.642000", "143326.646000", "143326.649000", "143326.652000", "143326.656000", "143326.659000", "143326.662000", "143326.666000", "143326.669000", "143326.672000", "143326.691000", "143326.694000", "143326.698000", "143326.701000", "143326.704000", "143326.707000", "143406.605000", "143406.609000", "143406.612000", "143406.616000", "143406.619000", "143406.622000", "143406.626000", "143406.629000", "143406.632000", "143406.635000", "143406.639000", "143406.642000", "143406.645000", "143406.649000", "143406.652000", "143406.655000", "143406.659000", "143406.662000", "143406.665000", "143406.669000", "143406.672000", "143406.675000", "143406.679000", "143406.682000", "143406.685000", "143406.689000", "143406.692000", "143446.605000", "143446.609000", "143446.612000", "143446.615000", "143446.619000", "143446.622000", "143446.625000", "143446.629000", "143446.632000", "143446.635000", "143446.639000", "143446.642000", "143446.646000", "143446.649000", "143446.652000", "143446.655000", "143446.659000", "143446.662000", "143446.665000", "143446.669000", "143446.672000", "143446.675000", "143446.679000", "143446.682000", "143446.685000", "143446.689000", "143446.693000", "143526.605000", "143526.609000", "143526.612000", "143526.616000", "143526.619000", "143526.622000", "143526.625000", "143526.629000", "143526.632000", "143526.635000", "143526.639000", "143526.642000", "143526.645000", "143526.648000", "143526.652000", "143526.655000", "143526.658000", "143526.662000", "143526.679000", "143526.683000", "143526.686000", "143526.689000", "143526.694000", "143526.698000", "143526.701000", "143526.704000", "143526.707000", "143606.605000", "143606.609000", "143606.612000", "143606.615000", "143606.619000", "143606.622000", "143606.625000", "143606.629000", "143606.632000", "143606.635000", "143606.639000", "143606.642000", "143606.645000", "143606.649000", "143606.652000", "143606.655000", "143606.659000", "143606.662000", "143606.665000", "143606.669000", "143606.672000", "143606.675000", "143606.679000", "143606.682000", "143606.685000", "143606.689000", "143606.692000", "143640.641000", "143640.644000", "143640.648000", "143640.651000", "143640.655000", "143640.658000", "143640.661000", "143640.665000", "143640.668000", "143640.672000", "143640.676000", "143640.679000", "143640.682000", "143640.686000", "143640.689000", "143640.692000", "143640.696000", "143640.699000", "143640.702000", "143640.706000", "143640.709000", "143640.712000", "143640.716000"],
      "InstanceCreationTime": ["142746.648000", "142746.652000", "142746.655000", "142746.658000", "142746.662000", "142746.665000", "142746.668000", "142746.672000", "142746.675000", "142746.678000", "142746.682000", "142746.685000", "142746.688000", "142746.692000", "142746.695000", "142746.698000", "142746.702000", "142746.705000", "142746.708000", "142746.711000", "142746.715000", "142746.718000", "142746.721000", "142746.725000", "142746.728000", "142746.731000", "142746.734000", "142746.738000", "142746.741000", "142746.753000", "142746.756000", "142746.759000", "142746.763000", "142746.766000", "142746.769000", "142806.606000", "142806.610000", "142806.613000", "142806.616000", "142806.620000", "142806.623000", "142806.626000", "142806.629000", "142806.633000", "142806.636000", "142806.639000", "142806.642000", "142806.646000", "142806.649000", "142806.652000", "142806.655000", "142806.659000", "142806.662000", "142806.665000", "142806.668000", "142826.606000", "142826.610000", "142826.614000", "142826.618000", "142826.621000", "142826.625000", "142826.629000", "142826.633000", "142826.636000", "142826.640000", "142826.644000", "142826.647000", "142826.650000", "142826.654000", "142826.657000", "142826.660000", "142826.664000", "142826.667000", "142826.670000", "142826.673000", "142846.605000", "142846.609000", "142846.612000", "142846.616000", "142846.619000", "142846.622000", "142846.626000", "142846.629000", "142846.632000", "142846.636000", "142846.640000", "142846.643000", "142846.647000", "142846.650000", "142846.653000", "142846.656000", "142846.660000", "142846.677000", "142846.680000", "142846.684000", "142846.687000", "142926.605000", "142926.609000", "142926.612000", "142926.615000", "142926.619000", "142926.622000", "142926.625000", "142926.629000", "142926.632000", "142926.635000", "142926.639000", "142926.642000", "142926.645000", "142926.648000", "142926.652000", "142926.655000", "142926.659000", "142926.662000", "142926.665000", "142926.668000", "142926.672000", "142926.675000", "142926.678000", "142926.682000", "142926.685000", "142926.688000", "142926.692000", "142926.695000", "142926.698000", "142926.701000", "143006.605000", "143006.609000", "143006.612000", "143006.616000", "143006.619000", "143006.622000", "143006.626000", "143006.629000", "143006.632000", "143006.636000", "143006.639000", "143006.642000", "143006.646000", "143006.649000", "143006.652000", "143006.655000", "143006.659000", "143006.662000", "143006.665000", "143006.669000", "143006.673000", "143006.676000", "143006.679000", "143006.683000", "143006.686000", "143006.690000", "143006.693000", "143046.606000", "143046.610000", "143046.613000", "143046.617000", "143046.620000", "143046.623000", "143046.627000", "143046.630000", "143046.633000", "143046.636000", "143046.640000", "143046.643000", "143046.646000", "143046.650000", "143046.653000", "143046.656000", "143046.659000", "143046.663000", "143046.666000", "143046.669000", "143046.673000", "143046.676000", "143046.686000", "143046.689000", "143046.693000", "143046.696000", "143046.699000", "143126.605000", "143126.616000", "143126.619000", "143126.623000", "143126.626000", "143126.629000", "143126.633000", "143126.636000", "143126.639000", "143126.643000", "143126.646000", "143126.649000", "143126.653000", "143126.656000", "143126.659000", "143126.662000", "143126.666000", "143126.669000", "143126.672000", "143126.676000", "143126.679000", "143126.682000", "143126.686000", "143126.689000", "143126.692000", "143126.696000", "143126.699000", "143206.605000", "143206.609000", "143206.612000", "143206.616000", "143206.619000", "143206.622000", "143206.626000", "143206.629000", "143206.632000", "143206.636000", "143206.639000", "143206.642000", "143206.646000", "143206.649000", "143206.652000", "143206.655000", "143206.659000", "143206.662000", "143206.665000", "143206.669000", "143206.672000", "143206.675000", "143206.679000", "143206.682000", "143206.685000", "143206.688000", "143206.692000", "143246.606000", "143246.610000", "143246.613000", "143246.616000", "143246.620000", "143246.623000", "143246.627000", "143246.630000", "143246.633000", "143246.637000", "143246.640000", "143246.643000", "143246.648000", "143246.652000", "143246.657000", "143246.662000", "143246.665000", "143246.669000", "143246.673000", "143246.676000", "143246.680000", "143246.683000", "143246.687000", "143246.690000", "143246.693000", "143246.697000", "143326.605000", "143326.609000", "143326.612000", "143326.615000", "143326.619000", "143326.622000", "143326.626000", "143326.629000", "143326.632000", "143326.636000", "143326.639000", "143326.642000", "143326.646000", "143326.649000", "143326.652000", "143326.656000", "143326.659000", "143326.662000", "143326.666000", "143326.669000", "143326.672000", "143326.691000", "143326.694000", "143326.698000", "143326.701000", "143326.704000", "143326.707000", "143406.605000", "143406.609000", "143406.612000", "143406.616000", "143406.619000", "143406.622000", "143406.626000", "143406.629000", "143406.632000", "143406.635000", "143406.639000", "143406.642000", "143406.645000", "143406.649000", "143406.652000", "143406.655000", "143406.659000", "143406.662000", "143406.665000", "143406.669000", "143406.672000", "143406.675000", "143406.679000", "143406.682000", "143406.685000", "143406.689000", "143406.692000", "143446.605000", "143446.609000", "143446.612000", "143446.615000", "143446.619000", "143446.622000", "143446.625000", "143446.629000", "143446.632000", "143446.635000", "143446.639000", "143446.642000", "143446.646000", "143446.649000", "143446.652000", "143446.655000", "143446.659000", "143446.662000", "143446.665000", "143446.669000", "143446.672000", "143446.675000", "143446.679000", "143446.682000", "143446.685000", "143446.689000", "143446.693000", "143526.605000", "143526.609000", "143526.612000", "143526.616000", "143526.619000", "143526.622000", "143526.625000", "143526.629000", "143526.632000", "143526.635000", "143526.639000", "143526.642000", "143526.645000", "143526.648000", "143526.652000", "143526.655000", "143526.658000", "143526.662000", "143526.679000", "143526.683000", "143526.686000", "143526.689000", "143526.694000", "143526.698000", "143526.701000", "143526.704000", "143526.707000", "143606.605000", "143606.609000", "143606.612000", "143606.615000", "143606.619000", "143606.622000", "143606.625000", "143606.629000", "143606.632000", "143606.635000", "143606.639000", "143606.642000", "143606.645000", "143606.649000", "143606.652000", "143606.655000", "143606.659000", "143606.662000", "143606.665000", "143606.669000", "143606.672000", "143606.675000", "143606.679000", "143606.682000", "143606.685000", "143606.689000", "143606.692000", "143640.641000", "143640.644000", "143640.648000", "143640.651000", "143640.655000", "143640.658000", "143640.661000", "143640.665000", "143640.668000", "143640.672000", "143640.676000", "143640.679000", "143640.682000", "143640.686000", "143640.689000", "143640.692000", "143640.696000", "143640.699000", "143640.702000", "143640.706000", "143640.709000", "143640.712000", "143640.716000"],
