{
  "AcquisitionMatrixPE": 104,
  "AcquisitionNumber": 1,
  "AcquisitionTime": "14:01:27.885000",
  "BandwidthPerPixelPhaseEncode": 17.17,
  "BaseResolution": 104,
  "BodyPartExamined": "BRAIN",
  "CoilString": "HC1-7;NC1_2",
  "ConsistencyInfo": "N4_VE11C_LATEST_20160120",
  "ConversionSoftware": "dcm2niix",
  "ConversionSoftwareVersion": "v1.0.20190902",
  "DerivedVendorReportedEchoSpacing": 0.000560011,
  "DeviceSerialNumber": "167006",
  "DwellTime": 2.1e-06,
  "EchoTime": 0.037,
  "EchoTrainLength": 104,
  "EffectiveEchoSpacing": 0.000560011,
  "FlipAngle": 52,
  "HeudiconvVersion": "0.10.0",
  "ImageComments": "Unaliased_MB4_PE3_LB",
  "ImageOrientationPatientDICOM": [0.999818, 0.0105602, 0.015885, -0.00122155, 0.866509, -0.49916],
  "ImageType": [
    "ORIGINAL",
    "PRIMARY",
    "P",
    "MB",
    "ND",
    "MOSAIC"
],
  "ImagingFrequency": 123.259,
  "InPlanePhaseEncodingDirectionDICOM": "COL",
  "InstitutionAddress": "Chemin_Queen-Mary_4565_Montreal_District_CA_H3W_1W5",
  "InstitutionName": "IUGM",
  "InstitutionalDepartmentName": "Department",
  "MRAcquisitionType": "2D",
  "MagneticFieldStrength": 3,
  "Manufacturer": "Siemens",
  "ManufacturersModelName": "Prisma_fit",
  "Modality": "MR",
  "MultibandAccelerationFactor": 4,
  "PartialFourier": 1,
  "PatientPosition": "HFS",
  "PercentPhaseFOV": 100,
  "PhaseEncodingDirection": "j",
  "PhaseEncodingSteps": 104,
  "PhaseResolution": 1,
  "PixelBandwidth": 2290,
  "ProcedureStepDescription": "games_mario",
  "ProtocolName": "func_task-mario_run-02",
  "PulseSequenceDetails": "%CustomerSeq%_cmrr_mbep2d_bold",
  "ReceiveCoilActiveElements": "HC1-7;NC1,2",
  "ReceiveCoilName": "HeadNeck_64",
  "ReconMatrixPE": 104,
  "RepetitionTime": 1.49,
  "SAR": 0.0556959,
  "ScanOptions": "FS",
  "ScanningSequence": "EP",
  "SequenceName": "epfid2d1_104",
  "SequenceVariant": "SK_SS",
  "SeriesDescription": "func_task-mario_run-02",
  "SeriesNumber": 14,
  "ShimSetting": [622, -7175, -8866, 337, 30, -163, -80, -11],
  "SliceThickness": 2,
  "SliceTiming": [0, 0.7825, 0.0975, 0.88, 0.195, 0.98, 0.2925, 1.0775, 0.39, 1.175, 0.49, 1.2725, 0.5875, 1.37, 0.685, 0, 0.7825, 0.0975, 0.88, 0.195, 0.98, 0.2925, 1.0775, 0.39, 1.175, 0.49, 1.2725, 0.5875, 1.37, 0.685, 0, 0.7825, 0.0975, 0.88, 0.195, 0.98, 0.2925, 1.0775, 0.39, 1.175, 0.49, 1.2725, 0.5875, 1.37, 0.685, 0, 0.7825, 0.0975, 0.88, 0.195, 0.98, 0.2925, 1.0775, 0.39, 1.175, 0.49, 1.2725, 0.5875, 1.37, 0.685],
  "SoftwareVersions": "syngo_MR_E11",
  "SpacingBetweenSlices": 2,
  "StationName": "MRC35049",
  "TaskName": "mario",
  "TotalReadoutTime": 0.0576811,
  "TxRefAmp": 283.464,
  "WipMemBlock": "fa752f9f-497a-494a-84f5-96cf171db67c||Sequence: R016 ve11c/master r/e634e98; Dec 19 2017 11:00:25 by eja",
  "dcmmeta_affine": [
    [-1.999636173248291, -0.002443107310682535, 0.038071341812610626, 106.25328063964844],
    [-0.021120328456163406, 1.7330174446105957, -0.9981005191802979, -51.99673080444336],
    [0.03176991268992424, 0.998320996761322, 1.7327278852462769, -100.45938873291016],
    [0.0, 0.0, 0.0, 1.0]
],
  "dcmmeta_reorient_transform": [
    [0.0, -1.0, 0.0, 103.0],
    [1.0, 0.0, 0.0, 0.0],
    [0.0, 0.0, 1.0, 0.0],
    [0.0, 0.0, 0.0, 1.0]
],
  "dcmmeta_shape": [104, 104, 60, 450],
  "dcmmeta_slice_dim": 2,
  "dcmmeta_version": 0.6,
  "global": {
    "const": {
      "AcquisitionMatrix": [104, 0, 0, 104],
      "AngioFlag": "N",
      "BitsAllocated": 16,
      "BitsStored": 16,
      "BodyPartExamined": "BRAIN",
      "Columns": 832,
      "EchoNumbers": 1,
      "EchoTime": 37.0,
      "EchoTrainLength": 104,
      "FlipAngle": 52.0,
      "HighBit": 15,
      "ImageOrientationPatient": [0.99981805898917, 0.01056016423779, 0.01588495673304, -0.0012215536703, 0.8665086946383, -0.4991604851377],
      "ImagePositionPatient": [-832.97989283766, -765.01018905293, 354.19225333504],
      "ImageType": [
        "ORIGINAL",
        "PRIMARY",
        "P",
        "MB",
        "ND",
        "MOSAIC"
],
      "ImagedNucleus": "1H",
      "ImagingFrequency": 123.258941,
      "InPlanePhaseEncodingDirection": "COL",
      "LargestImagePixelValue": 4095,
      "MRAcquisitionType": "2D",
      "MagneticFieldStrength": 3.0,
      "Manufacturer": "SIEMENS",
      "ManufacturerModelName": "Prisma_fit",
      "Modality": "MR",
      "NumberOfAverages": 1.0,
      "NumberOfPhaseEncodingSteps": 104,
      "PercentPhaseFieldOfView": 100.0,
      "PercentSampling": 100.0,
      "PerformedProcedureStepStartTime": "132038.262000",
      "PhotometricInterpretation": "MONOCHROME2",
      "PixelBandwidth": 2290.0,
      "PixelRepresentation": 0,
      "PixelSpacing": [2.0, 2.0],
      "ProtocolName": "func_task-mario_run-02",
      "RepetitionTime": 1490.0,
      "RescaleIntercept": -4096.0,
      "RescaleSlope": 2.0,
      "RescaleType": "US",
      "Rows": 832,
      "SAR": 0.05569585650454,
      "SamplesPerPixel": 1,
      "ScanOptions": "FS",
      "ScanningSequence": "EP",
      "SequenceName": "epfid2d1_104",
      "SequenceVariant": [
        "SK",
        "SS"
],
      "SeriesDescription": "func_task-mario_run-02",
      "SeriesNumber": 14,
      "SeriesTime": "140245.684000",
      "SliceLocation": -59.062809404735,
      "SliceThickness": 2.0,
      "SmallestImagePixelValue": 0,
      "SoftwareVersions": "syngo MR E11",
      "SpacingBetweenSlices": 2.000000030056,
      "SpecificCharacterSet": "ISO_IR 100",
      "StudyID": "1",
      "StudyTime": "132038.148000",
      "TransmitCoilName": "Body",
      "VariableFlipAngleFlag": "N",
      "WindowCenterWidthExplanation": "Algo1",
      "dBdt": 0.0},
    "slices": {}
  },
  "time": {
    "samples": {
      "AcquisitionNumber": [1, 2, 3, 4, 5, 6, 7, 8, 9, 10, 11, 12, 13, 14, 15, 16, 17, 18, 19, 20, 21, 22, 23, 24, 25, 26, 27, 28, 29, 30, 31, 32, 33, 34, 35, 36, 37, 38, 39, 40, 41, 42, 43, 44, 45, 46, 47, 48, 49, 50, 51, 52, 53, 54, 55, 56, 57, 58, 59, 60, 61, 62, 63, 64, 65, 66, 67, 68, 69, 70, 71, 72, 73, 74, 75, 76, 77, 78, 79, 80, 81, 82, 83, 84, 85, 86, 87, 88, 89, 90, 91, 92, 93, 94, 95, 96, 97, 98, 99, 100, 101, 102, 103, 104, 105, 106, 107, 108, 109, 110, 111, 112, 113, 114, 115, 116, 117, 118, 119, 120, 121, 122, 123, 124, 125, 126, 127, 128, 129, 130, 131, 132, 133, 134, 135, 136, 137, 138, 139, 140, 141, 142, 143, 144, 145, 146, 147, 148, 149, 150, 151, 152, 153, 154, 155, 156, 157, 158, 159, 160, 161, 162, 163, 164, 165, 166, 167, 168, 169, 170, 171, 172, 173, 174, 175, 176, 177, 178, 179, 180, 181, 182, 183, 184, 185, 186, 187, 188, 189, 190, 191, 192, 193, 194, 195, 196, 197, 198, 199, 200, 201, 202, 203, 204, 205, 206, 207, 208, 209, 210, 211, 212, 213, 214, 215, 216, 217, 218, 219, 220, 221, 222, 223, 224, 225, 226, 227, 228, 229, 230, 231, 232, 233, 234, 235, 236, 237, 238, 239, 240, 241, 242, 243, 244, 245, 246, 247, 248, 249, 250, 251, 252, 253, 254, 255, 256, 257, 258, 259, 260, 261, 262, 263, 264, 265, 266, 267, 268, 269, 270, 271, 272, 273, 274, 275, 276, 277, 278, 279, 280, 281, 282, 283, 284, 285, 286, 287, 288, 289, 290, 291, 292, 293, 294, 295, 296, 297, 298, 299, 300, 301, 302, 303, 304, 305, 306, 307, 308, 309, 310, 311, 312, 313, 314, 315, 316, 317, 318, 319, 320, 321, 322, 323, 324, 325, 326, 327, 328, 329, 330, 331, 332, 333, 334, 335, 336, 337, 338, 339, 340, 341, 342, 343, 344, 345, 346, 347, 348, 349, 350, 351, 352, 353, 354, 355, 356, 357, 358, 359, 360, 361, 362, 363, 364, 365, 366, 367, 368, 369, 370, 371, 372, 373, 374, 375, 376, 377, 378, 379, 380, 381, 382, 383, 384, 385, 386, 387, 388, 389, 390, 391, 392, 393, 394, 395, 396, 397, 398, 399, 400, 401, 402, 403, 404, 405, 406, 407, 408, 409, 410, 411, 412, 413, 414, 415, 416, 417, 418, 419, 420, 421, 422, 423, 424, 425, 426, 427, 428, 429, 430, 431, 432, 433, 434, 435, 436, 437, 438, 439, 440, 441, 442, 443, 444, 445, 446, 447, 448, 449, 450],
      "AcquisitionTime": ["140127.885000", "140129.375000", "140130.865000", "140132.355000", "140133.845000", "140135.335000", "140136.825000", "140138.315000", "140139.805000", "140141.295000", "140142.785000", "140144.275000", "140145.765000", "140147.255000", "140148.745000", "140150.235000", "140151.725000", "140153.215000", "140154.705000", "140156.195000", "140157.685000", "140159.175000", "140200.665000", "140202.155000", "140203.645000", "140205.135000", "140206.625000", "140208.115000", "140209.605000", "140211.095000", "140212.585000", "140214.075000", "140215.565000", "140217.055000", "140218.545000", "140220.035000", "140221.525000", "140223.015000", "140224.505000", "140225.995000", "140227.485000", "140228.975000", "140230.465000", "140231.955000", "140233.445000", "140234.935000", "140236.425000", "140237.915000", "140239.405000", "140240.895000", "140242.385000", "140243.875000", "140245.365000", "140246.855000", "140248.345000", "140249.835000", "140251.325000", "140252.815000", "140254.305000", "140255.795000", "140257.285000", "140258.775000", "140300.265000", "140301.755000", "140303.245000", "140304.735000", "140306.225000", "140307.715000", "140309.205000", "140310.695000", "140312.185000", "140313.675000", "140315.165000", "140316.655000", "140318.145000", "140319.635000", "140321.125000", "140322.615000", "140324.105000", "140325.595000", "140327.085000", "140328.575000", "140330.065000", "140331.555000", "140333.045000", "140334.535000", "140336.025000", "140337.515000", "140339.005000", "140340.495000", "140341.985000", "140343.475000", "140344.965000", "140346.455000", "140347.945000", "140349.435000", "140350.925000", "140352.415000", "140353.905000", "140355.395000", "140356.885000", "140358.375000", "140359.865000", "140401.355000", "140402.845000", "140404.335000", "140405.825000", "140407.315000", "140408.805000", "140410.295000", "140411.785000", "140413.275000", "140414.765000", "140416.255000", "140417.745000", "140419.235000", "140420.725000", "140422.215000", "140423.705000", "140425.195000", "140426.685000", "140428.175000", "140429.665000", "140431.155000", "140432.645000", "140434.135000", "140435.625000", "140437.115000", "140438.605000", "140440.095000", "140441.585000", "140443.075000", "140444.565000", "140446.055000", "140447.545000", "140449.035000", "140450.525000", "140452.015000", "140453.505000", "140454.995000", "140456.485000", "140457.975000", "140459.465000", "140500.955000", "140502.445000", "140503.935000", "140505.425000", "140506.915000", "140508.405000", "140509.895000", "140511.385000", "140512.875000", "140514.365000", "140515.855000", "140517.345000", "140518.835000", "140520.325000", "140521.815000", "140523.305000", "140524.795000", "140526.285000", "140527.775000", "140529.265000", "140530.755000", "140532.245000", "140533.735000", "140535.225000", "140536.715000", "140538.205000", "140539.695000", "140541.185000", "140542.675000", "140544.165000", "140545.655000", "140547.145000", "140548.635000", "140550.125000", "140551.615000", "140553.105000", "140554.595000", "140556.085000", "140557.575000", "140559.065000", "140600.555000", "140602.045000", "140603.535000", "140605.025000", "140606.515000", "140608.005000", "140609.495000", "140610.985000", "140612.475000", "140613.965000", "140615.455000", "140616.945000", "140618.435000", "140619.925000", "140621.415000", "140622.905000", "140624.395000", "140625.885000", "140627.375000", "140628.865000", "140630.355000", "140631.845000", "140633.335000", "140634.825000", "140636.315000", "140637.805000", "140639.295000", "140640.785000", "140642.275000", "140643.765000", "140645.255000", "140646.745000", "140648.235000", "140649.725000", "140651.215000", "140652.705000", "140654.195000", "140655.685000", "140657.175000", "140658.665000", "140700.155000", "140701.645000", "140703.135000", "140704.625000", "140706.115000", "140707.605000", "140709.095000", "140710.585000", "140712.075000", "140713.565000", "140715.055000", "140716.545000", "140718.035000", "140719.525000", "140721.015000", "140722.505000", "140723.995000", "140725.485000", "140726.975000", "140728.465000", "140729.955000", "140731.445000", "140732.935000", "140734.425000", "140735.915000", "140737.405000", "140738.895000", "140740.385000", "140741.875000", "140743.365000", "140744.855000", "140746.345000", "140747.835000", "140749.325000", "140750.815000", "140752.305000", "140753.795000", "140755.285000", "140756.775000", "140758.265000", "140759.755000", "140801.245000", "140802.735000", "140804.225000", "140805.715000", "140807.205000", "140808.695000", "140810.185000", "140811.675000", "140813.165000", "140814.655000", "140816.145000", "140817.635000", "140819.125000", "140820.615000", "140822.105000", "140823.595000", "140825.085000", "140826.575000", "140828.065000", "140829.555000", "140831.045000", "140832.535000", "140834.025000", "140835.515000", "140837.005000", "140838.495000", "140839.985000", "140841.475000", "140842.965000", "140844.455000", "140845.945000", "140847.435000", "140848.925000", "140850.415000", "140851.905000", "140853.395000", "140854.885000", "140856.375000", "140857.865000", "140859.355000", "140900.845000", "140902.335000", "140903.825000", "140905.315000", "140906.805000", "140908.295000", "140909.785000", "140911.275000", "140912.765000", "140914.255000", "140915.745000", "140917.235000", "140918.725000", "140920.215000", "140921.705000", "140923.195000", "140924.685000", "140926.175000", "140927.665000", "140929.155000", "140930.645000", "140932.135000", "140933.625000", "140935.115000", "140936.605000", "140938.095000", "140939.585000", "140941.075000", "140942.565000", "140944.055000", "140945.545000", "140947.035000", "140948.525000", "140950.015000", "140951.505000", "140952.995000", "140954.485000", "140955.975000", "140957.465000", "140958.955000", "141000.445000", "141001.935000", "141003.425000", "141004.915000", "141006.405000", "141007.895000", "141009.385000", "141010.875000", "141012.365000", "141013.855000", "141015.345000", "141016.835000", "141018.325000", "141019.815000", "141021.305000", "141022.795000", "141024.285000", "141025.775000", "141027.265000", "141028.755000", "141030.245000", "141031.735000", "141033.225000", "141034.715000", "141036.205000", "141037.695000", "141039.185000", "141040.675000", "141042.165000", "141043.655000", "141045.145000", "141046.635000", "141048.125000", "141049.615000", "141051.105000", "141052.595000", "141054.085000", "141055.575000", "141057.065000", "141058.555000", "141100.045000", "141101.535000", "141103.025000", "141104.515000", "141106.005000", "141107.495000", "141108.985000", "141110.475000", "141111.965000", "141113.455000", "141114.945000", "141116.435000", "141117.925000", "141119.415000", "141120.905000", "141122.395000", "141123.885000", "141125.375000", "141126.865000", "141128.355000", "141129.845000", "141131.335000", "141132.825000", "141134.315000", "141135.805000", "141137.295000", "141138.785000", "141140.275000", "141141.765000", "141143.255000", "141144.745000", "141146.235000", "141147.725000", "141149.215000", "141150.705000", "141152.195000", "141153.685000", "141155.175000", "141156.665000", "141158.155000", "141159.645000", "141201.135000", "141202.625000", "141204.115000", "141205.605000", "141207.095000", "141208.585000", "141210.075000", "141211.565000", "141213.055000", "141214.545000", "141216.035000", "141217.525000", "141219.015000", "141220.505000", "141221.995000", "141223.485000", "141224.975000", "141226.465000", "141227.955000", "141229.445000", "141230.935000", "141232.425000", "141233.915000", "141235.405000", "141236.895000"],
      "ContentTime": ["140245.686000", "140245.689000", "140245.691000", "140245.693000", "140245.696000", "140245.698000", "140245.701000", "140245.703000", "140245.706000", "140245.714000", "140245.716000", "140245.719000", "140245.721000", "140245.724000", "140245.726000", "140245.729000", "140245.731000", "140245.733000", "140245.736000", "140245.738000", "140245.741000", "140245.743000", "140245.746000", "140245.748000", "140305.598000", "140305.600000", "140305.611000", "140305.613000", "140305.616000", "140305.618000", "140305.621000", "140305.623000", "140305.635000", "140305.638000", "140305.641000", "140305.643000", "140305.645000", "140305.648000", "140305.650000", "140305.653000", "140305.655000", "140305.658000", "140305.660000", "140305.663000", "140325.585000", "140325.588000", "140325.590000", "140325.593000", "140325.595000", "140325.598000", "140325.600000", "140325.603000", "140325.605000", "140325.608000", "140325.610000", "140325.613000", "140325.615000", "140325.618000", "140325.620000", "140325.622000", "140325.625000", "140325.627000", "140325.630000", "140325.633000", "140325.635000", "140345.573000", "140345.576000", "140345.578000", "140345.581000", "140345.583000", "140345.586000", "140345.588000", "140345.591000", "140345.593000", "140345.596000", "140345.598000", "140345.601000", "140345.603000", "140345.606000", "140345.608000", "140345.610000", "140345.619000", "140345.621000", "140345.624000", "140345.626000", "140405.590000", "140405.592000", "140405.595000", "140405.597000", "140405.605000", "140405.607000", "140405.610000", "140405.612000", "140405.615000", "140405.617000", "140405.620000", "140405.622000", "140405.625000", "140405.627000", "140405.630000", "140405.632000", "140405.634000", "140405.637000", "140405.640000", "140405.642000", "140445.602000", "140445.605000", "140445.608000", "140445.610000", "140445.613000", "140445.615000", "140445.617000", "140445.620000", "140445.622000", "140445.625000", "140445.627000", "140445.630000", "140445.632000", "140445.635000", "140445.637000", "140445.640000", "140445.642000", "140445.645000", "140445.647000", "140445.649000", "140445.652000", "140445.654000", "140445.657000", "140445.659000", "140445.662000", "140445.664000", "140445.667000", "140525.617000", "140525.620000", "140525.622000", "140525.624000", "140525.627000", "140525.629000", "140525.632000", "140525.634000", "140525.637000", "140525.639000", "140525.642000", "140525.644000", "140525.647000", "140525.649000", "140525.652000", "140525.654000", "140525.657000", "140525.659000", "140525.661000", "140525.664000", "140525.666000", "140525.669000", "140525.671000", "140525.674000", "140525.676000", "140525.679000", "140525.681000", "140605.613000", "140605.616000", "140605.620000", "140605.623000", "140605.626000", "140605.628000", "140605.631000", "140605.634000", "140605.637000", "140605.639000", "140605.642000", "140605.645000", "140605.648000", "140605.651000", "140605.653000", "140605.656000", "140605.658000", "140605.661000", "140605.663000", "140605.666000", "140605.668000", "140605.671000", "140605.673000", "140605.676000", "140605.679000", "140605.681000", "140646.065000", "140646.068000", "140646.071000", "140646.073000", "140646.075000", "140646.078000", "140646.081000", "140646.083000", "140646.086000", "140646.088000", "140646.091000", "140646.093000", "140646.096000", "140646.098000", "140646.101000", "140646.103000", "140646.106000", "140646.108000", "140646.111000", "140646.113000", "140646.116000", "140646.118000", "140646.121000", "140646.123000", "140646.126000", "140646.128000", "140646.131000", "140725.623000", "140725.626000", "140725.628000", "140725.631000", "140725.633000", "140725.636000", "140725.638000", "140725.641000", "140725.643000", "140725.646000", "140725.648000", "140725.651000", "140725.653000", "140725.656000", "140725.658000", "140725.661000", "140725.663000", "140725.666000", "140725.668000", "140725.671000", "140725.673000", "140725.676000", "140725.678000", "140725.681000", "140725.683000", "140725.686000", "140725.688000", "140805.602000", "140805.605000", "140805.608000", "140805.610000", "140805.613000", "140805.615000", "140805.618000", "140805.620000", "140805.623000", "140805.625000", "140805.628000", "140805.630000", "140805.633000", "140805.635000", "140805.638000", "140805.640000", "140805.643000", "140805.645000", "140805.648000", "140805.650000", "140805.653000", "140805.655000", "140805.658000", "140805.660000", "140805.663000", "140805.665000", "140805.668000", "140845.622000", "140845.624000", "140845.627000", "140845.629000", "140845.632000", "140845.635000", "140845.637000", "140845.639000", "140845.642000", "140845.645000", "140845.647000", "140845.649000", "140845.652000", "140845.655000", "140845.657000", "140845.660000", "140845.662000", "140845.665000", "140845.667000", "140845.670000", "140845.673000", "140845.675000", "140845.677000", "140845.680000", "140845.683000", "140845.685000", "140845.688000", "140925.607000", "140925.610000", "140925.612000", "140925.615000", "140925.617000", "140925.620000", "140925.622000", "140925.626000", "140925.628000", "140925.631000", "140925.633000", "140925.636000", "140925.638000", "140925.641000", "140925.643000", "140925.646000", "140925.648000", "140925.651000", "140925.654000", "140925.656000", "140925.659000", "140925.661000", "140925.664000", "140925.666000", "140925.669000", "140925.671000", "140925.674000", "141005.615000", "141005.618000", "141005.621000", "141005.623000", "141005.626000", "141005.628000", "141005.631000", "141005.633000", "141005.636000", "141005.638000", "141005.641000", "141005.643000", "141005.646000", "141005.648000", "141005.651000", "141005.653000", "141005.655000", "141005.658000", "141005.660000", "141005.663000", "141005.665000", "141005.668000", "141005.670000", "141005.673000", "141005.675000", "141005.678000", "141045.607000", "141045.610000", "141045.613000", "141045.615000", "141045.618000", "141045.621000", "141045.623000", "141045.626000", "141045.628000", "141045.631000", "141045.633000", "141045.636000", "141045.638000", "141045.640000", "141045.643000", "141045.646000", "141045.648000", "141045.650000", "141045.653000", "141045.656000", "141045.658000", "141045.660000", "141045.663000", "141045.666000", "141045.668000", "141045.671000", "141045.673000", "141125.632000", "141125.635000", "141125.637000", "141125.640000", "141125.642000", "141125.645000", "141125.647000", "141125.650000", "141125.652000", "141125.655000", "141125.657000", "141125.660000", "141125.662000", "141125.665000", "141125.667000", "141125.670000", "141125.672000", "141125.675000", "141125.677000", "141125.680000", "141125.682000", "141125.685000", "141125.687000", "141125.690000", "141125.692000", "141125.695000", "141125.697000", "141205.617000", "141205.620000", "141205.622000", "141205.625000", "141205.627000", "141205.630000", "141205.633000", "141205.635000", "141205.638000", "141205.640000", "141205.643000", "141205.645000", "141205.648000", "141205.650000", "141205.653000", "141205.655000", "141205.658000", "141205.660000", "141205.663000", "141205.665000", "141205.668000", "141205.670000", "141205.673000", "141205.675000", "141205.678000", "141205.680000", "141205.683000", "141239.197000", "141239.200000", "141239.203000", "141239.205000", "141239.208000", "141239.210000", "141239.213000", "141239.216000", "141239.218000", "141239.221000", "141239.223000", "141239.226000", "141239.228000", "141239.231000", "141239.233000", "141239.236000", "141239.238000", "141239.241000", "141239.243000", "141239.246000", "141239.248000", "141239.251000", "141239.253000"],
