{
  "AcquisitionMatrixPE": 104,
  "AcquisitionNumber": 1,
  "AcquisitionTime": "14:01:27.885000",
  "BandwidthPerPixelPhaseEncode": 17.17,
  "BaseResolution": 104,
  "BodyPartExamined": "BRAIN",
  "CoilString": "HC1-7;NC1_2",
  "ConsistencyInfo": "N4_VE11C_LATEST_20160120",
  "ConversionSoftware": "dcm2niix",
  "ConversionSoftwareVersion": "v1.0.20190902",
  "DerivedVendorReportedEchoSpacing": 0.000560011,
  "DeviceSerialNumber": "167006",
  "DwellTime": 2.1e-06,
  "EchoTime": 0.037,
  "EchoTrainLength": 104,
  "EffectiveEchoSpacing": 0.000560011,
  "FlipAngle": 52,
  "HeudiconvVersion": "0.10.0",
  "ImageComments": "Unaliased_MB4_PE3_LB",
  "ImageOrientationPatientDICOM": [0.999818, 0.0105602, 0.015885, -0.00122155, 0.866509, -0.49916],
  "ImageType": [
    "ORIGINAL",
    "PRIMARY",
    "M",
    "MB",
    "ND",
    "MOSAIC"
],
  "ImagingFrequency": 123.259,
  "InPlanePhaseEncodingDirectionDICOM": "COL",
  "InstitutionAddress": "Chemin_Queen-Mary_4565_Montreal_District_CA_H3W_1W5",
  "InstitutionName": "IUGM",
  "InstitutionalDepartmentName": "Department",
  "MRAcquisitionType": "2D",
  "MagneticFieldStrength": 3,
  "Manufacturer": "Siemens",
  "ManufacturersModelName": "Prisma_fit",
  "Modality": "MR",
  "MultibandAccelerationFactor": 4,
  "PartialFourier": 1,
  "PatientPosition": "HFS",
  "PercentPhaseFOV": 100,
  "PhaseEncodingDirection": "j",
  "PhaseEncodingSteps": 104,
  "PhaseResolution": 1,
  "PixelBandwidth": 2290,
  "ProcedureStepDescription": "games_mario",
  "ProtocolName": "func_task-mario_run-02",
  "PulseSequenceDetails": "%CustomerSeq%_cmrr_mbep2d_bold",
  "ReceiveCoilActiveElements": "HC1-7;NC1,2",
  "ReceiveCoilName": "HeadNeck_64",
  "ReconMatrixPE": 104,
  "RepetitionTime": 1.49,
  "SAR": 0.0556959,
  "ScanOptions": "FS",
  "ScanningSequence": "EP",
  "SequenceName": "epfid2d1_104",
  "SequenceVariant": "SK_SS",
  "SeriesDescription": "func_task-mario_run-02",
  "SeriesNumber": 13,
  "ShimSetting": [622, -7175, -8866, 337, 30, -163, -80, -11],
  "SliceThickness": 2,
  "SliceTiming": [0, 0.7825, 0.0975, 0.88, 0.195, 0.98, 0.2925, 1.0775, 0.39, 1.175, 0.49, 1.2725, 0.5875, 1.37, 0.685, 0, 0.7825, 0.0975, 0.88, 0.195, 0.98, 0.2925, 1.0775, 0.39, 1.175, 0.49, 1.2725, 0.5875, 1.37, 0.685, 0, 0.7825, 0.0975, 0.88, 0.195, 0.98, 0.2925, 1.0775, 0.39, 1.175, 0.49, 1.2725, 0.5875, 1.37, 0.685, 0, 0.7825, 0.0975, 0.88, 0.195, 0.98, 0.2925, 1.0775, 0.39, 1.175, 0.49, 1.2725, 0.5875, 1.37, 0.685],
  "SoftwareVersions": "syngo_MR_E11",
  "SpacingBetweenSlices": 2,
  "StationName": "MRC35049",
  "TaskName": "mario",
  "TotalReadoutTime": 0.0576811,
  "TxRefAmp": 283.464,
  "WipMemBlock": "fa752f9f-497a-494a-84f5-96cf171db67c||Sequence: R016 ve11c/master r/e634e98; Dec 19 2017 11:00:25 by eja",
  "dcmmeta_affine": [
    [-1.999636173248291, -0.002443107310682535, 0.038071341812610626, 106.25328063964844],
    [-0.021120328456163406, 1.7330174446105957, -0.9981005191802979, -51.99673080444336],
    [0.03176991268992424, 0.998320996761322, 1.7327278852462769, -100.45938873291016],
    [0.0, 0.0, 0.0, 1.0]
],
  "dcmmeta_reorient_transform": [
    [0.0, -1.0, 0.0, 103.0],
    [1.0, 0.0, 0.0, 0.0],
    [0.0, 0.0, 1.0, 0.0],
    [0.0, 0.0, 0.0, 1.0]
],
  "dcmmeta_shape": [104, 104, 60, 450],
  "dcmmeta_slice_dim": 2,
  "dcmmeta_version": 0.6,
  "global": {
    "const": {
      "AcquisitionMatrix": [104, 0, 0, 104],
      "AngioFlag": "N",
      "BitsAllocated": 16,
      "BitsStored": 16,
      "BodyPartExamined": "BRAIN",
      "Columns": 832,
      "EchoNumbers": 1,
      "EchoTime": 37.0,
      "EchoTrainLength": 104,
      "FlipAngle": 52.0,
      "HighBit": 15,
      "ImageOrientationPatient": [0.99981805898917, 0.01056016423779, 0.01588495673304, -0.0012215536703, 0.8665086946383, -0.4991604851377],
      "ImagePositionPatient": [-832.97989283766, -765.01018905293, 354.19225333504],
      "ImageType": [
        "ORIGINAL",
        "PRIMARY",
        "M",
        "MB",
        "ND",
        "MOSAIC"
],
      "ImagedNucleus": "1H",
      "ImagingFrequency": 123.258941,
      "InPlanePhaseEncodingDirection": "COL",
      "MRAcquisitionType": "2D",
      "MagneticFieldStrength": 3.0,
      "Manufacturer": "SIEMENS",
      "ManufacturerModelName": "Prisma_fit",
      "Modality": "MR",
      "NumberOfAverages": 1.0,
      "NumberOfPhaseEncodingSteps": 104,
      "PercentPhaseFieldOfView": 100.0,
      "PercentSampling": 100.0,
      "PerformedProcedureStepStartTime": "132038.262000",
      "PhotometricInterpretation": "MONOCHROME2",
      "PixelBandwidth": 2290.0,
      "PixelRepresentation": 0,
      "PixelSpacing": [2.0, 2.0],
      "ProtocolName": "func_task-mario_run-02",
      "RepetitionTime": 1490.0,
      "Rows": 832,
      "SAR": 0.05569585650454,
      "SamplesPerPixel": 1,
      "ScanOptions": "FS",
      "ScanningSequence": "EP",
      "SequenceName": "epfid2d1_104",
      "SequenceVariant": [
        "SK",
        "SS"
],
      "SeriesDescription": "func_task-mario_run-02",
      "SeriesNumber": 13,
      "SeriesTime": "140245.521000",
      "SliceLocation": -59.062809404735,
      "SliceThickness": 2.0,
      "SmallestImagePixelValue": 0,
      "SoftwareVersions": "syngo MR E11",
      "SpacingBetweenSlices": 2.000000030056,
      "SpecificCharacterSet": "ISO_IR 100",
      "StudyID": "1",
      "StudyTime": "132038.148000",
      "TransmitCoilName": "Body",
      "VariableFlipAngleFlag": "N",
      "WindowCenterWidthExplanation": "Algo1",
      "dBdt": 0.0},
    "slices": {}
  },
  "time": {
    "samples": {
      "AcquisitionNumber": [1, 2, 3, 4, 5, 6, 7, 8, 9, 10, 11, 12, 13, 14, 15, 16, 17, 18, 19, 20, 21, 22, 23, 24, 25, 26, 27, 28, 29, 30, 31, 32, 33, 34, 35, 36, 37, 38, 39, 40, 41, 42, 43, 44, 45, 46, 47, 48, 49, 50, 51, 52, 53, 54, 55, 56, 57, 58, 59, 60, 61, 62, 63, 64, 65, 66, 67, 68, 69, 70, 71, 72, 73, 74, 75, 76, 77, 78, 79, 80, 81, 82, 83, 84, 85, 86, 87, 88, 89, 90, 91, 92, 93, 94, 95, 96, 97, 98, 99, 100, 101, 102, 103, 104, 105, 106, 107, 108, 109, 110, 111, 112, 113, 114, 115, 116, 117, 118, 119, 120, 121, 122, 123, 124, 125, 126, 127, 128, 129, 130, 131, 132, 133, 134, 135, 136, 137, 138, 139, 140, 141, 142, 143, 144, 145, 146, 147, 148, 149, 150, 151, 152, 153, 154, 155, 156, 157, 158, 159, 160, 161, 162, 163, 164, 165, 166, 167, 168, 169, 170, 171, 172, 173, 174, 175, 176, 177, 178, 179, 180, 181, 182, 183, 184, 185, 186, 187, 188, 189, 190, 191, 192, 193, 194, 195, 196, 197, 198, 199, 200, 201, 202, 203, 204, 205, 206, 207, 208, 209, 210, 211, 212, 213, 214, 215, 216, 217, 218, 219, 220, 221, 222, 223, 224, 225, 226, 227, 228, 229, 230, 231, 232, 233, 234, 235, 236, 237, 238, 239, 240, 241, 242, 243, 244, 245, 246, 247, 248, 249, 250, 251, 252, 253, 254, 255, 256, 257, 258, 259, 260, 261, 262, 263, 264, 265, 266, 267, 268, 269, 270, 271, 272, 273, 274, 275, 276, 277, 278, 279, 280, 281, 282, 283, 284, 285, 286, 287, 288, 289, 290, 291, 292, 293, 294, 295, 296, 297, 298, 299, 300, 301, 302, 303, 304, 305, 306, 307, 308, 309, 310, 311, 312, 313, 314, 315, 316, 317, 318, 319, 320, 321, 322, 323, 324, 325, 326, 327, 328, 329, 330, 331, 332, 333, 334, 335, 336, 337, 338, 339, 340, 341, 342, 343, 344, 345, 346, 347, 348, 349, 350, 351, 352, 353, 354, 355, 356, 357, 358, 359, 360, 361, 362, 363, 364, 365, 366, 367, 368, 369, 370, 371, 372, 373, 374, 375, 376, 377, 378, 379, 380, 381, 382, 383, 384, 385, 386, 387, 388, 389, 390, 391, 392, 393, 394, 395, 396, 397, 398, 399, 400, 401, 402, 403, 404, 405, 406, 407, 408, 409, 410, 411, 412, 413, 414, 415, 416, 417, 418, 419, 420, 421, 422, 423, 424, 425, 426, 427, 428, 429, 430, 431, 432, 433, 434, 435, 436, 437, 438, 439, 440, 441, 442, 443, 444, 445, 446, 447, 448, 449, 450],
      "AcquisitionTime": ["140127.885000", "140129.375000", "140130.865000", "140132.355000", "140133.845000", "140135.335000", "140136.825000", "140138.315000", "140139.805000", "140141.295000", "140142.785000", "140144.275000", "140145.765000", "140147.255000", "140148.745000", "140150.235000", "140151.725000", "140153.215000", "140154.705000", "140156.195000", "140157.685000", "140159.175000", "140200.665000", "140202.155000", "140203.645000", "140205.135000", "140206.625000", "140208.115000", "140209.605000", "140211.095000", "140212.585000", "140214.075000", "140215.565000", "140217.055000", "140218.545000", "140220.035000", "140221.525000", "140223.015000", "140224.505000", "140225.995000", "140227.485000", "140228.975000", "140230.465000", "140231.955000", "140233.445000", "140234.935000", "140236.425000", "140237.915000", "140239.405000", "140240.895000", "140242.385000", "140243.875000", "140245.365000", "140246.855000", "140248.345000", "140249.835000", "140251.325000", "140252.815000", "140254.305000", "140255.795000", "140257.285000", "140258.775000", "140300.265000", "140301.755000", "140303.245000", "140304.735000", "140306.225000", "140307.715000", "140309.205000", "140310.695000", "140312.185000", "140313.675000", "140315.165000", "140316.655000", "140318.145000", "140319.635000", "140321.125000", "140322.615000", "140324.105000", "140325.595000", "140327.085000", "140328.575000", "140330.065000", "140331.555000", "140333.045000", "140334.535000", "140336.025000", "140337.515000", "140339.005000", "140340.495000", "140341.985000", "140343.475000", "140344.965000", "140346.455000", "140347.945000", "140349.435000", "140350.925000", "140352.415000", "140353.905000", "140355.395000", "140356.885000", "140358.375000", "140359.865000", "140401.355000", "140402.845000", "140404.335000", "140405.825000", "140407.315000", "140408.805000", "140410.295000", "140411.785000", "140413.275000", "140414.765000", "140416.255000", "140417.745000", "140419.235000", "140420.725000", "140422.215000", "140423.705000", "140425.195000", "140426.685000", "140428.175000", "140429.665000", "140431.155000", "140432.645000", "140434.135000", "140435.625000", "140437.115000", "140438.605000", "140440.095000", "140441.585000", "140443.075000", "140444.565000", "140446.055000", "140447.545000", "140449.035000", "140450.525000", "140452.015000", "140453.505000", "140454.995000", "140456.485000", "140457.975000", "140459.465000", "140500.955000", "140502.445000", "140503.935000", "140505.425000", "140506.915000", "140508.405000", "140509.895000", "140511.385000", "140512.875000", "140514.365000", "140515.855000", "140517.345000", "140518.835000", "140520.325000", "140521.815000", "140523.305000", "140524.795000", "140526.285000", "140527.775000", "140529.265000", "140530.755000", "140532.245000", "140533.735000", "140535.225000", "140536.715000", "140538.205000", "140539.695000", "140541.185000", "140542.675000", "140544.165000", "140545.655000", "140547.145000", "140548.635000", "140550.125000", "140551.615000", "140553.105000", "140554.595000", "140556.085000", "140557.575000", "140559.065000", "140600.555000", "140602.045000", "140603.535000", "140605.025000", "140606.515000", "140608.005000", "140609.495000", "140610.985000", "140612.475000", "140613.965000", "140615.455000", "140616.945000", "140618.435000", "140619.925000", "140621.415000", "140622.905000", "140624.395000", "140625.885000", "140627.375000", "140628.865000", "140630.355000", "140631.845000", "140633.335000", "140634.825000", "140636.315000", "140637.805000", "140639.295000", "140640.785000", "140642.275000", "140643.765000", "140645.255000", "140646.745000", "140648.235000", "140649.725000", "140651.215000", "140652.705000", "140654.195000", "140655.685000", "140657.175000", "140658.665000", "140700.155000", "140701.645000", "140703.135000", "140704.625000", "140706.115000", "140707.605000", "140709.095000", "140710.585000", "140712.075000", "140713.565000", "140715.055000", "140716.545000", "140718.035000", "140719.525000", "140721.015000", "140722.505000", "140723.995000", "140725.485000", "140726.975000", "140728.465000", "140729.955000", "140731.445000", "140732.935000", "140734.425000", "140735.915000", "140737.405000", "140738.895000", "140740.385000", "140741.875000", "140743.365000", "140744.855000", "140746.345000", "140747.835000", "140749.325000", "140750.815000", "140752.305000", "140753.795000", "140755.285000", "140756.775000", "140758.265000", "140759.755000", "140801.245000", "140802.735000", "140804.225000", "140805.715000", "140807.205000", "140808.695000", "140810.185000", "140811.675000", "140813.165000", "140814.655000", "140816.145000", "140817.635000", "140819.125000", "140820.615000", "140822.105000", "140823.595000", "140825.085000", "140826.575000", "140828.065000", "140829.555000", "140831.045000", "140832.535000", "140834.025000", "140835.515000", "140837.005000", "140838.495000", "140839.985000", "140841.475000", "140842.965000", "140844.455000", "140845.945000", "140847.435000", "140848.925000", "140850.415000", "140851.905000", "140853.395000", "140854.885000", "140856.375000", "140857.865000", "140859.355000", "140900.845000", "140902.335000", "140903.825000", "140905.315000", "140906.805000", "140908.295000", "140909.785000", "140911.275000", "140912.765000", "140914.255000", "140915.745000", "140917.235000", "140918.725000", "140920.215000", "140921.705000", "140923.195000", "140924.685000", "140926.175000", "140927.665000", "140929.155000", "140930.645000", "140932.135000", "140933.625000", "140935.115000", "140936.605000", "140938.095000", "140939.585000", "140941.075000", "140942.565000", "140944.055000", "140945.545000", "140947.035000", "140948.525000", "140950.015000", "140951.505000", "140952.995000", "140954.485000", "140955.975000", "140957.465000", "140958.955000", "141000.445000", "141001.935000", "141003.425000", "141004.915000", "141006.405000", "141007.895000", "141009.385000", "141010.875000", "141012.365000", "141013.855000", "141015.345000", "141016.835000", "141018.325000", "141019.815000", "141021.305000", "141022.795000", "141024.285000", "141025.775000", "141027.265000", "141028.755000", "141030.245000", "141031.735000", "141033.225000", "141034.715000", "141036.205000", "141037.695000", "141039.185000", "141040.675000", "141042.165000", "141043.655000", "141045.145000", "141046.635000", "141048.125000", "141049.615000", "141051.105000", "141052.595000", "141054.085000", "141055.575000", "141057.065000", "141058.555000", "141100.045000", "141101.535000", "141103.025000", "141104.515000", "141106.005000", "141107.495000", "141108.985000", "141110.475000", "141111.965000", "141113.455000", "141114.945000", "141116.435000", "141117.925000", "141119.415000", "141120.905000", "141122.395000", "141123.885000", "141125.375000", "141126.865000", "141128.355000", "141129.845000", "141131.335000", "141132.825000", "141134.315000", "141135.805000", "141137.295000", "141138.785000", "141140.275000", "141141.765000", "141143.255000", "141144.745000", "141146.235000", "141147.725000", "141149.215000", "141150.705000", "141152.195000", "141153.685000", "141155.175000", "141156.665000", "141158.155000", "141159.645000", "141201.135000", "141202.625000", "141204.115000", "141205.605000", "141207.095000", "141208.585000", "141210.075000", "141211.565000", "141213.055000", "141214.545000", "141216.035000", "141217.525000", "141219.015000", "141220.505000", "141221.995000", "141223.485000", "141224.975000", "141226.465000", "141227.955000", "141229.445000", "141230.935000", "141232.425000", "141233.915000", "141235.405000", "141236.895000"],
      "ContentTime": ["140245.524000", "140245.528000", "140245.531000", "140245.535000", "140245.538000", "140245.541000", "140245.558000", "140245.562000", "140245.565000", "140245.568000", "140245.571000", "140245.575000", "140245.578000", "140245.581000", "140245.584000", "140245.588000", "140245.591000", "140245.594000", "140245.597000", "140245.601000", "140245.604000", "140245.607000", "140245.611000", "140245.614000", "140305.470000", "140305.474000", "140305.477000", "140305.480000", "140305.484000", "140305.487000", "140305.490000", "140305.494000", "140305.497000", "140305.500000", "140305.504000", "140305.507000", "140305.512000", "140305.516000", "140305.519000", "140305.523000", "140305.526000", "140305.530000", "140305.533000", "140305.537000", "140325.469000", "140325.473000", "140325.476000", "140325.479000", "140325.482000", "140325.486000", "140325.489000", "140325.492000", "140325.495000", "140325.498000", "140325.502000", "140325.505000", "140325.508000", "140325.511000", "140325.515000", "140325.518000", "140325.521000", "140325.524000", "140325.528000", "140325.531000", "140325.534000", "140345.469000", "140345.473000", "140345.476000", "140345.479000", "140345.482000", "140345.486000", "140345.489000", "140345.492000", "140345.495000", "140345.499000", "140345.502000", "140345.505000", "140345.509000", "140345.512000", "140345.515000", "140345.519000", "140345.522000", "140345.525000", "140345.528000", "140345.532000", "140405.469000", "140405.473000", "140405.476000", "140405.479000", "140405.483000", "140405.486000", "140405.489000", "140405.492000", "140405.496000", "140405.499000", "140405.502000", "140405.507000", "140405.510000", "140405.513000", "140405.517000", "140405.520000", "140405.523000", "140405.526000", "140405.530000", "140405.533000", "140445.469000", "140445.473000", "140445.476000", "140445.479000", "140445.483000", "140445.486000", "140445.489000", "140445.493000", "140445.496000", "140445.499000", "140445.502000", "140445.506000", "140445.509000", "140445.512000", "140445.516000", "140445.519000", "140445.522000", "140445.525000", "140445.529000", "140445.532000", "140445.535000", "140445.539000", "140445.542000", "140445.545000", "140445.548000", "140445.552000", "140445.555000", "140525.470000", "140525.474000", "140525.477000", "140525.484000", "140525.487000", "140525.491000", "140525.494000", "140525.497000", "140525.500000", "140525.504000", "140525.507000", "140525.510000", "140525.514000", "140525.517000", "140525.520000", "140525.523000", "140525.526000", "140525.530000", "140525.533000", "140525.536000", "140525.540000", "140525.543000", "140525.546000", "140525.549000", "140525.553000", "140525.556000", "140525.559000", "140605.469000", "140605.473000", "140605.476000", "140605.480000", "140605.483000", "140605.486000", "140605.490000", "140605.494000", "140605.497000", "140605.501000", "140605.504000", "140605.507000", "140605.510000", "140605.514000", "140605.517000", "140605.520000", "140605.523000", "140605.527000", "140605.530000", "140605.533000", "140605.536000", "140605.540000", "140605.543000", "140605.546000", "140605.550000", "140605.553000", "140645.469000", "140645.473000", "140645.476000", "140645.479000", "140645.483000", "140645.486000", "140645.489000", "140645.492000", "140645.496000", "140645.499000", "140645.502000", "140645.506000", "140645.509000", "140645.512000", "140645.516000", "140645.519000", "140645.522000", "140645.538000", "140645.551000", "140645.554000", "140645.557000", "140645.561000", "140645.564000", "140645.567000", "140645.571000", "140645.574000", "140645.577000", "140725.470000", "140725.474000", "140725.477000", "140725.481000", "140725.484000", "140725.487000", "140725.490000", "140725.494000", "140725.497000", "140725.500000", "140725.504000", "140725.507000", "140725.510000", "140725.514000", "140725.517000", "140725.521000", "140725.524000", "140725.527000", "140725.531000", "140725.534000", "140725.537000", "140725.540000", "140725.544000", "140725.547000", "140725.550000", "140725.554000", "140725.557000", "140805.469000", "140805.473000", "140805.476000", "140805.480000", "140805.483000", "140805.486000", "140805.490000", "140805.493000", "140805.496000", "140805.500000", "140805.503000", "140805.506000", "140805.509000", "140805.513000", "140805.516000", "140805.519000", "140805.523000", "140805.526000", "140805.529000", "140805.533000", "140805.536000", "140805.539000", "140805.543000", "140805.546000", "140805.549000", "140805.552000", "140805.556000", "140845.469000", "140845.473000", "140845.476000", "140845.480000", "140845.483000", "140845.486000", "140845.489000", "140845.493000", "140845.496000", "140845.499000", "140845.503000", "140845.506000", "140845.509000", "140845.513000", "140845.516000", "140845.519000", "140845.523000", "140845.526000", "140845.529000", "140845.533000", "140845.536000", "140845.539000", "140845.542000", "140845.546000", "140845.549000", "140845.552000", "140845.556000", "140925.469000", "140925.473000", "140925.476000", "140925.480000", "140925.483000", "140925.486000", "140925.490000", "140925.493000", "140925.496000", "140925.500000", "140925.503000", "140925.506000", "140925.509000", "140925.513000", "140925.516000", "140925.519000", "140925.523000", "140925.526000", "140925.529000", "140925.533000", "140925.536000", "140925.539000", "140925.543000", "140925.546000", "140925.549000", "140925.552000", "140925.556000", "141005.470000", "141005.474000", "141005.477000", "141005.481000", "141005.484000", "141005.487000", "141005.491000", "141005.494000", "141005.497000", "141005.501000", "141005.505000", "141005.509000", "141005.513000", "141005.517000", "141005.520000", "141005.524000", "141005.527000", "141005.531000", "141005.534000", "141005.538000", "141005.541000", "141005.545000", "141005.548000", "141005.551000", "141005.554000", "141005.558000", "141045.469000", "141045.473000", "141045.476000", "141045.480000", "141045.483000", "141045.486000", "141045.490000", "141045.493000", "141045.496000", "141045.500000", "141045.503000", "141045.506000", "141045.510000", "141045.513000", "141045.516000", "141045.520000", "141045.523000", "141045.526000", "141045.529000", "141045.533000", "141045.536000", "141045.539000", "141045.543000", "141045.546000", "141045.549000", "141045.553000", "141045.556000", "141125.469000", "141125.473000", "141125.476000", "141125.480000", "141125.483000", "141125.486000", "141125.490000", "141125.493000", "141125.496000", "141125.499000", "141125.503000", "141125.516000", "141125.519000", "141125.523000", "141125.526000", "141125.529000", "141125.532000", "141125.536000", "141125.539000", "141125.542000", "141125.546000", "141125.549000", "141125.552000", "141125.555000", "141125.559000", "141125.562000", "141125.565000", "141205.470000", "141205.474000", "141205.477000", "141205.481000", "141205.484000", "141205.487000", "141205.490000", "141205.494000", "141205.497000", "141205.500000", "141205.504000", "141205.507000", "141205.510000", "141205.514000", "141205.517000", "141205.520000", "141205.524000", "141205.527000", "141205.530000", "141205.534000", "141205.537000", "141205.540000", "141205.543000", "141205.547000", "141205.550000", "141205.553000", "141205.557000", "141239.057000", "141239.061000", "141239.064000", "141239.068000", "141239.071000", "141239.074000", "141239.077000", "141239.081000", "141239.084000", "141239.087000", "141239.091000", "141239.094000", "141239.097000", "141239.100000", "141239.104000", "141239.107000", "141239.110000", "141239.114000", "141239.117000", "141239.120000", "141239.123000", "141239.127000", "141239.130000"],
