{
  "AcquisitionMatrixPE": 104,
  "AcquisitionNumber": 1,
  "AcquisitionTime": "14:38:18.440000",
  "BandwidthPerPixelPhaseEncode": 17.17,
  "BaseResolution": 104,
  "BodyPartExamined": "BRAIN",
  "CoilString": "HC1-7;NC1_2",
  "ConsistencyInfo": "N4_VE11C_LATEST_20160120",
  "ConversionSoftware": "dcm2niix",
  "ConversionSoftwareVersion": "v1.0.20190902",
  "DerivedVendorReportedEchoSpacing": 0.000560011,
  "DeviceSerialNumber": "167006",
  "DwellTime": 2.1e-06,
  "EchoTime": 0.037,
  "EchoTrainLength": 104,
  "EffectiveEchoSpacing": 0.000560011,
  "FlipAngle": 52,
  "HeudiconvVersion": "0.10.0",
  "ImageComments": "Unaliased_MB4_PE3_LB",
  "ImageOrientationPatientDICOM": [0.999818, 0.0105602, 0.015885, -0.00122155, 0.866509, -0.49916],
  "ImageType": [
    "ORIGINAL",
    "PRIMARY",
    "P",
    "MB",
    "ND",
    "MOSAIC"
],
  "ImagingFrequency": 123.259,
  "InPlanePhaseEncodingDirectionDICOM": "COL",
  "InstitutionAddress": "Chemin_Queen-Mary_4565_Montreal_District_CA_H3W_1W5",
  "InstitutionName": "IUGM",
  "InstitutionalDepartmentName": "Department",
  "MRAcquisitionType": "2D",
  "MagneticFieldStrength": 3,
  "Manufacturer": "Siemens",
  "ManufacturersModelName": "Prisma_fit",
  "Modality": "MR",
  "MultibandAccelerationFactor": 4,
  "PartialFourier": 1,
  "PatientPosition": "HFS",
  "PercentPhaseFOV": 100,
  "PhaseEncodingDirection": "j",
  "PhaseEncodingSteps": 104,
  "PhaseResolution": 1,
  "PixelBandwidth": 2290,
  "ProcedureStepDescription": "games_mario",
  "ProtocolName": "func_task-mario_run-05",
  "PulseSequenceDetails": "%CustomerSeq%_cmrr_mbep2d_bold",
  "ReceiveCoilActiveElements": "HC1-7;NC1,2",
  "ReceiveCoilName": "HeadNeck_64",
  "ReconMatrixPE": 104,
  "RepetitionTime": 1.49,
  "SAR": 0.0556959,
  "ScanOptions": "FS",
  "ScanningSequence": "EP",
  "SequenceName": "epfid2d1_104",
  "SequenceVariant": "SK_SS",
  "SeriesDescription": "func_task-mario_run-05",
  "SeriesNumber": 23,
  "ShimSetting": [622, -7175, -8866, 337, 30, -163, -80, -11],
  "SliceThickness": 2,
  "SliceTiming": [0, 0.7825, 0.0975, 0.8825, 0.195, 0.98, 0.2925, 1.0775, 0.3925, 1.175, 0.49, 1.2725, 0.5875, 1.3725, 0.685, 0, 0.7825, 0.0975, 0.8825, 0.195, 0.98, 0.2925, 1.0775, 0.3925, 1.175, 0.49, 1.2725, 0.5875, 1.3725, 0.685, 0, 0.7825, 0.0975, 0.8825, 0.195, 0.98, 0.2925, 1.0775, 0.3925, 1.175, 0.49, 1.2725, 0.5875, 1.3725, 0.685, 0, 0.7825, 0.0975, 0.8825, 0.195, 0.98, 0.2925, 1.0775, 0.3925, 1.175, 0.49, 1.2725, 0.5875, 1.3725, 0.685],
  "SoftwareVersions": "syngo_MR_E11",
  "SpacingBetweenSlices": 2,
  "StationName": "MRC35049",
  "TaskName": "mario",
  "TotalReadoutTime": 0.0576811,
  "TxRefAmp": 283.464,
  "WipMemBlock": "6acfb20f-a64c-41a5-a9e9-313a264c360d||Sequence: R016 ve11c/master r/e634e98; Dec 19 2017 11:00:25 by eja",
  "dcmmeta_affine": [
    [-1.999636173248291, -0.002443107310682535, 0.038071341812610626, 106.25328063964844],
    [-0.021120328456163406, 1.7330174446105957, -0.9981005191802979, -51.99673080444336],
    [0.03176991268992424, 0.998320996761322, 1.7327278852462769, -100.45938873291016],
    [0.0, 0.0, 0.0, 1.0]
],
  "dcmmeta_reorient_transform": [
    [0.0, -1.0, 0.0, 103.0],
    [1.0, 0.0, 0.0, 0.0],
    [0.0, 0.0, 1.0, 0.0],
    [0.0, 0.0, 0.0, 1.0]
],
  "dcmmeta_shape": [104, 104, 60, 444],
  "dcmmeta_slice_dim": 2,
  "dcmmeta_version": 0.6,
  "global": {
    "const": {
      "AcquisitionMatrix": [104, 0, 0, 104],
      "AngioFlag": "N",
      "BitsAllocated": 16,
      "BitsStored": 16,
      "BodyPartExamined": "BRAIN",
      "Columns": 832,
      "EchoNumbers": 1,
      "EchoTime": 37.0,
      "EchoTrainLength": 104,
      "FlipAngle": 52.0,
      "HighBit": 15,
      "ImageOrientationPatient": [0.99981805898917, 0.01056016423779, 0.01588495673304, -0.0012215536703, 0.8665086946383, -0.4991604851377],
      "ImagePositionPatient": [-832.97989283766, -765.01018905293, 354.19225333504],
      "ImageType": [
        "ORIGINAL",
        "PRIMARY",
        "P",
        "MB",
        "ND",
        "MOSAIC"
],
      "ImagedNucleus": "1H",
      "ImagingFrequency": 123.25896,
      "InPlanePhaseEncodingDirection": "COL",
      "LargestImagePixelValue": 4095,
      "MRAcquisitionType": "2D",
      "MagneticFieldStrength": 3.0,
      "Manufacturer": "SIEMENS",
      "ManufacturerModelName": "Prisma_fit",
      "Modality": "MR",
      "NumberOfAverages": 1.0,
      "NumberOfPhaseEncodingSteps": 104,
      "PercentPhaseFieldOfView": 100.0,
      "PercentSampling": 100.0,
      "PerformedProcedureStepStartTime": "132038.262000",
      "PhotometricInterpretation": "MONOCHROME2",
      "PixelBandwidth": 2290.0,
      "PixelRepresentation": 0,
      "PixelSpacing": [2.0, 2.0],
      "ProtocolName": "func_task-mario_run-05",
      "RepetitionTime": 1490.0,
      "RescaleIntercept": -4096.0,
      "RescaleSlope": 2.0,
      "RescaleType": "US",
      "Rows": 832,
      "SAR": 0.05569585650454,
      "SamplesPerPixel": 1,
      "ScanOptions": "FS",
      "ScanningSequence": "EP",
      "SequenceName": "epfid2d1_104",
      "SequenceVariant": [
        "SK",
        "SS"
],
      "SeriesDescription": "func_task-mario_run-05",
      "SeriesNumber": 23,
      "SeriesTime": "143945.674000",
      "SliceLocation": -59.062809404735,
      "SliceThickness": 2.0,
      "SmallestImagePixelValue": 0,
      "SoftwareVersions": "syngo MR E11",
      "SpacingBetweenSlices": 2.000000030056,
      "SpecificCharacterSet": "ISO_IR 100",
      "StudyID": "1",
      "StudyTime": "132038.148000",
      "TransmitCoilName": "Body",
      "VariableFlipAngleFlag": "N",
      "WindowCenterWidthExplanation": "Algo1",
      "dBdt": 0.0},
    "slices": {}
  },
  "time": {
    "samples": {
      "AcquisitionNumber": [1, 2, 3, 4, 5, 6, 7, 8, 9, 10, 11, 12, 13, 14, 15, 16, 17, 18, 19, 20, 21, 22, 23, 24, 25, 26, 27, 28, 29, 30, 31, 32, 33, 34, 35, 36, 37, 38, 39, 40, 41, 42, 43, 44, 45, 46, 47, 48, 49, 50, 51, 52, 53, 54, 55, 56, 57, 58, 59, 60, 61, 62, 63, 64, 65, 66, 67, 68, 69, 70, 71, 72, 73, 74, 75, 76, 77, 78, 79, 80, 81, 82, 83, 84, 85, 86, 87, 88, 89, 90, 91, 92, 93, 94, 95, 96, 97, 98, 99, 100, 101, 102, 103, 104, 105, 106, 107, 108, 109, 110, 111, 112, 113, 114, 115, 116, 117, 118, 119, 120, 121, 122, 123, 124, 125, 126, 127, 128, 129, 130, 131, 132, 133, 134, 135, 136, 137, 138, 139, 140, 141, 142, 143, 144, 145, 146, 147, 148, 149, 150, 151, 152, 153, 154, 155, 156, 157, 158, 159, 160, 161, 162, 163, 164, 165, 166, 167, 168, 169, 170, 171, 172, 173, 174, 175, 176, 177, 178, 179, 180, 181, 182, 183, 184, 185, 186, 187, 188, 189, 190, 191, 192, 193, 194, 195, 196, 197, 198, 199, 200, 201, 202, 203, 204, 205, 206, 207, 208, 209, 210, 211, 212, 213, 214, 215, 216, 217, 218, 219, 220, 221, 222, 223, 224, 225, 226, 227, 228, 229, 230, 231, 232, 233, 234, 235, 236, 237, 238, 239, 240, 241, 242, 243, 244, 245, 246, 247, 248, 249, 250, 251, 252, 253, 254, 255, 256, 257, 258, 259, 260, 261, 262, 263, 264, 265, 266, 267, 268, 269, 270, 271, 272, 273, 274, 275, 276, 277, 278, 279, 280, 281, 282, 283, 284, 285, 286, 287, 288, 289, 290, 291, 292, 293, 294, 295, 296, 297, 298, 299, 300, 301, 302, 303, 304, 305, 306, 307, 308, 309, 310, 311, 312, 313, 314, 315, 316, 317, 318, 319, 320, 321, 322, 323, 324, 325, 326, 327, 328, 329, 330, 331, 332, 333, 334, 335, 336, 337, 338, 339, 340, 341, 342, 343, 344, 345, 346, 347, 348, 349, 350, 351, 352, 353, 354, 355, 356, 357, 358, 359, 360, 361, 362, 363, 364, 365, 366, 367, 368, 369, 370, 371, 372, 373, 374, 375, 376, 377, 378, 379, 380, 381, 382, 383, 384, 385, 386, 387, 388, 389, 390, 391, 392, 393, 394, 395, 396, 397, 398, 399, 400, 401, 402, 403, 404, 405, 406, 407, 408, 409, 410, 411, 412, 413, 414, 415, 416, 417, 418, 419, 420, 421, 422, 423, 424, 425, 426, 427, 428, 429, 430, 431, 432, 433, 434, 435, 436, 437, 438, 439, 440, 441, 442, 443, 444],
      "AcquisitionTime": ["143818.440000", "143819.930000", "143821.420000", "143822.910000", "143824.400000", "143825.890000", "143827.380000", "143828.870000", "143830.360000", "143831.850000", "143833.340000", "143834.830000", "143836.320000", "143837.810000", "143839.300000", "143840.790000", "143842.280000", "143843.770000", "143845.260000", "143846.750000", "143848.240000", "143849.730000", "143851.220000", "143852.710000", "143854.200000", "143855.690000", "143857.180000", "143858.670000", "143900.160000", "143901.650000", "143903.140000", "143904.630000", "143906.120000", "143907.610000", "143909.100000", "143910.590000", "143912.080000", "143913.570000", "143915.060000", "143916.550000", "143918.040000", "143919.530000", "143921.020000", "143922.510000", "143924.000000", "143925.490000", "143926.980000", "143928.470000", "143929.960000", "143931.450000", "143932.940000", "143934.430000", "143935.920000", "143937.410000", "143938.900000", "143940.390000", "143941.880000", "143943.370000", "143944.860000", "143946.350000", "143947.840000", "143949.330000", "143950.820000", "143952.310000", "143953.800000", "143955.290000", "143956.780000", "143958.270000", "143959.760000", "144001.250000", "144002.740000", "144004.230000", "144005.720000", "144007.210000", "144008.700000", "144010.190000", "144011.680000", "144013.170000", "144014.660000", "144016.150000", "144017.640000", "144019.130000", "144020.620000", "144022.110000", "144023.600000", "144025.090000", "144026.580000", "144028.070000", "144029.560000", "144031.050000", "144032.540000", "144034.030000", "144035.520000", "144037.010000", "144038.500000", "144039.990000", "144041.480000", "144042.970000", "144044.460000", "144045.950000", "144047.440000", "144048.930000", "144050.420000", "144051.910000", "144053.400000", "144054.890000", "144056.380000", "144057.870000", "144059.360000", "144100.850000", "144102.340000", "144103.830000", "144105.320000", "144106.810000", "144108.300000", "144109.790000", "144111.280000", "144112.770000", "144114.260000", "144115.750000", "144117.240000", "144118.730000", "144120.220000", "144121.710000", "144123.200000", "144124.690000", "144126.180000", "144127.670000", "144129.160000", "144130.650000", "144132.140000", "144133.630000", "144135.120000", "144136.610000", "144138.100000", "144139.590000", "144141.080000", "144142.570000", "144144.060000", "144145.550000", "144147.040000", "144148.530000", "144150.020000", "144151.510000", "144153.000000", "144154.490000", "144155.980000", "144157.470000", "144158.960000", "144200.450000", "144201.940000", "144203.430000", "144204.920000", "144206.410000", "144207.900000", "144209.390000", "144210.880000", "144212.370000", "144213.860000", "144215.350000", "144216.840000", "144218.330000", "144219.820000", "144221.310000", "144222.800000", "144224.290000", "144225.780000", "144227.270000", "144228.760000", "144230.250000", "144231.740000", "144233.230000", "144234.720000", "144236.210000", "144237.700000", "144239.190000", "144240.680000", "144242.170000", "144243.660000", "144245.150000", "144246.640000", "144248.130000", "144249.620000", "144251.110000", "144252.600000", "144254.090000", "144255.580000", "144257.070000", "144258.560000", "144300.050000", "144301.540000", "144303.030000", "144304.520000", "144306.010000", "144307.500000", "144308.990000", "144310.480000", "144311.970000", "144313.460000", "144314.950000", "144316.440000", "144317.930000", "144319.420000", "144320.910000", "144322.400000", "144323.890000", "144325.380000", "144326.870000", "144328.360000", "144329.850000", "144331.340000", "144332.830000", "144334.320000", "144335.810000", "144337.300000", "144338.790000", "144340.280000", "144341.770000", "144343.260000", "144344.750000", "144346.240000", "144347.730000", "144349.220000", "144350.710000", "144352.200000", "144353.690000", "144355.180000", "144356.670000", "144358.160000", "144359.650000", "144401.140000", "144402.630000", "144404.120000", "144405.610000", "144407.100000", "144408.590000", "144410.080000", "144411.570000", "144413.060000", "144414.550000", "144416.040000", "144417.530000", "144419.020000", "144420.510000", "144422.000000", "144423.490000", "144424.980000", "144426.470000", "144427.960000", "144429.450000", "144430.940000", "144432.430000", "144433.920000", "144435.410000", "144436.900000", "144438.390000", "144439.880000", "144441.370000", "144442.860000", "144444.350000", "144445.840000", "144447.330000", "144448.820000", "144450.310000", "144451.800000", "144453.290000", "144454.780000", "144456.270000", "144457.760000", "144459.250000", "144500.740000", "144502.230000", "144503.720000", "144505.210000", "144506.700000", "144508.190000", "144509.680000", "144511.170000", "144512.660000", "144514.150000", "144515.640000", "144517.130000", "144518.620000", "144520.110000", "144521.600000", "144523.090000", "144524.580000", "144526.070000", "144527.560000", "144529.050000", "144530.540000", "144532.030000", "144533.520000", "144535.010000", "144536.500000", "144537.990000", "144539.480000", "144540.970000", "144542.460000", "144543.950000", "144545.440000", "144546.930000", "144548.420000", "144549.910000", "144551.400000", "144552.890000", "144554.380000", "144555.870000", "144557.360000", "144558.850000", "144600.340000", "144601.830000", "144603.320000", "144604.810000", "144606.300000", "144607.790000", "144609.280000", "144610.770000", "144612.260000", "144613.750000", "144615.240000", "144616.730000", "144618.220000", "144619.710000", "144621.200000", "144622.690000", "144624.180000", "144625.670000", "144627.160000", "144628.650000", "144630.140000", "144631.630000", "144633.120000", "144634.610000", "144636.100000", "144637.590000", "144639.080000", "144640.570000", "144642.060000", "144643.550000", "144645.040000", "144646.530000", "144648.020000", "144649.510000", "144651.000000", "144652.490000", "144653.980000", "144655.470000", "144656.960000", "144658.450000", "144659.940000", "144701.430000", "144702.920000", "144704.410000", "144705.900000", "144707.390000", "144708.880000", "144710.370000", "144711.860000", "144713.350000", "144714.840000", "144716.330000", "144717.820000", "144719.310000", "144720.800000", "144722.290000", "144723.780000", "144725.270000", "144726.760000", "144728.250000", "144729.740000", "144731.230000", "144732.720000", "144734.210000", "144735.700000", "144737.190000", "144738.680000", "144740.170000", "144741.660000", "144743.150000", "144744.640000", "144746.130000", "144747.620000", "144749.110000", "144750.600000", "144752.090000", "144753.580000", "144755.070000", "144756.560000", "144758.050000", "144759.540000", "144801.030000", "144802.520000", "144804.010000", "144805.500000", "144806.990000", "144808.480000", "144809.970000", "144811.460000", "144812.950000", "144814.440000", "144815.930000", "144817.420000", "144818.910000", "144820.400000", "144821.890000", "144823.380000", "144824.870000", "144826.360000", "144827.850000", "144829.340000", "144830.830000", "144832.320000", "144833.810000", "144835.300000", "144836.790000", "144838.280000", "144839.770000", "144841.260000", "144842.750000", "144844.240000", "144845.730000", "144847.220000", "144848.710000", "144850.200000", "144851.690000", "144853.180000", "144854.670000", "144856.160000", "144857.650000", "144859.140000", "144900.630000", "144902.120000", "144903.610000", "144905.100000", "144906.590000", "144908.080000", "144909.570000", "144911.060000", "144912.550000", "144914.040000", "144915.530000", "144917.020000", "144918.510000"],
      "ContentTime": ["143945.676000", "143945.679000", "143945.682000", "143945.684000", "143945.687000", "143945.690000", "143945.692000", "143945.700000", "143945.703000", "143945.705000", "143945.708000", "143945.710000", "143945.713000", "143945.715000", "143945.718000", "143945.720000", "143945.723000", "143945.725000", "143945.728000", "143945.730000", "143945.733000", "143945.735000", "143945.738000", "143945.740000", "143945.743000", "143945.745000", "143945.748000", "143945.750000", "143945.753000", "143945.755000", "143945.758000", "144005.583000", "144005.585000", "144005.588000", "144005.590000", "144005.593000", "144005.595000", "144005.598000", "144005.600000", "144005.603000", "144005.605000", "144005.608000", "144005.610000", "144005.613000", "144005.615000", "144005.618000", "144005.620000", "144005.623000", "144005.625000", "144005.628000", "144005.630000", "144005.633000", "144025.575000", "144025.578000", "144025.581000", "144025.583000", "144025.586000", "144025.588000", "144025.599000", "144025.601000", "144025.604000", "144025.606000", "144025.609000", "144025.611000", "144025.614000", "144025.616000", "144025.619000", "144025.621000", "144025.624000", "144025.626000", "144025.629000", "144025.631000", "144045.573000", "144045.576000", "144045.579000", "144045.581000", "144045.594000", "144045.597000", "144045.599000", "144045.602000", "144045.604000", "144045.607000", "144045.609000", "144045.612000", "144045.614000", "144045.617000", "144045.619000", "144045.622000", "144045.624000", "144045.627000", "144045.629000", "144045.632000", "144125.654000", "144125.657000", "144125.660000", "144125.662000", "144125.665000", "144125.667000", "144125.670000", "144125.672000", "144125.675000", "144125.677000", "144125.680000", "144125.682000", "144125.685000", "144125.687000", "144125.690000", "144125.692000", "144125.695000", "144125.697000", "144125.700000", "144125.702000", "144125.705000", "144125.707000", "144125.710000", "144125.713000", "144125.715000", "144125.718000", "144125.720000", "144125.723000", "144125.725000", "144125.728000", "144125.730000", "144125.733000", "144205.608000", "144205.611000", "144205.613000", "144205.616000", "144205.618000", "144205.621000", "144205.623000", "144205.626000", "144205.628000", "144205.631000", "144205.633000", "144205.636000", "144205.638000", "144205.641000", "144205.643000", "144205.646000", "144205.648000", "144205.651000", "144205.653000", "144205.656000", "144205.658000", "144205.661000", "144205.663000", "144205.666000", "144205.668000", "144205.671000", "144205.673000", "144245.621000", "144245.624000", "144245.626000", "144245.629000", "144245.631000", "144245.634000", "144245.636000", "144245.639000", "144245.641000", "144245.644000", "144245.647000", "144245.649000", "144245.652000", "144245.654000", "144245.657000", "144245.659000", "144245.662000", "144245.664000", "144245.667000", "144245.669000", "144245.672000", "144245.674000", "144245.677000", "144245.679000", "144245.682000", "144245.684000", "144245.687000", "144325.617000", "144325.620000", "144325.622000", "144325.625000", "144325.627000", "144325.630000", "144325.632000", "144325.635000", "144325.637000", "144325.640000", "144325.642000", "144325.645000", "144325.648000", "144325.650000", "144325.652000", "144325.655000", "144325.658000", "144325.660000", "144325.662000", "144325.665000", "144325.668000", "144325.670000", "144325.673000", "144325.675000", "144325.678000", "144325.680000", "144325.683000", "144406.064000", "144406.067000", "144406.070000", "144406.072000", "144406.075000", "144406.077000", "144406.080000", "144406.082000", "144406.085000", "144406.087000", "144406.090000", "144406.092000", "144406.095000", "144406.097000", "144406.100000", "144406.102000", "144406.105000", "144406.107000", "144406.110000", "144406.112000", "144406.115000", "144406.117000", "144406.120000", "144406.122000", "144406.125000", "144406.127000", "144406.130000", "144445.617000", "144445.619000", "144445.622000", "144445.625000", "144445.627000", "144445.630000", "144445.632000", "144445.635000", "144445.637000", "144445.640000", "144445.642000", "144445.645000", "144445.647000", "144445.650000", "144445.652000", "144445.655000", "144445.657000", "144445.660000", "144445.662000", "144445.665000", "144445.667000", "144445.670000", "144445.672000", "144445.675000", "144445.677000", "144445.680000", "144445.682000", "144525.613000", "144525.616000", "144525.618000", "144525.621000", "144525.623000", "144525.626000", "144525.628000", "144525.631000", "144525.633000", "144525.636000", "144525.638000", "144525.641000", "144525.643000", "144525.646000", "144525.649000", "144525.651000", "144525.654000", "144525.656000", "144525.659000", "144525.661000", "144525.664000", "144525.666000", "144525.669000", "144525.671000", "144525.674000", "144525.676000", "144605.604000", "144605.607000", "144605.617000", "144605.620000", "144605.622000", "144605.625000", "144605.628000", "144605.630000", "144605.633000", "144605.636000", "144605.638000", "144605.641000", "144605.643000", "144605.646000", "144605.648000", "144605.651000", "144605.653000", "144605.656000", "144605.658000", "144605.661000", "144605.663000", "144605.666000", "144605.668000", "144605.671000", "144605.673000", "144605.676000", "144605.679000", "144645.607000", "144645.610000", "144645.612000", "144645.615000", "144645.618000", "144645.620000", "144645.622000", "144645.625000", "144645.628000", "144645.630000", "144645.633000", "144645.635000", "144645.638000", "144645.641000", "144645.643000", "144645.646000", "144645.648000", "144645.651000", "144645.653000", "144645.656000", "144645.658000", "144645.661000", "144645.663000", "144645.666000", "144645.668000", "144645.671000", "144645.673000", "144725.610000", "144725.612000", "144725.615000", "144725.618000", "144725.620000", "144725.623000", "144725.625000", "144725.628000", "144725.630000", "144725.633000", "144725.635000", "144725.638000", "144725.640000", "144725.643000", "144725.645000", "144725.648000", "144725.650000", "144725.653000", "144725.655000", "144725.658000", "144725.661000", "144725.664000", "144725.666000", "144725.669000", "144725.671000", "144725.674000", "144725.676000", "144805.612000", "144805.615000", "144805.617000", "144805.620000", "144805.622000", "144805.625000", "144805.627000", "144805.630000", "144805.632000", "144805.635000", "144805.637000", "144805.640000", "144805.643000", "144805.645000", "144805.647000", "144805.650000", "144805.652000", "144805.655000", "144805.657000", "144805.660000", "144805.663000", "144805.665000", "144805.667000", "144805.670000", "144805.673000", "144805.675000", "144805.677000", "144845.614000", "144845.617000", "144845.620000", "144845.622000", "144845.624000", "144845.627000", "144845.630000", "144845.632000", "144845.634000", "144845.637000", "144845.640000", "144845.642000", "144845.644000", "144845.647000", "144845.650000", "144845.652000", "144845.655000", "144845.657000", "144845.660000", "144845.662000", "144845.665000", "144845.667000", "144845.670000", "144845.672000", "144845.675000", "144845.677000", "144845.680000", "144922.139000", "144922.141000", "144922.144000", "144922.147000", "144922.149000", "144922.152000", "144922.159000", "144922.161000", "144922.164000", "144922.166000", "144922.169000", "144922.171000", "144922.174000", "144922.176000", "144922.179000", "144922.182000", "144922.184000", "144922.187000", "144922.189000", "144922.192000", "144922.194000", "144922.197000", "144922.199000", "144922.202000"],
