{
  "AcquisitionMatrixPE": 104,
  "AcquisitionNumber": 1,
  "AcquisitionTime": "18:17:31.955000",
  "BandwidthPerPixelPhaseEncode": 17.17,
  "BaseResolution": 104,
  "BodyPartExamined": "BRAIN",
  "CoilCombinationMethod": "Sum of Squares",
  "ConsistencyInfo": "N4_VE11C_LATEST_20160120",
  "ConversionSoftware": "dcm2niix",
  "ConversionSoftwareVersion": "v1.0.20211006",
  "DerivedVendorReportedEchoSpacing": 0.000560011,
  "DeviceSerialNumber": "167006",
  "DwellTime": 2.1e-06,
  "EchoTime": 0.037,
  "EchoTrainLength": 104,
  "EffectiveEchoSpacing": 0.000560011,
  "FlipAngle": 52,
  "HeudiconvVersion": "0.5.3.post569+g418601f",
  "ImageComments": "Unaliased MB4/PE3/LB",
  "ImageOrientationPatientDICOM": [0.999892, -0.0116451, 0.0089236, 0.0134384, 0.971021, -0.238617],
  "ImageOrientationText": "Tra>Cor(-13.8)>Sag(0.3)",
  "ImageType": [
    "ORIGINAL",
    "PRIMARY",
    "M",
    "MB",
    "ND",
    "MOSAIC"
],
  "ImagingFrequency": 123.259,
  "InPlanePhaseEncodingDirectionDICOM": "COL",
  "InstitutionAddress": "Chemin Queen-Mary 4565,Montreal,District,CA,H3W 1W5",
  "InstitutionName": "IUGM",
  "InstitutionalDepartmentName": "Department",
  "MRAcquisitionType": "2D",
  "MagneticFieldStrength": 3,
  "Manufacturer": "Siemens",
  "ManufacturersModelName": "Prisma_fit",
  "MatrixCoilMode": "SENSE",
  "Modality": "MR",
  "MultibandAccelerationFactor": 4,
  "PartialFourier": 1,
  "PatientPosition": "HFS",
  "PercentPhaseFOV": 100,
  "PercentSampling": 100,
  "PhaseEncodingDirection": "j",
  "PhaseEncodingSteps": 104,
  "PhaseResolution": 1,
  "PixelBandwidth": 2290,
  "ProcedureStepDescription": "games^mario",
  "ProtocolName": "func_task-mario_run-03",
  "PulseSequenceDetails": "%CustomerSeq%\\cmrr_mbep2d_bold",
  "ReceiveCoilActiveElements": "HC1-7;NC1,2",
  "ReceiveCoilName": "HeadNeck_64",
  "ReconMatrixPE": 104,
  "RepetitionTime": 1.49,
  "SAR": 0.0451449,
  "ScanOptions": "FS",
  "ScanningSequence": "EP",
  "SequenceName": "epfid2d1_104",
  "SequenceVariant": "SK\\SS",
  "SeriesDescription": "func_task-mario_run-03",
  "SeriesNumber": 16,
  "ShimSetting": [626, -7219, -8766, 724, 24, 4, 89, -11],
  "SliceThickness": 2,
  "SliceTiming": [0, 0.785, 0.0975, 0.8825, 0.195, 0.98, 0.295, 1.0775, 0.3925, 1.175, 0.49, 1.275, 0.5875, 1.3725, 0.685, 0, 0.785, 0.0975, 0.8825, 0.195, 0.98, 0.295, 1.0775, 0.3925, 1.175, 0.49, 1.275, 0.5875, 1.3725, 0.685, 0, 0.785, 0.0975, 0.8825, 0.195, 0.98, 0.295, 1.0775, 0.3925, 1.175, 0.49, 1.275, 0.5875, 1.3725, 0.685, 0, 0.785, 0.0975, 0.8825, 0.195, 0.98, 0.295, 1.0775, 0.3925, 1.175, 0.49, 1.275, 0.5875, 1.3725, 0.685],
  "SoftwareVersions": "syngo MR E11",
  "SpacingBetweenSlices": 2,
  "StationName": "MRC35049",
  "TaskName": "mario",
  "TotalReadoutTime": 0.0576811,
  "TxRefAmp": 231.484,
  "WipMemBlock": "eb649543-1504-48aa-885c-8ae0cd25848f||Sequence: R016 ve11c/master r/e634e98; Dec 19 2017 11:00:25 by eja",
  "dcmmeta_affine": [
    [-1.9997847080230713, 0.026876773685216904, 0.011772570200264454, 107.8886489868164],
    [0.02329016476869583, 1.9420413970947266, -0.4774228632450104, -76.62594604492188],
    [0.017847202718257904, 0.4772343933582306, 1.9421454668045044, -55.19871520996094],
    [0.0, 0.0, 0.0, 1.0]
],
  "dcmmeta_reorient_transform": [
    [0.0, -1.0, 0.0, 103.0],
    [1.0, 0.0, 0.0, 0.0],
    [0.0, 0.0, 1.0, 0.0],
    [0.0, 0.0, 0.0, 1.0]
],
  "dcmmeta_shape": [104, 104, 60, 470],
  "dcmmeta_slice_dim": 2,
  "dcmmeta_version": 0.6,
  "global": {
    "const": {
      "AcquisitionMatrix": [104, 0, 0, 104],
      "AngioFlag": "N",
      "BitsAllocated": 16,
      "BitsStored": 16,
      "BodyPartExamined": "BRAIN",
      "Columns": 832,
      "EchoNumbers": 1,
      "EchoTime": 37.0,
      "EchoTrainLength": 104,
      "FlipAngle": 52.0,
      "HighBit": 15,
      "ImageOrientationPatient": [0.99989237490778, -0.011645082309, 0.00892360125206, 0.01343838723953, 0.97102072307929, -0.2386171936366],
      "ImagePositionPatient": [-848.36175007962, -821.82978650836, 161.17336338905],
      "ImageType": [
        "ORIGINAL",
        "PRIMARY",
        "M",
        "MB",
        "ND",
        "MOSAIC"
],
      "ImagedNucleus": "1H",
      "ImagingFrequency": 123.258816,
      "InPlanePhaseEncodingDirection": "COL",
      "MRAcquisitionType": "2D",
      "MagneticFieldStrength": 3.0,
      "Manufacturer": "SIEMENS",
      "ManufacturerModelName": "Prisma_fit",
      "Modality": "MR",
      "NumberOfAverages": 1.0,
      "NumberOfPhaseEncodingSteps": 104,
      "PercentPhaseFieldOfView": 100.0,
      "PercentSampling": 100.0,
      "PerformedProcedureStepStartTime": "172546.296000",
      "PhotometricInterpretation": "MONOCHROME2",
      "PixelBandwidth": 2290.0,
      "PixelRepresentation": 0,
      "PixelSpacing": [2.0, 2.0],
      "ProtocolName": "func_task-mario_run-03",
      "RepetitionTime": 1490.0,
      "Rows": 832,
      "SAR": 0.04514494405524,
      "SamplesPerPixel": 1,
      "ScanOptions": "FS",
      "ScanningSequence": "EP",
      "SequenceName": "epfid2d1_104",
      "SequenceVariant": [
        "SK",
        "SS"
],
      "SeriesDescription": "func_task-mario_run-03",
      "SeriesNumber": 16,
      "SeriesTime": "181847.708000",
      "SliceLocation": -34.675411192334,
      "SliceThickness": 2.0,
      "SmallestImagePixelValue": 0,
      "SoftwareVersions": "syngo MR E11",
      "SpacingBetweenSlices": 2.0000000467071,
      "SpecificCharacterSet": "ISO_IR 100",
      "StudyID": "1",
      "StudyTime": "172546.228000",
      "TransmitCoilName": "Body",
      "VariableFlipAngleFlag": "N",
      "WindowCenterWidthExplanation": "Algo1",
      "dBdt": 0.0},
    "slices": {}
  },
  "time": {
    "samples": {
      "AcquisitionNumber": [1, 2, 3, 4, 5, 6, 7, 8, 9, 10, 11, 12, 13, 14, 15, 16, 17, 18, 19, 20, 21, 22, 23, 24, 25, 26, 27, 28, 29, 30, 31, 32, 33, 34, 35, 36, 37, 38, 39, 40, 41, 42, 43, 44, 45, 46, 47, 48, 49, 50, 51, 52, 53, 54, 55, 56, 57, 58, 59, 60, 61, 62, 63, 64, 65, 66, 67, 68, 69, 70, 71, 72, 73, 74, 75, 76, 77, 78, 79, 80, 81, 82, 83, 84, 85, 86, 87, 88, 89, 90, 91, 92, 93, 94, 95, 96, 97, 98, 99, 100, 101, 102, 103, 104, 105, 106, 107, 108, 109, 110, 111, 112, 113, 114, 115, 116, 117, 118, 119, 120, 121, 122, 123, 124, 125, 126, 127, 128, 129, 130, 131, 132, 133, 134, 135, 136, 137, 138, 139, 140, 141, 142, 143, 144, 145, 146, 147, 148, 149, 150, 151, 152, 153, 154, 155, 156, 157, 158, 159, 160, 161, 162, 163, 164, 165, 166, 167, 168, 169, 170, 171, 172, 173, 174, 175, 176, 177, 178, 179, 180, 181, 182, 183, 184, 185, 186, 187, 188, 189, 190, 191, 192, 193, 194, 195, 196, 197, 198, 199, 200, 201, 202, 203, 204, 205, 206, 207, 208, 209, 210, 211, 212, 213, 214, 215, 216, 217, 218, 219, 220, 221, 222, 223, 224, 225, 226, 227, 228, 229, 230, 231, 232, 233, 234, 235, 236, 237, 238, 239, 240, 241, 242, 243, 244, 245, 246, 247, 248, 249, 250, 251, 252, 253, 254, 255, 256, 257, 258, 259, 260, 261, 262, 263, 264, 265, 266, 267, 268, 269, 270, 271, 272, 273, 274, 275, 276, 277, 278, 279, 280, 281, 282, 283, 284, 285, 286, 287, 288, 289, 290, 291, 292, 293, 294, 295, 296, 297, 298, 299, 300, 301, 302, 303, 304, 305, 306, 307, 308, 309, 310, 311, 312, 313, 314, 315, 316, 317, 318, 319, 320, 321, 322, 323, 324, 325, 326, 327, 328, 329, 330, 331, 332, 333, 334, 335, 336, 337, 338, 339, 340, 341, 342, 343, 344, 345, 346, 347, 348, 349, 350, 351, 352, 353, 354, 355, 356, 357, 358, 359, 360, 361, 362, 363, 364, 365, 366, 367, 368, 369, 370, 371, 372, 373, 374, 375, 376, 377, 378, 379, 380, 381, 382, 383, 384, 385, 386, 387, 388, 389, 390, 391, 392, 393, 394, 395, 396, 397, 398, 399, 400, 401, 402, 403, 404, 405, 406, 407, 408, 409, 410, 411, 412, 413, 414, 415, 416, 417, 418, 419, 420, 421, 422, 423, 424, 425, 426, 427, 428, 429, 430, 431, 432, 433, 434, 435, 436, 437, 438, 439, 440, 441, 442, 443, 444, 445, 446, 447, 448, 449, 450, 451, 452, 453, 454, 455, 456, 457, 458, 459, 460, 461, 462, 463, 464, 465, 466, 467, 468, 469, 470],
      "AcquisitionTime": ["181731.955000", "181733.445000", "181734.935000", "181736.425000", "181737.915000", "181739.405000", "181740.895000", "181742.385000", "181743.875000", "181745.365000", "181746.855000", "181748.345000", "181749.835000", "181751.325000", "181752.815000", "181754.305000", "181755.795000", "181757.285000", "181758.775000", "181800.265000", "181801.755000", "181803.245000", "181804.735000", "181806.225000", "181807.715000", "181809.205000", "181810.695000", "181812.185000", "181813.675000", "181815.165000", "181816.655000", "181818.145000", "181819.635000", "181821.125000", "181822.615000", "181824.105000", "181825.595000", "181827.085000", "181828.575000", "181830.065000", "181831.555000", "181833.045000", "181834.535000", "181836.025000", "181837.515000", "181839.005000", "181840.495000", "181841.985000", "181843.475000", "181844.965000", "181846.455000", "181847.945000", "181849.435000", "181850.925000", "181852.415000", "181853.905000", "181855.395000", "181856.885000", "181858.375000", "181859.865000", "181901.355000", "181902.845000", "181904.335000", "181905.825000", "181907.315000", "181908.805000", "181910.295000", "181911.785000", "181913.275000", "181914.765000", "181916.255000", "181917.745000", "181919.235000", "181920.725000", "181922.215000", "181923.705000", "181925.195000", "181926.685000", "181928.175000", "181929.665000", "181931.155000", "181932.645000", "181934.135000", "181935.625000", "181937.115000", "181938.605000", "181940.095000", "181941.585000", "181943.075000", "181944.565000", "181946.055000", "181947.545000", "181949.035000", "181950.525000", "181952.015000", "181953.505000", "181954.995000", "181956.485000", "181957.975000", "181959.465000", "182000.955000", "182002.445000", "182003.935000", "182005.425000", "182006.915000", "182008.405000", "182009.895000", "182011.385000", "182012.875000", "182014.365000", "182015.855000", "182017.345000", "182018.835000", "182020.325000", "182021.815000", "182023.305000", "182024.795000", "182026.285000", "182027.775000", "182029.265000", "182030.755000", "182032.245000", "182033.735000", "182035.225000", "182036.715000", "182038.205000", "182039.695000", "182041.185000", "182042.675000", "182044.165000", "182045.655000", "182047.145000", "182048.635000", "182050.125000", "182051.615000", "182053.105000", "182054.595000", "182056.085000", "182057.575000", "182059.065000", "182100.555000", "182102.045000", "182103.535000", "182105.025000", "182106.515000", "182108.005000", "182109.495000", "182110.985000", "182112.475000", "182113.965000", "182115.455000", "182116.945000", "182118.435000", "182119.925000", "182121.415000", "182122.905000", "182124.395000", "182125.885000", "182127.375000", "182128.865000", "182130.355000", "182131.845000", "182133.335000", "182134.825000", "182136.315000", "182137.805000", "182139.295000", "182140.785000", "182142.275000", "182143.765000", "182145.255000", "182146.745000", "182148.235000", "182149.725000", "182151.215000", "182152.705000", "182154.195000", "182155.685000", "182157.175000", "182158.665000", "182200.155000", "182201.645000", "182203.135000", "182204.625000", "182206.115000", "182207.605000", "182209.095000", "182210.585000", "182212.075000", "182213.565000", "182215.055000", "182216.545000", "182218.035000", "182219.525000", "182221.015000", "182222.505000", "182223.995000", "182225.485000", "182226.975000", "182228.465000", "182229.955000", "182231.445000", "182232.935000", "182234.425000", "182235.915000", "182237.405000", "182238.895000", "182240.385000", "182241.875000", "182243.365000", "182244.855000", "182246.345000", "182247.835000", "182249.325000", "182250.815000", "182252.305000", "182253.795000", "182255.285000", "182256.775000", "182258.265000", "182259.755000", "182301.245000", "182302.735000", "182304.225000", "182305.715000", "182307.205000", "182308.695000", "182310.185000", "182311.675000", "182313.165000", "182314.655000", "182316.145000", "182317.635000", "182319.125000", "182320.615000", "182322.105000", "182323.595000", "182325.085000", "182326.575000", "182328.065000", "182329.555000", "182331.045000", "182332.535000", "182334.025000", "182335.515000", "182337.005000", "182338.495000", "182339.985000", "182341.475000", "182342.965000", "182344.455000", "182345.945000", "182347.435000", "182348.925000", "182350.415000", "182351.905000", "182353.395000", "182354.885000", "182356.375000", "182357.865000", "182359.355000", "182400.845000", "182402.335000", "182403.825000", "182405.315000", "182406.805000", "182408.295000", "182409.785000", "182411.275000", "182412.765000", "182414.255000", "182415.745000", "182417.235000", "182418.725000", "182420.215000", "182421.705000", "182423.195000", "182424.685000", "182426.175000", "182427.665000", "182429.155000", "182430.645000", "182432.135000", "182433.625000", "182435.115000", "182436.605000", "182438.095000", "182439.585000", "182441.075000", "182442.565000", "182444.055000", "182445.545000", "182447.035000", "182448.525000", "182450.015000", "182451.505000", "182452.995000", "182454.485000", "182455.975000", "182457.465000", "182458.955000", "182500.445000", "182501.935000", "182503.425000", "182504.915000", "182506.405000", "182507.895000", "182509.385000", "182510.875000", "182512.365000", "182513.855000", "182515.345000", "182516.835000", "182518.325000", "182519.815000", "182521.305000", "182522.795000", "182524.285000", "182525.775000", "182527.265000", "182528.755000", "182530.245000", "182531.735000", "182533.225000", "182534.715000", "182536.205000", "182537.695000", "182539.185000", "182540.675000", "182542.165000", "182543.655000", "182545.145000", "182546.635000", "182548.125000", "182549.615000", "182551.105000", "182552.595000", "182554.085000", "182555.575000", "182557.065000", "182558.555000", "182600.045000", "182601.535000", "182603.025000", "182604.515000", "182606.005000", "182607.495000", "182608.985000", "182610.475000", "182611.965000", "182613.455000", "182614.945000", "182616.435000", "182617.925000", "182619.415000", "182620.905000", "182622.395000", "182623.885000", "182625.375000", "182626.865000", "182628.355000", "182629.845000", "182631.335000", "182632.825000", "182634.315000", "182635.805000", "182637.295000", "182638.785000", "182640.275000", "182641.765000", "182643.255000", "182644.745000", "182646.235000", "182647.725000", "182649.215000", "182650.705000", "182652.195000", "182653.685000", "182655.175000", "182656.665000", "182658.155000", "182659.645000", "182701.135000", "182702.625000", "182704.115000", "182705.605000", "182707.095000", "182708.585000", "182710.075000", "182711.565000", "182713.055000", "182714.545000", "182716.035000", "182717.525000", "182719.015000", "182720.505000", "182721.995000", "182723.485000", "182724.975000", "182726.465000", "182727.955000", "182729.445000", "182730.935000", "182732.425000", "182733.915000", "182735.405000", "182736.895000", "182738.385000", "182739.875000", "182741.365000", "182742.855000", "182744.345000", "182745.835000", "182747.325000", "182748.815000", "182750.305000", "182751.795000", "182753.285000", "182754.775000", "182756.265000", "182757.755000", "182759.245000", "182800.735000", "182802.225000", "182803.715000", "182805.205000", "182806.695000", "182808.185000", "182809.675000", "182811.165000", "182812.655000", "182814.145000", "182815.635000", "182817.125000", "182818.615000", "182820.105000", "182821.595000", "182823.085000", "182824.575000", "182826.065000", "182827.555000", "182829.045000", "182830.535000", "182832.025000", "182833.515000", "182835.005000", "182836.495000", "182837.985000", "182839.475000", "182840.965000", "182842.455000", "182843.945000", "182845.435000", "182846.925000", "182848.415000", "182849.905000", "182851.395000", "182852.885000", "182854.375000", "182855.865000", "182857.355000", "182858.845000", "182900.335000", "182901.825000", "182903.315000", "182904.805000", "182906.295000", "182907.785000", "182909.275000", "182910.765000"],
      "ContentTime": ["181847.711000", "181847.715000", "181847.719000", "181847.722000", "181847.726000", "181847.729000", "181847.738000", "181847.741000", "181847.745000", "181847.748000", "181847.751000", "181847.755000", "181847.758000", "181847.767000", "181847.771000", "181847.774000", "181847.778000", "181847.781000", "181847.784000", "181847.787000", "181847.791000", "181907.676000", "181907.680000", "181907.684000", "181907.687000", "181907.690000", "181907.694000", "181907.697000", "181907.701000", "181907.704000", "181907.708000", "181907.711000", "181907.714000", "181907.718000", "181907.721000", "181907.724000", "181907.728000", "181907.737000", "181907.740000", "181907.744000", "181907.747000", "181907.751000", "181927.675000", "181927.679000", "181927.682000", "181927.686000", "181927.689000", "181927.699000", "181927.702000", "181927.706000", "181927.709000", "181927.712000", "181927.716000", "181927.719000", "181927.723000", "181927.726000", "181927.730000", "181927.733000", "181927.736000", "181927.740000", "181927.743000", "181927.748000", "181947.675000", "181947.679000", "181947.683000", "181947.686000", "181947.689000", "181947.693000", "181947.696000", "181947.700000", "181947.703000", "181947.706000", "181947.710000", "181947.713000", "181947.716000", "181947.720000", "181947.723000", "181947.727000", "181947.730000", "181947.734000", "181947.737000", "181947.741000", "182007.675000", "182007.679000", "182007.683000", "182007.686000", "182007.689000", "182007.693000", "182007.696000", "182007.700000", "182007.703000", "182007.706000", "182007.710000", "182007.713000", "182007.717000", "182007.720000", "182007.723000", "182007.727000", "182007.730000", "182007.733000", "182007.737000", "182007.740000", "182047.675000", "182047.679000", "182047.683000", "182047.686000", "182047.689000", "182047.693000", "182047.696000", "182047.699000", "182047.703000", "182047.706000", "182047.710000", "182047.713000", "182047.717000", "182047.720000", "182047.723000", "182047.727000", "182047.730000", "182047.733000", "182047.737000", "182047.748000", "182047.752000", "182047.755000", "182047.759000", "182047.762000", "182047.765000", "182047.769000", "182047.772000", "182047.776000", "182047.779000", "182127.674000", "182127.678000", "182127.681000", "182127.685000", "182127.688000", "182127.692000", "182127.695000", "182127.698000", "182127.702000", "182127.705000", "182127.708000", "182127.712000", "182127.715000", "182127.719000", "182127.722000", "182127.725000", "182127.729000", "182127.732000", "182127.735000", "182127.739000", "182127.742000", "182127.745000", "182127.749000", "182127.752000", "182127.756000", "182127.759000", "182127.762000", "182207.675000", "182207.679000", "182207.682000", "182207.686000", "182207.689000", "182207.693000", "182207.696000", "182207.700000", "182207.703000", "182207.706000", "182207.710000", "182207.713000", "182207.716000", "182207.720000", "182207.723000", "182207.727000", "182207.731000", "182207.736000", "182207.741000", "182207.744000", "182207.751000", "182207.755000", "182207.758000", "182207.762000", "182207.765000", "182207.769000", "182247.675000", "182247.679000", "182247.683000", "182247.686000", "182247.689000", "182247.693000", "182247.696000", "182247.699000", "182247.703000", "182247.706000", "182247.709000", "182247.713000", "182247.716000", "182247.720000", "182247.723000", "182247.726000", "182247.730000", "182247.733000", "182247.736000", "182247.740000", "182247.743000", "182247.746000", "182247.750000", "182247.753000", "182247.757000", "182247.760000", "182247.763000", "182327.674000", "182327.688000", "182327.691000", "182327.694000", "182327.698000", "182327.701000", "182327.705000", "182327.708000", "182327.711000", "182327.715000", "182327.718000", "182327.722000", "182327.725000", "182327.728000", "182327.732000", "182327.735000", "182327.739000", "182327.742000", "182327.745000", "182327.749000", "182327.752000", "182327.755000", "182327.759000", "182327.762000", "182327.766000", "182327.769000", "182327.772000", "182407.676000", "182407.679000", "182407.683000", "182407.686000", "182407.690000", "182407.693000", "182407.697000", "182407.700000", "182407.704000", "182407.707000", "182407.710000", "182407.714000", "182407.717000", "182407.721000", "182407.724000", "182407.728000", "182407.731000", "182407.734000", "182407.738000", "182407.741000", "182407.745000", "182407.748000", "182407.751000", "182407.755000", "182407.758000", "182407.761000", "182407.765000", "182447.675000", "182447.679000", "182447.683000", "182447.686000", "182447.689000", "182447.693000", "182447.696000", "182447.699000", "182447.703000", "182447.706000", "182447.710000", "182447.713000", "182447.716000", "182447.720000", "182447.723000", "182447.727000", "182447.730000", "182447.734000", "182447.737000", "182447.740000", "182447.744000", "182447.747000", "182447.751000", "182447.754000", "182447.758000", "182447.761000", "182447.765000", "182527.675000", "182527.679000", "182527.685000", "182527.689000", "182527.692000", "182527.696000", "182527.699000", "182527.703000", "182527.706000", "182527.710000", "182527.713000", "182527.716000", "182527.720000", "182527.723000", "182527.727000", "182527.730000", "182527.734000", "182527.737000", "182527.740000", "182527.744000", "182527.747000", "182527.751000", "182527.754000", "182527.769000", "182527.772000", "182527.776000", "182527.779000", "182607.674000", "182607.678000", "182607.682000", "182607.685000", "182607.688000", "182607.692000", "182607.695000", "182607.699000", "182607.702000", "182607.705000", "182607.709000", "182607.712000", "182607.716000", "182607.719000", "182607.722000", "182607.726000", "182607.730000", "182607.733000", "182607.736000", "182607.740000", "182607.743000", "182607.747000", "182607.750000", "182607.753000", "182607.757000", "182607.760000", "182607.764000", "182647.675000", "182647.679000", "182647.683000", "182647.686000", "182647.689000", "182647.693000", "182647.696000", "182647.700000", "182647.703000", "182647.706000", "182647.710000", "182647.713000", "182647.717000", "182647.720000", "182647.724000", "182647.728000", "182647.732000", "182647.735000", "182647.739000", "182647.742000", "182647.745000", "182647.749000", "182647.752000", "182647.756000", "182647.759000", "182647.762000", "182727.675000", "182727.679000", "182727.683000", "182727.686000", "182727.689000", "182727.693000", "182727.696000", "182727.700000", "182727.703000", "182727.707000", "182727.710000", "182727.713000", "182727.717000", "182727.720000", "182727.724000", "182727.727000", "182727.731000", "182727.734000", "182727.737000", "182727.741000", "182727.744000", "182727.747000", "182727.751000", "182727.754000", "182727.758000", "182727.761000", "182727.764000", "182807.692000", "182807.695000", "182807.699000", "182807.702000", "182807.706000", "182807.709000", "182807.712000", "182807.716000", "182807.719000", "182807.723000", "182807.726000", "182807.729000", "182807.733000", "182807.736000", "182807.740000", "182807.743000", "182807.746000", "182807.750000", "182807.754000", "182807.757000", "182807.761000", "182807.764000", "182807.767000", "182807.771000", "182807.774000", "182807.778000", "182807.781000", "182847.675000", "182847.679000", "182847.683000", "182847.686000", "182847.690000", "182847.693000", "182847.696000", "182847.700000", "182847.703000", "182847.707000", "182847.710000", "182847.714000", "182847.717000", "182847.721000", "182847.724000", "182847.727000", "182847.731000", "182847.734000", "182847.738000", "182847.741000", "182847.745000", "182847.748000", "182847.752000", "182847.755000", "182847.759000", "182847.762000", "182847.765000", "182912.901000", "182912.905000", "182912.908000", "182912.912000", "182912.915000", "182912.918000", "182912.922000", "182912.925000", "182912.929000", "182912.932000", "182912.936000", "182912.939000", "182912.942000", "182912.946000", "182912.949000", "182912.953000", "182912.956000"],
