{
  "AcquisitionMatrixPE": 104,
  "AcquisitionNumber": 1,
  "AcquisitionTime": "18:17:31.955000",
  "BandwidthPerPixelPhaseEncode": 17.17,
  "BaseResolution": 104,
  "BodyPartExamined": "BRAIN",
  "CoilCombinationMethod": "Sum of Squares",
  "ConsistencyInfo": "N4_VE11C_LATEST_20160120",
  "ConversionSoftware": "dcm2niix",
  "ConversionSoftwareVersion": "v1.0.20211006",
  "DerivedVendorReportedEchoSpacing": 0.000560011,
  "DeviceSerialNumber": "167006",
  "DwellTime": 2.1e-06,
  "EchoTime": 0.037,
  "EchoTime1": 0.037,
  "EchoTime2": 0.001,
  "EchoTrainLength": 104,
  "EffectiveEchoSpacing": 0.000560011,
  "FlipAngle": 52,
  "HeudiconvVersion": "0.5.3.post569+g418601f",
  "ImageComments": "Unaliased MB4/PE3/LB",
  "ImageOrientationPatientDICOM": [0.999892, -0.0116451, 0.0089236, 0.0134384, 0.971021, -0.238617],
  "ImageOrientationText": "Tra>Cor(-13.8)>Sag(0.3)",
  "ImageType": [
    "ORIGINAL",
    "PRIMARY",
    "P",
    "MB",
    "ND",
    "MOSAIC",
    "PHASE"
],
  "ImagingFrequency": 123.259,
  "InPlanePhaseEncodingDirectionDICOM": "COL",
  "InstitutionAddress": "Chemin Queen-Mary 4565,Montreal,District,CA,H3W 1W5",
  "InstitutionName": "IUGM",
  "InstitutionalDepartmentName": "Department",
  "MRAcquisitionType": "2D",
  "MagneticFieldStrength": 3,
  "Manufacturer": "Siemens",
  "ManufacturersModelName": "Prisma_fit",
  "MatrixCoilMode": "SENSE",
  "Modality": "MR",
  "MultibandAccelerationFactor": 4,
  "PartialFourier": 1,
  "PatientPosition": "HFS",
  "PercentPhaseFOV": 100,
  "PercentSampling": 100,
  "PhaseEncodingDirection": "j",
  "PhaseEncodingSteps": 104,
  "PhaseResolution": 1,
  "PixelBandwidth": 2290,
  "ProcedureStepDescription": "games^mario",
  "ProtocolName": "func_task-mario_run-03",
  "PulseSequenceDetails": "%CustomerSeq%\\cmrr_mbep2d_bold",
  "ReceiveCoilActiveElements": "HC1-7;NC1,2",
  "ReceiveCoilName": "HeadNeck_64",
  "ReconMatrixPE": 104,
  "RepetitionTime": 1.49,
  "SAR": 0.0451449,
  "ScanOptions": "FS",
  "ScanningSequence": "EP",
  "SequenceName": "epfid2d1_104",
  "SequenceVariant": "SK\\SS",
  "SeriesDescription": "func_task-mario_run-03",
  "SeriesNumber": 17,
  "ShimSetting": [626, -7219, -8766, 724, 24, 4, 89, -11],
  "SliceThickness": 2,
  "SliceTiming": [0, 0.785, 0.0975, 0.8825, 0.195, 0.98, 0.295, 1.0775, 0.3925, 1.175, 0.49, 1.275, 0.5875, 1.3725, 0.685, 0, 0.785, 0.0975, 0.8825, 0.195, 0.98, 0.295, 1.0775, 0.3925, 1.175, 0.49, 1.275, 0.5875, 1.3725, 0.685, 0, 0.785, 0.0975, 0.8825, 0.195, 0.98, 0.295, 1.0775, 0.3925, 1.175, 0.49, 1.275, 0.5875, 1.3725, 0.685, 0, 0.785, 0.0975, 0.8825, 0.195, 0.98, 0.295, 1.0775, 0.3925, 1.175, 0.49, 1.275, 0.5875, 1.3725, 0.685],
  "SoftwareVersions": "syngo MR E11",
  "SpacingBetweenSlices": 2,
  "StationName": "MRC35049",
  "TaskName": "mario",
  "TotalReadoutTime": 0.0576811,
  "TxRefAmp": 231.484,
  "WipMemBlock": "eb649543-1504-48aa-885c-8ae0cd25848f||Sequence: R016 ve11c/master r/e634e98; Dec 19 2017 11:00:25 by eja",
  "dcmmeta_affine": [
    [-1.9997847080230713, 0.026876773685216904, 0.011772570200264454, 107.8886489868164],
    [0.02329016476869583, 1.9420413970947266, -0.4774228632450104, -76.62594604492188],
    [0.017847202718257904, 0.4772343933582306, 1.9421454668045044, -55.19871520996094],
    [0.0, 0.0, 0.0, 1.0]
],
  "dcmmeta_reorient_transform": [
    [0.0, -1.0, 0.0, 103.0],
    [1.0, 0.0, 0.0, 0.0],
    [0.0, 0.0, 1.0, 0.0],
    [0.0, 0.0, 0.0, 1.0]
],
  "dcmmeta_shape": [104, 104, 60, 470],
  "dcmmeta_slice_dim": 2,
  "dcmmeta_version": 0.6,
  "global": {
    "const": {
      "AcquisitionMatrix": [104, 0, 0, 104],
      "AngioFlag": "N",
      "BitsAllocated": 16,
      "BitsStored": 16,
      "BodyPartExamined": "BRAIN",
      "Columns": 832,
      "EchoNumbers": 1,
      "EchoTime": 37.0,
      "EchoTrainLength": 104,
      "FlipAngle": 52.0,
      "HighBit": 15,
      "ImageOrientationPatient": [0.99989237490778, -0.011645082309, 0.00892360125206, 0.01343838723953, 0.97102072307929, -0.2386171936366],
      "ImagePositionPatient": [-848.36175007962, -821.82978650836, 161.17336338905],
      "ImageType": [
        "ORIGINAL",
        "PRIMARY",
        "P",
        "MB",
        "ND",
        "MOSAIC"
],
      "ImagedNucleus": "1H",
      "ImagingFrequency": 123.258816,
      "InPlanePhaseEncodingDirection": "COL",
      "LargestImagePixelValue": 4095,
      "MRAcquisitionType": "2D",
      "MagneticFieldStrength": 3.0,
      "Manufacturer": "SIEMENS",
      "ManufacturerModelName": "Prisma_fit",
      "Modality": "MR",
      "NumberOfAverages": 1.0,
      "NumberOfPhaseEncodingSteps": 104,
      "PercentPhaseFieldOfView": 100.0,
      "PercentSampling": 100.0,
      "PerformedProcedureStepStartTime": "172546.296000",
      "PhotometricInterpretation": "MONOCHROME2",
      "PixelBandwidth": 2290.0,
      "PixelRepresentation": 0,
      "PixelSpacing": [2.0, 2.0],
      "ProtocolName": "func_task-mario_run-03",
      "RepetitionTime": 1490.0,
      "RescaleIntercept": -4096.0,
      "RescaleSlope": 2.0,
      "RescaleType": "US",
      "Rows": 832,
      "SAR": 0.04514494405524,
      "SamplesPerPixel": 1,
      "ScanOptions": "FS",
      "ScanningSequence": "EP",
      "SequenceName": "epfid2d1_104",
      "SequenceVariant": [
        "SK",
        "SS"
],
      "SeriesDescription": "func_task-mario_run-03",
      "SeriesNumber": 17,
      "SeriesTime": "181847.825000",
      "SliceLocation": -34.675411192334,
      "SliceThickness": 2.0,
      "SmallestImagePixelValue": 0,
      "SoftwareVersions": "syngo MR E11",
      "SpacingBetweenSlices": 2.0000000467071,
      "SpecificCharacterSet": "ISO_IR 100",
      "StudyID": "1",
      "StudyTime": "172546.228000",
      "TransmitCoilName": "Body",
      "VariableFlipAngleFlag": "N",
      "WindowCenterWidthExplanation": "Algo1",
      "dBdt": 0.0},
    "slices": {}
  },
  "time": {
    "samples": {
      "AcquisitionNumber": [1, 2, 3, 4, 5, 6, 7, 8, 9, 10, 11, 12, 13, 14, 15, 16, 17, 18, 19, 20, 21, 22, 23, 24, 25, 26, 27, 28, 29, 30, 31, 32, 33, 34, 35, 36, 37, 38, 39, 40, 41, 42, 43, 44, 45, 46, 47, 48, 49, 50, 51, 52, 53, 54, 55, 56, 57, 58, 59, 60, 61, 62, 63, 64, 65, 66, 67, 68, 69, 70, 71, 72, 73, 74, 75, 76, 77, 78, 79, 80, 81, 82, 83, 84, 85, 86, 87, 88, 89, 90, 91, 92, 93, 94, 95, 96, 97, 98, 99, 100, 101, 102, 103, 104, 105, 106, 107, 108, 109, 110, 111, 112, 113, 114, 115, 116, 117, 118, 119, 120, 121, 122, 123, 124, 125, 126, 127, 128, 129, 130, 131, 132, 133, 134, 135, 136, 137, 138, 139, 140, 141, 142, 143, 144, 145, 146, 147, 148, 149, 150, 151, 152, 153, 154, 155, 156, 157, 158, 159, 160, 161, 162, 163, 164, 165, 166, 167, 168, 169, 170, 171, 172, 173, 174, 175, 176, 177, 178, 179, 180, 181, 182, 183, 184, 185, 186, 187, 188, 189, 190, 191, 192, 193, 194, 195, 196, 197, 198, 199, 200, 201, 202, 203, 204, 205, 206, 207, 208, 209, 210, 211, 212, 213, 214, 215, 216, 217, 218, 219, 220, 221, 222, 223, 224, 225, 226, 227, 228, 229, 230, 231, 232, 233, 234, 235, 236, 237, 238, 239, 240, 241, 242, 243, 244, 245, 246, 247, 248, 249, 250, 251, 252, 253, 254, 255, 256, 257, 258, 259, 260, 261, 262, 263, 264, 265, 266, 267, 268, 269, 270, 271, 272, 273, 274, 275, 276, 277, 278, 279, 280, 281, 282, 283, 284, 285, 286, 287, 288, 289, 290, 291, 292, 293, 294, 295, 296, 297, 298, 299, 300, 301, 302, 303, 304, 305, 306, 307, 308, 309, 310, 311, 312, 313, 314, 315, 316, 317, 318, 319, 320, 321, 322, 323, 324, 325, 326, 327, 328, 329, 330, 331, 332, 333, 334, 335, 336, 337, 338, 339, 340, 341, 342, 343, 344, 345, 346, 347, 348, 349, 350, 351, 352, 353, 354, 355, 356, 357, 358, 359, 360, 361, 362, 363, 364, 365, 366, 367, 368, 369, 370, 371, 372, 373, 374, 375, 376, 377, 378, 379, 380, 381, 382, 383, 384, 385, 386, 387, 388, 389, 390, 391, 392, 393, 394, 395, 396, 397, 398, 399, 400, 401, 402, 403, 404, 405, 406, 407, 408, 409, 410, 411, 412, 413, 414, 415, 416, 417, 418, 419, 420, 421, 422, 423, 424, 425, 426, 427, 428, 429, 430, 431, 432, 433, 434, 435, 436, 437, 438, 439, 440, 441, 442, 443, 444, 445, 446, 447, 448, 449, 450, 451, 452, 453, 454, 455, 456, 457, 458, 459, 460, 461, 462, 463, 464, 465, 466, 467, 468, 469, 470],
      "AcquisitionTime": ["181731.955000", "181733.445000", "181734.935000", "181736.425000", "181737.915000", "181739.405000", "181740.895000", "181742.385000", "181743.875000", "181745.365000", "181746.855000", "181748.345000", "181749.835000", "181751.325000", "181752.815000", "181754.305000", "181755.795000", "181757.285000", "181758.775000", "181800.265000", "181801.755000", "181803.245000", "181804.735000", "181806.225000", "181807.715000", "181809.205000", "181810.695000", "181812.185000", "181813.675000", "181815.165000", "181816.655000", "181818.145000", "181819.635000", "181821.125000", "181822.615000", "181824.105000", "181825.595000", "181827.085000", "181828.575000", "181830.065000", "181831.555000", "181833.045000", "181834.535000", "181836.025000", "181837.515000", "181839.005000", "181840.495000", "181841.985000", "181843.475000", "181844.965000", "181846.455000", "181847.945000", "181849.435000", "181850.925000", "181852.415000", "181853.905000", "181855.395000", "181856.885000", "181858.375000", "181859.865000", "181901.355000", "181902.845000", "181904.335000", "181905.825000", "181907.315000", "181908.805000", "181910.295000", "181911.785000", "181913.275000", "181914.765000", "181916.255000", "181917.745000", "181919.235000", "181920.725000", "181922.215000", "181923.705000", "181925.195000", "181926.685000", "181928.175000", "181929.665000", "181931.155000", "181932.645000", "181934.135000", "181935.625000", "181937.115000", "181938.605000", "181940.095000", "181941.585000", "181943.075000", "181944.565000", "181946.055000", "181947.545000", "181949.035000", "181950.525000", "181952.015000", "181953.505000", "181954.995000", "181956.485000", "181957.975000", "181959.465000", "182000.955000", "182002.445000", "182003.935000", "182005.425000", "182006.915000", "182008.405000", "182009.895000", "182011.385000", "182012.875000", "182014.365000", "182015.855000", "182017.345000", "182018.835000", "182020.325000", "182021.815000", "182023.305000", "182024.795000", "182026.285000", "182027.775000", "182029.265000", "182030.755000", "182032.245000", "182033.735000", "182035.225000", "182036.715000", "182038.205000", "182039.695000", "182041.185000", "182042.675000", "182044.165000", "182045.655000", "182047.145000", "182048.635000", "182050.125000", "182051.615000", "182053.105000", "182054.595000", "182056.085000", "182057.575000", "182059.065000", "182100.555000", "182102.045000", "182103.535000", "182105.025000", "182106.515000", "182108.005000", "182109.495000", "182110.985000", "182112.475000", "182113.965000", "182115.455000", "182116.945000", "182118.435000", "182119.925000", "182121.415000", "182122.905000", "182124.395000", "182125.885000", "182127.375000", "182128.865000", "182130.355000", "182131.845000", "182133.335000", "182134.825000", "182136.315000", "182137.805000", "182139.295000", "182140.785000", "182142.275000", "182143.765000", "182145.255000", "182146.745000", "182148.235000", "182149.725000", "182151.215000", "182152.705000", "182154.195000", "182155.685000", "182157.175000", "182158.665000", "182200.155000", "182201.645000", "182203.135000", "182204.625000", "182206.115000", "182207.605000", "182209.095000", "182210.585000", "182212.075000", "182213.565000", "182215.055000", "182216.545000", "182218.035000", "182219.525000", "182221.015000", "182222.505000", "182223.995000", "182225.485000", "182226.975000", "182228.465000", "182229.955000", "182231.445000", "182232.935000", "182234.425000", "182235.915000", "182237.405000", "182238.895000", "182240.385000", "182241.875000", "182243.365000", "182244.855000", "182246.345000", "182247.835000", "182249.325000", "182250.815000", "182252.305000", "182253.795000", "182255.285000", "182256.775000", "182258.265000", "182259.755000", "182301.245000", "182302.735000", "182304.225000", "182305.715000", "182307.205000", "182308.695000", "182310.185000", "182311.675000", "182313.165000", "182314.655000", "182316.145000", "182317.635000", "182319.125000", "182320.615000", "182322.105000", "182323.595000", "182325.085000", "182326.575000", "182328.065000", "182329.555000", "182331.045000", "182332.535000", "182334.025000", "182335.515000", "182337.005000", "182338.495000", "182339.985000", "182341.475000", "182342.965000", "182344.455000", "182345.945000", "182347.435000", "182348.925000", "182350.415000", "182351.905000", "182353.395000", "182354.885000", "182356.375000", "182357.865000", "182359.355000", "182400.845000", "182402.335000", "182403.825000", "182405.315000", "182406.805000", "182408.295000", "182409.785000", "182411.275000", "182412.765000", "182414.255000", "182415.745000", "182417.235000", "182418.725000", "182420.215000", "182421.705000", "182423.195000", "182424.685000", "182426.175000", "182427.665000", "182429.155000", "182430.645000", "182432.135000", "182433.625000", "182435.115000", "182436.605000", "182438.095000", "182439.585000", "182441.075000", "182442.565000", "182444.055000", "182445.545000", "182447.035000", "182448.525000", "182450.015000", "182451.505000", "182452.995000", "182454.485000", "182455.975000", "182457.465000", "182458.955000", "182500.445000", "182501.935000", "182503.425000", "182504.915000", "182506.405000", "182507.895000", "182509.385000", "182510.875000", "182512.365000", "182513.855000", "182515.345000", "182516.835000", "182518.325000", "182519.815000", "182521.305000", "182522.795000", "182524.285000", "182525.775000", "182527.265000", "182528.755000", "182530.245000", "182531.735000", "182533.225000", "182534.715000", "182536.205000", "182537.695000", "182539.185000", "182540.675000", "182542.165000", "182543.655000", "182545.145000", "182546.635000", "182548.125000", "182549.615000", "182551.105000", "182552.595000", "182554.085000", "182555.575000", "182557.065000", "182558.555000", "182600.045000", "182601.535000", "182603.025000", "182604.515000", "182606.005000", "182607.495000", "182608.985000", "182610.475000", "182611.965000", "182613.455000", "182614.945000", "182616.435000", "182617.925000", "182619.415000", "182620.905000", "182622.395000", "182623.885000", "182625.375000", "182626.865000", "182628.355000", "182629.845000", "182631.335000", "182632.825000", "182634.315000", "182635.805000", "182637.295000", "182638.785000", "182640.275000", "182641.765000", "182643.255000", "182644.745000", "182646.235000", "182647.725000", "182649.215000", "182650.705000", "182652.195000", "182653.685000", "182655.175000", "182656.665000", "182658.155000", "182659.645000", "182701.135000", "182702.625000", "182704.115000", "182705.605000", "182707.095000", "182708.585000", "182710.075000", "182711.565000", "182713.055000", "182714.545000", "182716.035000", "182717.525000", "182719.015000", "182720.505000", "182721.995000", "182723.485000", "182724.975000", "182726.465000", "182727.955000", "182729.445000", "182730.935000", "182732.425000", "182733.915000", "182735.405000", "182736.895000", "182738.385000", "182739.875000", "182741.365000", "182742.855000", "182744.345000", "182745.835000", "182747.325000", "182748.815000", "182750.305000", "182751.795000", "182753.285000", "182754.775000", "182756.265000", "182757.755000", "182759.245000", "182800.735000", "182802.225000", "182803.715000", "182805.205000", "182806.695000", "182808.185000", "182809.675000", "182811.165000", "182812.655000", "182814.145000", "182815.635000", "182817.125000", "182818.615000", "182820.105000", "182821.595000", "182823.085000", "182824.575000", "182826.065000", "182827.555000", "182829.045000", "182830.535000", "182832.025000", "182833.515000", "182835.005000", "182836.495000", "182837.985000", "182839.475000", "182840.965000", "182842.455000", "182843.945000", "182845.435000", "182846.925000", "182848.415000", "182849.905000", "182851.395000", "182852.885000", "182854.375000", "182855.865000", "182857.355000", "182858.845000", "182900.335000", "182901.825000", "182903.315000", "182904.805000", "182906.295000", "182907.785000", "182909.275000", "182910.765000"],
      "ContentTime": ["181847.827000", "181847.830000", "181847.832000", "181847.835000", "181847.837000", "181847.840000", "181847.842000", "181847.845000", "181847.847000", "181847.850000", "181847.853000", "181847.855000", "181847.858000", "181847.860000", "181847.863000", "181847.865000", "181847.868000", "181847.870000", "181847.873000", "181847.876000", "181847.878000", "181907.790000", "181907.793000", "181907.795000", "181907.805000", "181907.807000", "181907.810000", "181907.812000", "181907.815000", "181907.818000", "181907.820000", "181907.823000", "181907.825000", "181907.828000", "181907.830000", "181907.833000", "181907.836000", "181907.838000", "181907.841000", "181907.843000", "181907.846000", "181927.807000", "181927.810000", "181927.812000", "181927.815000", "181927.818000", "181927.821000", "181927.823000", "181927.826000", "181927.829000", "181927.831000", "181927.834000", "181927.837000", "181927.848000", "181927.851000", "181927.854000", "181927.856000", "181927.859000", "181927.861000", "181927.864000", "181927.867000", "181927.869000", "181947.806000", "181947.808000", "181947.811000", "181947.814000", "181947.816000", "181947.819000", "181947.822000", "181947.824000", "181947.827000", "181947.829000", "181947.832000", "181947.834000", "181947.837000", "181947.839000", "181947.842000", "181947.844000", "181947.847000", "181947.849000", "181947.852000", "181947.855000", "182007.782000", "182007.785000", "182007.787000", "182007.790000", "182007.792000", "182007.795000", "182007.798000", "182007.800000", "182007.803000", "182007.805000", "182007.808000", "182007.811000", "182007.813000", "182007.816000", "182007.818000", "182007.821000", "182007.823000", "182007.826000", "182007.829000", "182007.831000", "182047.830000", "182047.832000", "182047.835000", "182047.837000", "182047.840000", "182047.843000", "182047.845000", "182047.848000", "182047.850000", "182047.853000", "182047.855000", "182047.858000", "182047.860000", "182047.863000", "182047.865000", "182047.868000", "182047.870000", "182047.873000", "182047.875000", "182047.878000", "182047.880000", "182047.883000", "182047.886000", "182047.888000", "182047.891000", "182047.893000", "182047.896000", "182047.898000", "182047.901000", "182127.814000", "182127.817000", "182127.820000", "182127.822000", "182127.825000", "182127.827000", "182127.830000", "182127.832000", "182127.835000", "182127.837000", "182127.840000", "182127.842000", "182127.845000", "182127.847000", "182127.850000", "182127.852000", "182127.855000", "182127.857000", "182127.860000", "182127.863000", "182127.865000", "182127.868000", "182127.870000", "182127.873000", "182127.875000", "182127.878000", "182127.881000", "182207.840000", "182207.842000", "182207.845000", "182207.848000", "182207.850000", "182207.853000", "182207.855000", "182207.858000", "182207.860000", "182207.863000", "182207.865000", "182207.868000", "182207.870000", "182207.873000", "182207.875000", "182207.878000", "182207.880000", "182207.883000", "182207.886000", "182207.888000", "182207.891000", "182207.893000", "182207.896000", "182207.898000", "182207.901000", "182207.903000", "182247.819000", "182247.821000", "182247.824000", "182247.826000", "182247.829000", "182247.831000", "182247.834000", "182247.837000", "182247.840000", "182247.843000", "182247.846000", "182247.848000", "182247.851000", "182247.853000", "182247.856000", "182247.858000", "182247.861000", "182247.863000", "182247.866000", "182247.869000", "182247.871000", "182247.874000", "182247.876000", "182247.879000", "182247.881000", "182247.884000", "182247.886000", "182327.821000", "182327.823000", "182327.826000", "182327.828000", "182327.831000", "182327.834000", "182327.836000", "182327.839000", "182327.841000", "182327.844000", "182327.846000", "182327.849000", "182327.851000", "182327.854000", "182327.856000", "182327.859000", "182327.861000", "182327.864000", "182327.867000", "182327.869000", "182327.872000", "182327.874000", "182327.877000", "182327.879000", "182327.882000", "182327.884000", "182327.887000", "182408.217000", "182408.220000", "182408.223000", "182408.225000", "182408.228000", "182408.230000", "182408.233000", "182408.235000", "182408.238000", "182408.240000", "182408.243000", "182408.245000", "182408.248000", "182408.250000", "182408.253000", "182408.256000", "182408.258000", "182408.261000", "182408.263000", "182408.266000", "182408.268000", "182408.271000", "182408.273000", "182408.276000", "182408.278000", "182408.281000", "182408.283000", "182447.820000", "182447.823000", "182447.825000", "182447.828000", "182447.830000", "182447.833000", "182447.836000", "182447.838000", "182447.841000", "182447.843000", "182447.846000", "182447.849000", "182447.851000", "182447.854000", "182447.856000", "182447.859000", "182447.861000", "182447.864000", "182447.866000", "182447.869000", "182447.871000", "182447.874000", "182447.876000", "182447.879000", "182447.881000", "182447.884000", "182447.887000", "182527.822000", "182527.825000", "182527.827000", "182527.830000", "182527.832000", "182527.835000", "182527.837000", "182527.840000", "182527.843000", "182527.845000", "182527.848000", "182527.850000", "182527.853000", "182527.855000", "182527.858000", "182527.860000", "182527.863000", "182527.865000", "182527.868000", "182527.870000", "182527.873000", "182527.875000", "182527.878000", "182527.881000", "182527.883000", "182527.886000", "182527.889000", "182607.813000", "182607.815000", "182607.818000", "182607.821000", "182607.823000", "182607.826000", "182607.829000", "182607.831000", "182607.834000", "182607.836000", "182607.839000", "182607.842000", "182607.844000", "182607.847000", "182607.849000", "182607.852000", "182607.855000", "182607.857000", "182607.860000", "182607.862000", "182607.865000", "182607.867000", "182607.870000", "182607.873000", "182607.875000", "182607.878000", "182607.880000", "182647.803000", "182647.806000", "182647.808000", "182647.811000", "182647.814000", "182647.816000", "182647.819000", "182647.821000", "182647.824000", "182647.826000", "182647.829000", "182647.831000", "182647.834000", "182647.837000", "182647.839000", "182647.842000", "182647.844000", "182647.847000", "182647.849000", "182647.852000", "182647.855000", "182647.859000", "182647.862000", "182647.864000", "182647.867000", "182647.870000", "182727.817000", "182727.820000", "182727.822000", "182727.825000", "182727.827000", "182727.830000", "182727.832000", "182727.835000", "182727.838000", "182727.840000", "182727.843000", "182727.845000", "182727.848000", "182727.851000", "182727.853000", "182727.856000", "182727.858000", "182727.861000", "182727.863000", "182727.866000", "182727.868000", "182727.871000", "182727.873000", "182727.876000", "182727.879000", "182727.881000", "182727.884000", "182807.831000", "182807.833000", "182807.836000", "182807.839000", "182807.841000", "182807.844000", "182807.846000", "182807.849000", "182807.851000", "182807.854000", "182807.856000", "182807.859000", "182807.862000", "182807.864000", "182807.867000", "182807.869000", "182807.872000", "182807.874000", "182807.877000", "182807.879000", "182807.882000", "182807.884000", "182807.887000", "182807.890000", "182807.892000", "182807.895000", "182807.897000", "182847.811000", "182847.814000", "182847.817000", "182847.819000", "182847.822000", "182847.825000", "182847.827000", "182847.830000", "182847.832000", "182847.835000", "182847.838000", "182847.840000", "182847.843000", "182847.845000", "182847.848000", "182847.851000", "182847.853000", "182847.856000", "182847.858000", "182847.861000", "182847.864000", "182847.866000", "182847.869000", "182847.871000", "182847.874000", "182847.877000", "182847.879000", "182912.989000", "182912.992000", "182912.995000", "182912.997000", "182913.001000", "182913.008000", "182913.011000", "182913.013000", "182913.016000", "182913.019000", "182913.021000", "182913.024000", "182913.026000", "182913.029000", "182913.032000", "182913.034000", "182913.037000"],
