{
  "AcquisitionMatrixPE": 104,
  "AcquisitionNumber": 1,
  "AcquisitionTime": "14:53:10.415000",
  "BandwidthPerPixelPhaseEncode": 17.17,
  "BaseResolution": 104,
  "BodyPartExamined": "BRAIN",
  "CoilString": "HC1-7;NC1_2",
  "ConsistencyInfo": "N4_VE11C_LATEST_20160120",
  "ConversionSoftware": "dcm2niix",
  "ConversionSoftwareVersion": "v1.0.20190902",
  "DerivedVendorReportedEchoSpacing": 0.000560011,
  "DeviceSerialNumber": "167006",
  "DwellTime": 2.1e-06,
  "EchoTime": 0.037,
  "EchoTrainLength": 104,
  "EffectiveEchoSpacing": 0.000560011,
  "FlipAngle": 52,
  "HeudiconvVersion": "0.10.0",
  "ImageComments": "Unaliased_MB4_PE3_LB",
  "ImageOrientationPatientDICOM": [0.999731, 0.0124996, 0.0195385, -0.000174487, 0.846399, -0.532549],
  "ImageType": [
    "ORIGINAL",
    "PRIMARY",
    "M",
    "MB",
    "ND",
    "MOSAIC"
],
  "ImagingFrequency": 123.259,
  "InPlanePhaseEncodingDirectionDICOM": "COL",
  "InstitutionAddress": "Chemin_Queen-Mary_4565_Montreal_District_CA_H3W_1W5",
  "InstitutionName": "IUGM",
  "InstitutionalDepartmentName": "Department",
  "MRAcquisitionType": "2D",
  "MagneticFieldStrength": 3,
  "Manufacturer": "Siemens",
  "ManufacturersModelName": "Prisma_fit",
  "Modality": "MR",
  "MultibandAccelerationFactor": 4,
  "PartialFourier": 1,
  "PatientPosition": "HFS",
  "PercentPhaseFOV": 100,
  "PhaseEncodingDirection": "j",
  "PhaseEncodingSteps": 104,
  "PhaseResolution": 1,
  "PixelBandwidth": 2290,
  "ProcedureStepDescription": "games_mario",
  "ProtocolName": "func_task-mario_run-04",
  "PulseSequenceDetails": "%CustomerSeq%_cmrr_mbep2d_bold",
  "ReceiveCoilActiveElements": "HC1-7;NC1,2",
  "ReceiveCoilName": "HeadNeck_64",
  "ReconMatrixPE": 104,
  "RepetitionTime": 1.49,
  "SAR": 0.0434446,
  "ScanOptions": "FS",
  "ScanningSequence": "EP",
  "SequenceName": "epfid2d1_104",
  "SequenceVariant": "SK_SS",
  "SeriesDescription": "func_task-mario_run-04",
  "SeriesNumber": 25,
  "ShimSetting": [615, -7183, -8866, 250, 3, -153, -21, -12],
  "SliceThickness": 2,
  "SliceTiming": [0, 0.785, 0.0975, 0.8825, 0.195, 0.98, 0.295, 1.0775, 0.3925, 1.175, 0.49, 1.275, 0.5875, 1.3725, 0.685, 0, 0.785, 0.0975, 0.8825, 0.195, 0.98, 0.295, 1.0775, 0.3925, 1.175, 0.49, 1.275, 0.5875, 1.3725, 0.685, 0, 0.785, 0.0975, 0.8825, 0.195, 0.98, 0.295, 1.0775, 0.3925, 1.175, 0.49, 1.275, 0.5875, 1.3725, 0.685, 0, 0.785, 0.0975, 0.8825, 0.195, 0.98, 0.295, 1.0775, 0.3925, 1.175, 0.49, 1.275, 0.5875, 1.3725, 0.685],
  "SoftwareVersions": "syngo_MR_E11",
  "SpacingBetweenSlices": 2,
  "StationName": "MRC35049",
  "TaskName": "mario",
  "TotalReadoutTime": 0.0576811,
  "TxRefAmp": 255.066,
  "WipMemBlock": "70e5bdf8-6105-4bab-844c-f19f9671a035||Sequence: R016 ve11c/master r/e634e98; Dec 19 2017 11:00:25 by eja",
  "dcmmeta_affine": [
    [-1.9994618892669678, -0.00034897480509243906, 0.04638808220624924, 105.77477264404297],
    [-0.024999219924211502, 1.692798376083374, -1.0648046731948853, -47.721710205078125],
    [0.0390770398080349, 1.0650980472564697, 1.6923472881317139, -93.13616943359375],
    [0.0, 0.0, 0.0, 1.0]
],
  "dcmmeta_reorient_transform": [
    [0.0, -1.0, 0.0, 103.0],
    [1.0, 0.0, 0.0, 0.0],
    [0.0, 0.0, 1.0, 0.0],
    [0.0, 0.0, 0.0, 1.0]
],
  "dcmmeta_shape": [104, 104, 60, 453],
  "dcmmeta_slice_dim": 2,
  "dcmmeta_version": 0.6,
  "global": {
    "const": {
      "AcquisitionMatrix": [104, 0, 0, 104],
      "AngioFlag": "N",
      "BitsAllocated": 16,
      "BitsStored": 16,
      "BodyPartExamined": "BRAIN",
      "Columns": 832,
      "EchoNumbers": 1,
      "EchoTime": 37.0,
      "EchoTrainLength": 104,
      "FlipAngle": 52.0,
      "HighBit": 15,
      "ImageOrientationPatient": [0.99973096680258, 0.01249961025554, 0.01953851988868, -0.000174487407, 0.84639915916147, -0.5325489957975],
      "ImagePositionPatient": [-833.41594886211, -751.9148189406, 390.04055152741],
      "ImageType": [
        "ORIGINAL",
        "PRIMARY",
        "M",
        "MB",
        "ND",
        "MOSAIC"
],
      "ImagedNucleus": "1H",
      "ImagingFrequency": 123.25891,
      "InPlanePhaseEncodingDirection": "COL",
      "MRAcquisitionType": "2D",
      "MagneticFieldStrength": 3.0,
      "Manufacturer": "SIEMENS",
      "ManufacturerModelName": "Prisma_fit",
      "Modality": "MR",
      "NumberOfAverages": 1.0,
      "NumberOfPhaseEncodingSteps": 104,
      "PercentPhaseFieldOfView": 100.0,
      "PercentSampling": 100.0,
      "PerformedProcedureStepStartTime": "133116.621000",
      "PhotometricInterpretation": "MONOCHROME2",
      "PixelBandwidth": 2290.0,
      "PixelRepresentation": 0,
      "PixelSpacing": [2.0, 2.0],
      "ProtocolName": "func_task-mario_run-04",
      "RepetitionTime": 1490.0,
      "Rows": 832,
      "SAR": 0.04344464347661,
      "SamplesPerPixel": 1,
      "ScanOptions": "FS",
      "ScanningSequence": "EP",
      "SequenceName": "epfid2d1_104",
      "SequenceVariant": [
        "SK",
        "SS"
],
      "SeriesDescription": "func_task-mario_run-04",
      "SeriesNumber": 25,
      "SeriesTime": "145434.621000",
      "SliceLocation": -50.948875064487,
      "SliceThickness": 2.0,
      "SmallestImagePixelValue": 0,
      "SoftwareVersions": "syngo MR E11",
      "SpacingBetweenSlices": 1.9999999923366,
      "SpecificCharacterSet": "ISO_IR 100",
      "StudyID": "1",
      "StudyTime": "133116.494000",
      "TransmitCoilName": "Body",
      "VariableFlipAngleFlag": "N",
      "WindowCenterWidthExplanation": "Algo1",
      "dBdt": 0.0},
    "slices": {}
  },
  "time": {
    "samples": {
      "AcquisitionNumber": [1, 2, 3, 4, 5, 6, 7, 8, 9, 10, 11, 12, 13, 14, 15, 16, 17, 18, 19, 20, 21, 22, 23, 24, 25, 26, 27, 28, 29, 30, 31, 32, 33, 34, 35, 36, 37, 38, 39, 40, 41, 42, 43, 44, 45, 46, 47, 48, 49, 50, 51, 52, 53, 54, 55, 56, 57, 58, 59, 60, 61, 62, 63, 64, 65, 66, 67, 68, 69, 70, 71, 72, 73, 74, 75, 76, 77, 78, 79, 80, 81, 82, 83, 84, 85, 86, 87, 88, 89, 90, 91, 92, 93, 94, 95, 96, 97, 98, 99, 100, 101, 102, 103, 104, 105, 106, 107, 108, 109, 110, 111, 112, 113, 114, 115, 116, 117, 118, 119, 120, 121, 122, 123, 124, 125, 126, 127, 128, 129, 130, 131, 132, 133, 134, 135, 136, 137, 138, 139, 140, 141, 142, 143, 144, 145, 146, 147, 148, 149, 150, 151, 152, 153, 154, 155, 156, 157, 158, 159, 160, 161, 162, 163, 164, 165, 166, 167, 168, 169, 170, 171, 172, 173, 174, 175, 176, 177, 178, 179, 180, 181, 182, 183, 184, 185, 186, 187, 188, 189, 190, 191, 192, 193, 194, 195, 196, 197, 198, 199, 200, 201, 202, 203, 204, 205, 206, 207, 208, 209, 210, 211, 212, 213, 214, 215, 216, 217, 218, 219, 220, 221, 222, 223, 224, 225, 226, 227, 228, 229, 230, 231, 232, 233, 234, 235, 236, 237, 238, 239, 240, 241, 242, 243, 244, 245, 246, 247, 248, 249, 250, 251, 252, 253, 254, 255, 256, 257, 258, 259, 260, 261, 262, 263, 264, 265, 266, 267, 268, 269, 270, 271, 272, 273, 274, 275, 276, 277, 278, 279, 280, 281, 282, 283, 284, 285, 286, 287, 288, 289, 290, 291, 292, 293, 294, 295, 296, 297, 298, 299, 300, 301, 302, 303, 304, 305, 306, 307, 308, 309, 310, 311, 312, 313, 314, 315, 316, 317, 318, 319, 320, 321, 322, 323, 324, 325, 326, 327, 328, 329, 330, 331, 332, 333, 334, 335, 336, 337, 338, 339, 340, 341, 342, 343, 344, 345, 346, 347, 348, 349, 350, 351, 352, 353, 354, 355, 356, 357, 358, 359, 360, 361, 362, 363, 364, 365, 366, 367, 368, 369, 370, 371, 372, 373, 374, 375, 376, 377, 378, 379, 380, 381, 382, 383, 384, 385, 386, 387, 388, 389, 390, 391, 392, 393, 394, 395, 396, 397, 398, 399, 400, 401, 402, 403, 404, 405, 406, 407, 408, 409, 410, 411, 412, 413, 414, 415, 416, 417, 418, 419, 420, 421, 422, 423, 424, 425, 426, 427, 428, 429, 430, 431, 432, 433, 434, 435, 436, 437, 438, 439, 440, 441, 442, 443, 444, 445, 446, 447, 448, 449, 450, 451, 452, 453],
      "AcquisitionTime": ["145310.415000", "145311.905000", "145313.395000", "145314.885000", "145316.375000", "145317.865000", "145319.355000", "145320.845000", "145322.335000", "145323.825000", "145325.315000", "145326.805000", "145328.295000", "145329.785000", "145331.275000", "145332.765000", "145334.255000", "145335.745000", "145337.235000", "145338.725000", "145340.215000", "145341.705000", "145343.195000", "145344.685000", "145346.175000", "145347.665000", "145349.155000", "145350.645000", "145352.135000", "145353.625000", "145355.115000", "145356.605000", "145358.095000", "145359.585000", "145401.075000", "145402.565000", "145404.055000", "145405.545000", "145407.035000", "145408.525000", "145410.015000", "145411.505000", "145412.995000", "145414.485000", "145415.975000", "145417.465000", "145418.955000", "145420.445000", "145421.935000", "145423.425000", "145424.915000", "145426.405000", "145427.895000", "145429.385000", "145430.875000", "145432.365000", "145433.855000", "145435.345000", "145436.835000", "145438.325000", "145439.815000", "145441.305000", "145442.795000", "145444.285000", "145445.775000", "145447.265000", "145448.755000", "145450.245000", "145451.735000", "145453.225000", "145454.715000", "145456.205000", "145457.695000", "145459.185000", "145500.675000", "145502.165000", "145503.655000", "145505.145000", "145506.635000", "145508.125000", "145509.615000", "145511.105000", "145512.595000", "145514.085000", "145515.575000", "145517.065000", "145518.555000", "145520.045000", "145521.535000", "145523.025000", "145524.515000", "145526.005000", "145527.495000", "145528.985000", "145530.475000", "145531.965000", "145533.455000", "145534.945000", "145536.435000", "145537.925000", "145539.415000", "145540.905000", "145542.395000", "145543.885000", "145545.375000", "145546.865000", "145548.355000", "145549.845000", "145551.335000", "145552.825000", "145554.315000", "145555.805000", "145557.295000", "145558.785000", "145600.275000", "145601.765000", "145603.255000", "145604.745000", "145606.235000", "145607.725000", "145609.215000", "145610.705000", "145612.195000", "145613.685000", "145615.175000", "145616.665000", "145618.155000", "145619.645000", "145621.135000", "145622.625000", "145624.115000", "145625.605000", "145627.095000", "145628.585000", "145630.075000", "145631.565000", "145633.055000", "145634.545000", "145636.035000", "145637.525000", "145639.015000", "145640.505000", "145641.995000", "145643.485000", "145644.975000", "145646.465000", "145647.955000", "145649.445000", "145650.935000", "145652.425000", "145653.915000", "145655.405000", "145656.895000", "145658.385000", "145659.875000", "145701.365000", "145702.855000", "145704.345000", "145705.835000", "145707.325000", "145708.815000", "145710.305000", "145711.795000", "145713.285000", "145714.775000", "145716.265000", "145717.755000", "145719.245000", "145720.735000", "145722.225000", "145723.715000", "145725.205000", "145726.695000", "145728.185000", "145729.675000", "145731.165000", "145732.655000", "145734.145000", "145735.635000", "145737.125000", "145738.615000", "145740.105000", "145741.595000", "145743.085000", "145744.575000", "145746.065000", "145747.555000", "145749.045000", "145750.535000", "145752.025000", "145753.515000", "145755.005000", "145756.495000", "145757.985000", "145759.475000", "145800.965000", "145802.455000", "145803.945000", "145805.435000", "145806.925000", "145808.415000", "145809.905000", "145811.395000", "145812.885000", "145814.375000", "145815.865000", "145817.355000", "145818.845000", "145820.335000", "145821.825000", "145823.315000", "145824.805000", "145826.295000", "145827.785000", "145829.275000", "145830.765000", "145832.255000", "145833.745000", "145835.235000", "145836.725000", "145838.215000", "145839.705000", "145841.195000", "145842.685000", "145844.175000", "145845.665000", "145847.155000", "145848.645000", "145850.135000", "145851.625000", "145853.115000", "145854.605000", "145856.095000", "145857.585000", "145859.075000", "145900.565000", "145902.055000", "145903.545000", "145905.035000", "145906.525000", "145908.015000", "145909.505000", "145910.995000", "145912.485000", "145913.975000", "145915.465000", "145916.955000", "145918.445000", "145919.935000", "145921.425000", "145922.915000", "145924.405000", "145925.895000", "145927.385000", "145928.875000", "145930.365000", "145931.855000", "145933.345000", "145934.835000", "145936.325000", "145937.815000", "145939.305000", "145940.795000", "145942.285000", "145943.775000", "145945.265000", "145946.755000", "145948.245000", "145949.735000", "145951.225000", "145952.715000", "145954.205000", "145955.695000", "145957.185000", "145958.675000", "150000.165000", "150001.655000", "150003.145000", "150004.635000", "150006.125000", "150007.615000", "150009.105000", "150010.595000", "150012.085000", "150013.575000", "150015.065000", "150016.555000", "150018.045000", "150019.535000", "150021.025000", "150022.515000", "150024.005000", "150025.495000", "150026.985000", "150028.475000", "150029.965000", "150031.455000", "150032.945000", "150034.435000", "150035.925000", "150037.415000", "150038.905000", "150040.395000", "150041.885000", "150043.375000", "150044.865000", "150046.355000", "150047.845000", "150049.335000", "150050.825000", "150052.315000", "150053.805000", "150055.295000", "150056.785000", "150058.275000", "150059.765000", "150101.255000", "150102.745000", "150104.235000", "150105.725000", "150107.215000", "150108.705000", "150110.195000", "150111.685000", "150113.175000", "150114.665000", "150116.155000", "150117.645000", "150119.135000", "150120.625000", "150122.115000", "150123.605000", "150125.095000", "150126.585000", "150128.075000", "150129.565000", "150131.055000", "150132.545000", "150134.035000", "150135.525000", "150137.015000", "150138.505000", "150139.995000", "150141.485000", "150142.975000", "150144.465000", "150145.955000", "150147.445000", "150148.935000", "150150.425000", "150151.915000", "150153.405000", "150154.895000", "150156.385000", "150157.875000", "150159.365000", "150200.855000", "150202.345000", "150203.835000", "150205.325000", "150206.815000", "150208.305000", "150209.795000", "150211.285000", "150212.775000", "150214.265000", "150215.755000", "150217.245000", "150218.735000", "150220.225000", "150221.715000", "150223.205000", "150224.695000", "150226.185000", "150227.675000", "150229.165000", "150230.655000", "150232.145000", "150233.635000", "150235.125000", "150236.615000", "150238.105000", "150239.595000", "150241.085000", "150242.575000", "150244.065000", "150245.555000", "150247.045000", "150248.535000", "150250.025000", "150251.515000", "150253.005000", "150254.495000", "150255.985000", "150257.475000", "150258.965000", "150300.455000", "150301.945000", "150303.435000", "150304.925000", "150306.415000", "150307.905000", "150309.395000", "150310.885000", "150312.375000", "150313.865000", "150315.355000", "150316.845000", "150318.335000", "150319.825000", "150321.315000", "150322.805000", "150324.295000", "150325.785000", "150327.275000", "150328.765000", "150330.255000", "150331.745000", "150333.235000", "150334.725000", "150336.215000", "150337.705000", "150339.195000", "150340.685000", "150342.175000", "150343.665000", "150345.155000", "150346.645000", "150348.135000", "150349.625000", "150351.115000", "150352.605000", "150354.095000", "150355.585000", "150357.075000", "150358.565000", "150400.055000", "150401.545000", "150403.035000", "150404.525000", "150406.015000", "150407.505000", "150408.995000", "150410.485000", "150411.975000", "150413.465000", "150414.955000", "150416.445000", "150417.935000", "150419.425000", "150420.915000", "150422.405000", "150423.895000"],
      "ContentTime": ["145434.625000", "145434.629000", "145434.632000", "145434.636000", "145434.639000", "145434.642000", "145434.646000", "145434.649000", "145434.652000", "145434.656000", "145434.659000", "145434.662000", "145434.666000", "145434.669000", "145434.672000", "145434.675000", "145434.679000", "145434.682000", "145434.685000", "145434.689000", "145434.700000", "145434.703000", "145434.706000", "145434.709000", "145434.723000", "145434.726000", "145434.729000", "145434.733000", "145434.736000", "145434.739000", "145454.586000", "145454.590000", "145454.598000", "145454.610000", "145454.613000", "145454.616000", "145454.620000", "145454.623000", "145454.626000", "145454.629000", "145454.633000", "145454.650000", "145454.653000", "145454.656000", "145454.660000", "145454.663000", "145454.666000", "145454.670000", "145454.673000", "145454.676000", "145514.586000", "145514.590000", "145514.593000", "145514.597000", "145514.600000", "145514.604000", "145514.607000", "145514.610000", "145514.614000", "145514.617000", "145514.629000", "145514.632000", "145514.635000", "145514.639000", "145514.642000", "145514.646000", "145514.649000", "145514.652000", "145514.656000", "145514.659000", "145514.662000", "145534.585000", "145534.606000", "145534.609000", "145534.613000", "145534.616000", "145534.619000", "145534.623000", "145534.626000", "145534.630000", "145534.633000", "145534.636000", "145534.640000", "145534.643000", "145534.646000", "145534.650000", "145534.653000", "145534.657000", "145534.660000", "145534.670000", "145534.673000", "145614.585000", "145614.589000", "145614.592000", "145614.596000", "145614.599000", "145614.602000", "145614.606000", "145614.609000", "145614.613000", "145614.616000", "145614.619000", "145614.623000", "145614.626000", "145614.629000", "145614.633000", "145614.637000", "145614.640000", "145614.644000", "145614.647000", "145614.651000", "145614.656000", "145614.660000", "145614.664000", "145614.667000", "145614.671000", "145614.675000", "145614.678000", "145614.682000", "145614.685000", "145614.689000", "145614.692000", "145614.696000", "145654.586000", "145654.590000", "145654.593000", "145654.597000", "145654.600000", "145654.603000", "145654.607000", "145654.610000", "145654.614000", "145654.617000", "145654.620000", "145654.624000", "145654.627000", "145654.630000", "145654.635000", "145654.638000", "145654.642000", "145654.645000", "145654.648000", "145654.652000", "145654.655000", "145654.659000", "145654.662000", "145654.665000", "145654.669000", "145654.672000", "145734.586000", "145734.590000", "145734.593000", "145734.597000", "145734.600000", "145734.604000", "145734.607000", "145734.610000", "145734.614000", "145734.617000", "145734.620000", "145734.624000", "145734.627000", "145734.630000", "145734.634000", "145734.637000", "145734.640000", "145734.644000", "145734.647000", "145734.651000", "145734.654000", "145734.657000", "145734.661000", "145734.664000", "145734.667000", "145734.671000", "145734.685000", "145814.585000", "145814.589000", "145814.593000", "145814.596000", "145814.599000", "145814.603000", "145814.606000", "145814.609000", "145814.613000", "145814.616000", "145814.620000", "145814.623000", "145814.626000", "145814.630000", "145814.633000", "145814.636000", "145814.640000", "145814.643000", "145814.647000", "145814.650000", "145814.653000", "145814.657000", "145814.661000", "145814.664000", "145814.667000", "145814.671000", "145814.674000", "145854.585000", "145854.589000", "145854.592000", "145854.596000", "145854.599000", "145854.603000", "145854.606000", "145854.609000", "145854.613000", "145854.622000", "145854.625000", "145854.629000", "145854.632000", "145854.635000", "145854.639000", "145854.642000", "145854.645000", "145854.649000", "145854.652000", "145854.656000", "145854.659000", "145854.662000", "145854.666000", "145854.669000", "145854.672000", "145854.676000", "145854.679000", "145934.586000", "145934.590000", "145934.594000", "145934.597000", "145934.600000", "145934.604000", "145934.607000", "145934.611000", "145934.614000", "145934.617000", "145934.621000", "145934.624000", "145934.628000", "145934.631000", "145934.635000", "145934.638000", "145934.641000", "145934.645000", "145934.648000", "145934.651000", "145934.655000", "145934.658000", "145934.662000", "145934.665000", "145934.669000", "145934.672000", "145934.675000", "150014.586000", "150014.589000", "150014.593000", "150014.596000", "150014.600000", "150014.603000", "150014.606000", "150014.610000", "150014.613000", "150014.616000", "150014.635000", "150014.639000", "150014.642000", "150014.646000", "150014.649000", "150014.652000", "150014.656000", "150014.659000", "150014.662000", "150014.666000", "150014.669000", "150014.673000", "150014.676000", "150014.680000", "150014.683000", "150014.686000", "150014.689000", "150054.585000", "150054.589000", "150054.593000", "150054.596000", "150054.600000", "150054.603000", "150054.606000", "150054.610000", "150054.613000", "150054.616000", "150054.620000", "150054.623000", "150054.627000", "150054.630000", "150054.634000", "150054.637000", "150054.640000", "150054.644000", "150054.648000", "150054.651000", "150054.655000", "150054.659000", "150054.662000", "150054.666000", "150054.670000", "150054.674000", "150134.586000", "150134.590000", "150134.593000", "150134.597000", "150134.600000", "150134.604000", "150134.607000", "150134.610000", "150134.614000", "150134.617000", "150134.621000", "150134.624000", "150134.627000", "150134.631000", "150134.634000", "150134.637000", "150134.641000", "150134.654000", "150134.658000", "150134.661000", "150134.664000", "150134.668000", "150134.671000", "150134.674000", "150134.678000", "150134.681000", "150134.685000", "150214.586000", "150214.590000", "150214.593000", "150214.597000", "150214.600000", "150214.604000", "150214.607000", "150214.611000", "150214.614000", "150214.617000", "150214.621000", "150214.624000", "150214.627000", "150214.631000", "150214.634000", "150214.638000", "150214.641000", "150214.644000", "150214.648000", "150214.651000", "150214.654000", "150214.658000", "150214.661000", "150214.664000", "150214.668000", "150214.671000", "150214.675000", "150254.585000", "150254.589000", "150254.594000", "150254.598000", "150254.601000", "150254.605000", "150254.608000", "150254.611000", "150254.614000", "150254.618000", "150254.621000", "150254.630000", "150254.633000", "150254.637000", "150254.640000", "150254.643000", "150254.647000", "150254.650000", "150254.654000", "150254.657000", "150254.660000", "150254.664000", "150254.667000", "150254.670000", "150254.674000", "150254.677000", "150254.680000", "150334.586000", "150334.590000", "150334.599000", "150334.603000", "150334.606000", "150334.609000", "150334.613000", "150334.616000", "150334.620000", "150334.623000", "150334.626000", "150334.630000", "150334.633000", "150334.636000", "150334.640000", "150334.643000", "150334.647000", "150334.650000", "150334.654000", "150334.657000", "150334.660000", "150334.664000", "150334.667000", "150334.670000", "150334.673000", "150334.677000", "150334.680000", "150414.586000", "150414.590000", "150414.594000", "150414.597000", "150414.600000", "150414.604000", "150414.607000", "150414.610000", "150414.613000", "150414.617000", "150414.620000", "150414.623000", "150414.627000", "150414.630000", "150414.633000", "150414.637000", "150414.640000", "150414.643000", "150414.647000", "150414.650000", "150414.653000", "150414.657000", "150414.660000", "150414.663000", "150414.667000", "150414.670000", "150414.673000", "150427.353000", "150427.357000", "150427.360000", "150427.364000", "150427.367000", "150427.370000", "150427.374000", "150427.377000"],
