{
  "AcquisitionMatrixPE": 104,
  "AcquisitionNumber": 1,
  "AcquisitionTime": "14:40:54.327500",
  "BandwidthPerPixelPhaseEncode": 17.17,
  "BaseResolution": 104,
  "BodyPartExamined": "BRAIN",
  "CoilString": "HC1-7;NC1_2",
  "ConsistencyInfo": "N4_VE11C_LATEST_20160120",
  "ConversionSoftware": "dcm2niix",
  "ConversionSoftwareVersion": "v1.0.20190902",
  "DerivedVendorReportedEchoSpacing": 0.000560011,
  "DeviceSerialNumber": "167006",
  "DwellTime": 2.1e-06,
  "EchoTime": 0.037,
  "EchoTrainLength": 104,
  "EffectiveEchoSpacing": 0.000560011,
  "FlipAngle": 52,
  "HeudiconvVersion": "0.10.0",
  "ImageComments": "Unaliased_MB4_PE3_LB",
  "ImageOrientationPatientDICOM": [0.999731, 0.0124996, 0.0195385, -0.000174487, 0.846399, -0.532549],
  "ImageType": [
    "ORIGINAL",
    "PRIMARY",
    "P",
    "MB",
    "ND",
    "MOSAIC"
],
  "ImagingFrequency": 123.259,
  "InPlanePhaseEncodingDirectionDICOM": "COL",
  "InstitutionAddress": "Chemin_Queen-Mary_4565_Montreal_District_CA_H3W_1W5",
  "InstitutionName": "IUGM",
  "InstitutionalDepartmentName": "Department",
  "MRAcquisitionType": "2D",
  "MagneticFieldStrength": 3,
  "Manufacturer": "Siemens",
  "ManufacturersModelName": "Prisma_fit",
  "Modality": "MR",
  "MultibandAccelerationFactor": 4,
  "PartialFourier": 1,
  "PatientPosition": "HFS",
  "PercentPhaseFOV": 100,
  "PhaseEncodingDirection": "j",
  "PhaseEncodingSteps": 104,
  "PhaseResolution": 1,
  "PixelBandwidth": 2290,
  "ProcedureStepDescription": "games_mario",
  "ProtocolName": "func_task-mario_run-03",
  "PulseSequenceDetails": "%CustomerSeq%_cmrr_mbep2d_bold",
  "ReceiveCoilActiveElements": "HC1-7;NC1,2",
  "ReceiveCoilName": "HeadNeck_64",
  "ReconMatrixPE": 104,
  "RepetitionTime": 1.49,
  "SAR": 0.0434446,
  "ScanOptions": "FS",
  "ScanningSequence": "EP",
  "SequenceName": "epfid2d1_104",
  "SequenceVariant": "SK_SS",
  "SeriesDescription": "func_task-mario_run-03",
  "SeriesNumber": 23,
  "ShimSetting": [615, -7183, -8866, 250, 3, -153, -21, -12],
  "SliceThickness": 2,
  "SliceTiming": [0, 0.785, 0.1, 0.8825, 0.1975, 0.98, 0.295, 1.08, 0.3925, 1.1775, 0.49, 1.275, 0.59, 1.3725, 0.6875, 0, 0.785, 0.1, 0.8825, 0.1975, 0.98, 0.295, 1.08, 0.3925, 1.1775, 0.49, 1.275, 0.59, 1.3725, 0.6875, 0, 0.785, 0.1, 0.8825, 0.1975, 0.98, 0.295, 1.08, 0.3925, 1.1775, 0.49, 1.275, 0.59, 1.3725, 0.6875, 0, 0.785, 0.1, 0.8825, 0.1975, 0.98, 0.295, 1.08, 0.3925, 1.1775, 0.49, 1.275, 0.59, 1.3725, 0.6875],
  "SoftwareVersions": "syngo_MR_E11",
  "SpacingBetweenSlices": 2,
  "StationName": "MRC35049",
  "TaskName": "mario",
  "TotalReadoutTime": 0.0576811,
  "TxRefAmp": 255.066,
  "WipMemBlock": "b6375bf3-52d7-4fc7-9bcd-38807d5962e6||Sequence: R016 ve11c/master r/e634e98; Dec 19 2017 11:00:25 by eja",
  "dcmmeta_affine": [
    [-1.9994618892669678, -0.00034897480509243906, 0.04638808220624924, 105.77477264404297],
    [-0.024999219924211502, 1.692798376083374, -1.0648046731948853, -47.721710205078125],
    [0.0390770398080349, 1.0650980472564697, 1.6923472881317139, -93.13616943359375],
    [0.0, 0.0, 0.0, 1.0]
],
  "dcmmeta_reorient_transform": [
    [0.0, -1.0, 0.0, 103.0],
    [1.0, 0.0, 0.0, 0.0],
    [0.0, 0.0, 1.0, 0.0],
    [0.0, 0.0, 0.0, 1.0]
],
  "dcmmeta_shape": [104, 104, 60, 430],
  "dcmmeta_slice_dim": 2,
  "dcmmeta_version": 0.6,
  "global": {
    "const": {
      "AcquisitionMatrix": [104, 0, 0, 104],
      "AngioFlag": "N",
      "BitsAllocated": 16,
      "BitsStored": 16,
      "BodyPartExamined": "BRAIN",
      "Columns": 832,
      "EchoNumbers": 1,
      "EchoTime": 37.0,
      "EchoTrainLength": 104,
      "FlipAngle": 52.0,
      "HighBit": 15,
      "ImageOrientationPatient": [0.99973096680258, 0.01249961025554, 0.01953851988868, -0.000174487407, 0.84639915916147, -0.5325489957975],
      "ImagePositionPatient": [-833.41594886211, -751.9148189406, 390.04055152741],
      "ImageType": [
        "ORIGINAL",
        "PRIMARY",
        "P",
        "MB",
        "ND",
        "MOSAIC"
],
      "ImagedNucleus": "1H",
      "ImagingFrequency": 123.258897,
      "InPlanePhaseEncodingDirection": "COL",
      "LargestImagePixelValue": 4095,
      "MRAcquisitionType": "2D",
      "MagneticFieldStrength": 3.0,
      "Manufacturer": "SIEMENS",
      "ManufacturerModelName": "Prisma_fit",
      "Modality": "MR",
      "NumberOfAverages": 1.0,
      "NumberOfPhaseEncodingSteps": 104,
      "PercentPhaseFieldOfView": 100.0,
      "PercentSampling": 100.0,
      "PerformedProcedureStepStartTime": "133116.621000",
      "PhotometricInterpretation": "MONOCHROME2",
      "PixelBandwidth": 2290.0,
      "PixelRepresentation": 0,
      "PixelSpacing": [2.0, 2.0],
      "ProtocolName": "func_task-mario_run-03",
      "RepetitionTime": 1490.0,
      "RescaleIntercept": -4096.0,
      "RescaleSlope": 2.0,
      "RescaleType": "US",
      "Rows": 832,
      "SAR": 0.04344464347661,
      "SamplesPerPixel": 1,
      "ScanOptions": "FS",
      "ScanningSequence": "EP",
      "SequenceName": "epfid2d1_104",
      "SequenceVariant": [
        "SK",
        "SS"
],
      "SeriesDescription": "func_task-mario_run-03",
      "SeriesNumber": 23,
      "SeriesTime": "144212.590000",
      "SliceLocation": -50.948875064487,
      "SliceThickness": 2.0,
      "SmallestImagePixelValue": 0,
      "SoftwareVersions": "syngo MR E11",
      "SpacingBetweenSlices": 1.9999999923366,
      "SpecificCharacterSet": "ISO_IR 100",
      "StudyID": "1",
      "StudyTime": "133116.494000",
      "TransmitCoilName": "Body",
      "VariableFlipAngleFlag": "N",
      "WindowCenterWidthExplanation": "Algo1",
      "dBdt": 0.0},
    "slices": {}
  },
  "time": {
    "samples": {
      "AcquisitionNumber": [1, 2, 3, 4, 5, 6, 7, 8, 9, 10, 11, 12, 13, 14, 15, 16, 17, 18, 19, 20, 21, 22, 23, 24, 25, 26, 27, 28, 29, 30, 31, 32, 33, 34, 35, 36, 37, 38, 39, 40, 41, 42, 43, 44, 45, 46, 47, 48, 49, 50, 51, 52, 53, 54, 55, 56, 57, 58, 59, 60, 61, 62, 63, 64, 65, 66, 67, 68, 69, 70, 71, 72, 73, 74, 75, 76, 77, 78, 79, 80, 81, 82, 83, 84, 85, 86, 87, 88, 89, 90, 91, 92, 93, 94, 95, 96, 97, 98, 99, 100, 101, 102, 103, 104, 105, 106, 107, 108, 109, 110, 111, 112, 113, 114, 115, 116, 117, 118, 119, 120, 121, 122, 123, 124, 125, 126, 127, 128, 129, 130, 131, 132, 133, 134, 135, 136, 137, 138, 139, 140, 141, 142, 143, 144, 145, 146, 147, 148, 149, 150, 151, 152, 153, 154, 155, 156, 157, 158, 159, 160, 161, 162, 163, 164, 165, 166, 167, 168, 169, 170, 171, 172, 173, 174, 175, 176, 177, 178, 179, 180, 181, 182, 183, 184, 185, 186, 187, 188, 189, 190, 191, 192, 193, 194, 195, 196, 197, 198, 199, 200, 201, 202, 203, 204, 205, 206, 207, 208, 209, 210, 211, 212, 213, 214, 215, 216, 217, 218, 219, 220, 221, 222, 223, 224, 225, 226, 227, 228, 229, 230, 231, 232, 233, 234, 235, 236, 237, 238, 239, 240, 241, 242, 243, 244, 245, 246, 247, 248, 249, 250, 251, 252, 253, 254, 255, 256, 257, 258, 259, 260, 261, 262, 263, 264, 265, 266, 267, 268, 269, 270, 271, 272, 273, 274, 275, 276, 277, 278, 279, 280, 281, 282, 283, 284, 285, 286, 287, 288, 289, 290, 291, 292, 293, 294, 295, 296, 297, 298, 299, 300, 301, 302, 303, 304, 305, 306, 307, 308, 309, 310, 311, 312, 313, 314, 315, 316, 317, 318, 319, 320, 321, 322, 323, 324, 325, 326, 327, 328, 329, 330, 331, 332, 333, 334, 335, 336, 337, 338, 339, 340, 341, 342, 343, 344, 345, 346, 347, 348, 349, 350, 351, 352, 353, 354, 355, 356, 357, 358, 359, 360, 361, 362, 363, 364, 365, 366, 367, 368, 369, 370, 371, 372, 373, 374, 375, 376, 377, 378, 379, 380, 381, 382, 383, 384, 385, 386, 387, 388, 389, 390, 391, 392, 393, 394, 395, 396, 397, 398, 399, 400, 401, 402, 403, 404, 405, 406, 407, 408, 409, 410, 411, 412, 413, 414, 415, 416, 417, 418, 419, 420, 421, 422, 423, 424, 425, 426, 427, 428, 429, 430],
      "AcquisitionTime": ["144054.327500", "144055.817500", "144057.307500", "144058.797500", "144100.287500", "144101.777500", "144103.267500", "144104.757500", "144106.247500", "144107.737500", "144109.227500", "144110.717500", "144112.207500", "144113.697500", "144115.187500", "144116.677500", "144118.167500", "144119.657500", "144121.147500", "144122.637500", "144124.127500", "144125.617500", "144127.107500", "144128.597500", "144130.087500", "144131.577500", "144133.067500", "144134.557500", "144136.047500", "144137.537500", "144139.027500", "144140.517500", "144142.007500", "144143.497500", "144144.987500", "144146.477500", "144147.967500", "144149.457500", "144150.947500", "144152.437500", "144153.927500", "144155.417500", "144156.907500", "144158.397500", "144159.887500", "144201.377500", "144202.867500", "144204.357500", "144205.847500", "144207.337500", "144208.827500", "144210.317500", "144211.807500", "144213.297500", "144214.787500", "144216.277500", "144217.767500", "144219.257500", "144220.747500", "144222.237500", "144223.727500", "144225.217500", "144226.707500", "144228.197500", "144229.687500", "144231.177500", "144232.667500", "144234.157500", "144235.647500", "144237.137500", "144238.627500", "144240.117500", "144241.607500", "144243.097500", "144244.587500", "144246.077500", "144247.567500", "144249.057500", "144250.547500", "144252.037500", "144253.527500", "144255.017500", "144256.507500", "144257.997500", "144259.487500", "144300.977500", "144302.467500", "144303.957500", "144305.447500", "144306.937500", "144308.427500", "144309.917500", "144311.407500", "144312.897500", "144314.387500", "144315.877500", "144317.367500", "144318.857500", "144320.347500", "144321.837500", "144323.327500", "144324.817500", "144326.307500", "144327.797500", "144329.287500", "144330.777500", "144332.267500", "144333.757500", "144335.247500", "144336.737500", "144338.227500", "144339.717500", "144341.207500", "144342.697500", "144344.187500", "144345.677500", "144347.167500", "144348.657500", "144350.147500", "144351.637500", "144353.127500", "144354.617500", "144356.107500", "144357.597500", "144359.087500", "144400.577500", "144402.067500", "144403.557500", "144405.047500", "144406.537500", "144408.027500", "144409.517500", "144411.007500", "144412.497500", "144413.987500", "144415.477500", "144416.967500", "144418.457500", "144419.947500", "144421.437500", "144422.927500", "144424.417500", "144425.907500", "144427.397500", "144428.887500", "144430.377500", "144431.867500", "144433.357500", "144434.847500", "144436.337500", "144437.827500", "144439.317500", "144440.807500", "144442.297500", "144443.787500", "144445.277500", "144446.767500", "144448.257500", "144449.747500", "144451.237500", "144452.727500", "144454.217500", "144455.707500", "144457.197500", "144458.687500", "144500.177500", "144501.667500", "144503.157500", "144504.647500", "144506.137500", "144507.627500", "144509.117500", "144510.607500", "144512.097500", "144513.587500", "144515.077500", "144516.567500", "144518.057500", "144519.547500", "144521.037500", "144522.527500", "144524.017500", "144525.507500", "144526.997500", "144528.487500", "144529.977500", "144531.467500", "144532.957500", "144534.447500", "144535.937500", "144537.427500", "144538.917500", "144540.407500", "144541.897500", "144543.387500", "144544.877500", "144546.367500", "144547.857500", "144549.347500", "144550.837500", "144552.327500", "144553.817500", "144555.307500", "144556.797500", "144558.287500", "144559.777500", "144601.267500", "144602.757500", "144604.247500", "144605.737500", "144607.227500", "144608.717500", "144610.207500", "144611.697500", "144613.187500", "144614.677500", "144616.167500", "144617.657500", "144619.147500", "144620.637500", "144622.127500", "144623.617500", "144625.107500", "144626.597500", "144628.087500", "144629.577500", "144631.067500", "144632.557500", "144634.047500", "144635.537500", "144637.027500", "144638.517500", "144640.007500", "144641.497500", "144642.987500", "144644.477500", "144645.967500", "144647.457500", "144648.947500", "144650.437500", "144651.927500", "144653.417500", "144654.907500", "144656.397500", "144657.887500", "144659.377500", "144700.867500", "144702.357500", "144703.847500", "144705.337500", "144706.827500", "144708.317500", "144709.807500", "144711.297500", "144712.787500", "144714.277500", "144715.767500", "144717.257500", "144718.747500", "144720.237500", "144721.727500", "144723.217500", "144724.707500", "144726.197500", "144727.687500", "144729.177500", "144730.667500", "144732.157500", "144733.647500", "144735.137500", "144736.627500", "144738.117500", "144739.607500", "144741.097500", "144742.587500", "144744.077500", "144745.567500", "144747.057500", "144748.547500", "144750.037500", "144751.527500", "144753.017500", "144754.507500", "144755.997500", "144757.487500", "144758.977500", "144800.467500", "144801.957500", "144803.447500", "144804.937500", "144806.427500", "144807.917500", "144809.407500", "144810.897500", "144812.387500", "144813.877500", "144815.367500", "144816.857500", "144818.347500", "144819.837500", "144821.327500", "144822.817500", "144824.307500", "144825.797500", "144827.287500", "144828.777500", "144830.267500", "144831.757500", "144833.247500", "144834.737500", "144836.227500", "144837.717500", "144839.207500", "144840.697500", "144842.187500", "144843.677500", "144845.167500", "144846.657500", "144848.147500", "144849.637500", "144851.127500", "144852.617500", "144854.107500", "144855.597500", "144857.087500", "144858.577500", "144900.067500", "144901.557500", "144903.047500", "144904.537500", "144906.027500", "144907.517500", "144909.007500", "144910.497500", "144911.987500", "144913.477500", "144914.967500", "144916.457500", "144917.947500", "144919.437500", "144920.927500", "144922.417500", "144923.907500", "144925.397500", "144926.887500", "144928.377500", "144929.867500", "144931.357500", "144932.847500", "144934.337500", "144935.827500", "144937.317500", "144938.807500", "144940.297500", "144941.787500", "144943.277500", "144944.767500", "144946.257500", "144947.747500", "144949.237500", "144950.727500", "144952.217500", "144953.707500", "144955.197500", "144956.687500", "144958.177500", "144959.667500", "145001.157500", "145002.647500", "145004.137500", "145005.627500", "145007.117500", "145008.607500", "145010.097500", "145011.587500", "145013.077500", "145014.567500", "145016.057500", "145017.547500", "145019.037500", "145020.527500", "145022.017500", "145023.507500", "145024.997500", "145026.487500", "145027.977500", "145029.467500", "145030.957500", "145032.447500", "145033.937500", "145035.427500", "145036.917500", "145038.407500", "145039.897500", "145041.387500", "145042.877500", "145044.367500", "145045.857500", "145047.347500", "145048.837500", "145050.327500", "145051.817500", "145053.307500", "145054.797500", "145056.287500", "145057.777500", "145059.267500", "145100.757500", "145102.247500", "145103.737500", "145105.227500", "145106.717500", "145108.207500", "145109.697500", "145111.187500", "145112.677500", "145114.167500", "145115.657500", "145117.147500", "145118.637500", "145120.127500", "145121.617500", "145123.107500", "145124.597500", "145126.087500", "145127.577500", "145129.067500", "145130.557500", "145132.047500", "145133.537500"],
      "ContentTime": ["144212.593000", "144212.595000", "144212.598000", "144212.600000", "144212.603000", "144212.605000", "144212.608000", "144212.610000", "144212.613000", "144212.615000", "144212.618000", "144212.620000", "144212.623000", "144212.625000", "144212.628000", "144212.630000", "144212.633000", "144212.635000", "144212.638000", "144212.640000", "144212.643000", "144212.645000", "144212.648000", "144212.650000", "144212.653000", "144232.538000", "144232.541000", "144232.544000", "144232.546000", "144232.549000", "144232.551000", "144232.554000", "144232.556000", "144232.559000", "144232.561000", "144232.564000", "144232.566000", "144232.569000", "144232.571000", "144232.574000", "144232.576000", "144232.579000", "144232.588000", "144232.590000", "144232.593000", "144252.549000", "144252.552000", "144252.555000", "144252.557000", "144252.560000", "144252.562000", "144252.565000", "144252.567000", "144252.570000", "144252.572000", "144252.575000", "144252.577000", "144252.580000", "144252.582000", "144252.585000", "144252.587000", "144252.590000", "144252.592000", "144252.595000", "144252.597000", "144312.536000", "144312.546000", "144312.549000", "144312.551000", "144312.554000", "144312.556000", "144312.559000", "144312.561000", "144312.564000", "144312.566000", "144312.569000", "144312.571000", "144312.574000", "144312.576000", "144312.578000", "144312.581000", "144312.583000", "144312.586000", "144312.588000", "144312.591000", "144312.593000", "144352.580000", "144352.583000", "144352.586000", "144352.588000", "144352.591000", "144352.594000", "144352.596000", "144352.599000", "144352.601000", "144352.604000", "144352.606000", "144352.609000", "144352.611000", "144352.614000", "144352.616000", "144352.619000", "144352.621000", "144352.624000", "144352.626000", "144352.629000", "144352.631000", "144352.634000", "144352.636000", "144352.639000", "144352.651000", "144352.653000", "144352.656000", "144352.658000", "144352.661000", "144352.663000", "144352.666000", "144352.668000", "144352.671000", "144432.571000", "144432.573000", "144432.576000", "144432.578000", "144432.581000", "144432.583000", "144432.586000", "144432.588000", "144432.591000", "144432.593000", "144432.596000", "144432.598000", "144432.601000", "144432.603000", "144432.606000", "144432.608000", "144432.611000", "144432.613000", "144432.616000", "144432.618000", "144432.621000", "144432.623000", "144432.626000", "144432.628000", "144432.631000", "144432.633000", "144432.636000", "144512.571000", "144512.573000", "144512.576000", "144512.578000", "144512.581000", "144512.584000", "144512.586000", "144512.589000", "144512.591000", "144512.594000", "144512.596000", "144512.599000", "144512.601000", "144512.604000", "144512.607000", "144512.609000", "144512.612000", "144512.614000", "144512.623000", "144512.625000", "144512.628000", "144512.639000", "144512.641000", "144512.644000", "144512.646000", "144512.649000", "144512.652000", "144552.556000", "144552.559000", "144552.562000", "144552.564000", "144552.567000", "144552.569000", "144552.572000", "144552.574000", "144552.577000", "144552.579000", "144552.582000", "144552.584000", "144552.587000", "144552.589000", "144552.592000", "144552.594000", "144552.601000", "144552.604000", "144552.606000", "144552.609000", "144552.611000", "144552.614000", "144552.616000", "144552.619000", "144552.621000", "144552.624000", "144632.564000", "144632.567000", "144632.570000", "144632.572000", "144632.575000", "144632.577000", "144632.580000", "144632.583000", "144632.585000", "144632.588000", "144632.590000", "144632.593000", "144632.595000", "144632.598000", "144632.600000", "144632.603000", "144632.605000", "144632.608000", "144632.610000", "144632.613000", "144632.615000", "144632.618000", "144632.620000", "144632.623000", "144632.625000", "144632.628000", "144632.631000", "144712.566000", "144712.568000", "144712.571000", "144712.573000", "144712.576000", "144712.578000", "144712.581000", "144712.584000", "144712.586000", "144712.589000", "144712.591000", "144712.594000", "144712.596000", "144712.599000", "144712.601000", "144712.604000", "144712.606000", "144712.609000", "144712.611000", "144712.614000", "144712.616000", "144712.619000", "144712.621000", "144712.624000", "144712.627000", "144712.629000", "144712.632000", "144752.563000", "144752.566000", "144752.568000", "144752.571000", "144752.573000", "144752.576000", "144752.578000", "144752.581000", "144752.583000", "144752.586000", "144752.588000", "144752.591000", "144752.593000", "144752.596000", "144752.599000", "144752.601000", "144752.604000", "144752.606000", "144752.609000", "144752.611000", "144752.614000", "144752.616000", "144752.619000", "144752.621000", "144752.624000", "144752.626000", "144752.629000", "144832.548000", "144832.551000", "144832.553000", "144832.556000", "144832.558000", "144832.561000", "144832.563000", "144832.566000", "144832.568000", "144832.571000", "144832.573000", "144832.576000", "144832.578000", "144832.581000", "144832.583000", "144832.586000", "144832.588000", "144832.591000", "144832.593000", "144832.596000", "144832.598000", "144832.601000", "144832.603000", "144832.606000", "144832.608000", "144832.611000", "144832.614000", "144912.579000", "144912.582000", "144912.584000", "144912.587000", "144912.589000", "144912.592000", "144912.594000", "144912.597000", "144912.599000", "144912.602000", "144912.604000", "144912.607000", "144912.609000", "144912.612000", "144912.614000", "144912.623000", "144912.626000", "144912.628000", "144912.631000", "144912.634000", "144912.636000", "144912.639000", "144912.641000", "144912.644000", "144912.646000", "144912.649000", "144912.651000", "144952.552000", "144952.555000", "144952.558000", "144952.560000", "144952.563000", "144952.566000", "144952.568000", "144952.571000", "144952.573000", "144952.576000", "144952.578000", "144952.581000", "144952.583000", "144952.586000", "144952.588000", "144952.591000", "144952.593000", "144952.596000", "144952.598000", "144952.601000", "144952.603000", "144952.606000", "144952.608000", "144952.611000", "144952.613000", "144952.616000", "144952.619000", "145032.544000", "145032.547000", "145032.550000", "145032.552000", "145032.555000", "145032.557000", "145032.560000", "145032.562000", "145032.565000", "145032.567000", "145032.570000", "145032.572000", "145032.575000", "145032.577000", "145032.580000", "145032.582000", "145032.585000", "145032.588000", "145032.590000", "145032.594000", "145032.597000", "145032.600000", "145032.603000", "145032.606000", "145032.609000", "145032.611000", "145112.541000", "145112.543000", "145112.546000", "145112.549000", "145112.551000", "145112.554000", "145112.556000", "145112.559000", "145112.561000", "145112.564000", "145112.566000", "145112.569000", "145112.571000", "145112.578000", "145112.580000", "145112.583000", "145112.585000", "145112.588000", "145112.590000", "145112.593000", "145112.595000", "145112.598000", "145112.600000", "145112.603000", "145112.606000", "145112.608000", "145112.611000", "145135.340000", "145135.343000", "145135.345000", "145135.352000", "145135.355000", "145135.357000", "145135.360000", "145135.363000", "145135.365000", "145135.368000", "145135.370000", "145135.373000", "145135.375000", "145135.378000", "145135.380000", "145135.383000"],
      "InstanceCreationTime": ["144212.593000", "144212.595000", "144212.598000", "144212.600000", "144212.603000", "144212.605000", "144212.608000", "144212.610000", "144212.613000", "144212.615000", "144212.618000", "144212.620000", "144212.623000", "144212.625000", "144212.628000", "144212.630000", "144212.633000", "144212.635000", "144212.638000", "144212.640000", "144212.643000", "144212.645000", "144212.648000", "144212.650000", "144212.653000", "144232.538000", "144232.541000", "144232.544000", "144232.546000", "144232.549000", "144232.551000", "144232.554000", "144232.556000", "144232.559000", "144232.561000", "144232.564000", "144232.566000", "144232.569000", "144232.571000", "144232.574000", "144232.576000", "144232.579000", "144232.588000", "144232.590000", "144232.593000", "144252.549000", "144252.552000", "144252.555000", "144252.557000", "144252.560000", "144252.562000", "144252.565000", "144252.567000", "144252.570000", "144252.572000", "144252.575000", "144252.577000", "144252.580000", "144252.582000", "144252.585000", "144252.587000", "144252.590000", "144252.592000", "144252.595000", "144252.597000", "144312.536000", "144312.546000", "144312.549000", "144312.551000", "144312.554000", "144312.556000", "144312.559000", "144312.561000", "144312.564000", "144312.566000", "144312.569000", "144312.571000", "144312.574000", "144312.576000", "144312.578000", "144312.581000", "144312.583000", "144312.586000", "144312.588000", "144312.591000", "144312.593000", "144352.580000", "144352.583000", "144352.586000", "144352.588000", "144352.591000", "144352.594000", "144352.596000", "144352.599000", "144352.601000", "144352.604000", "144352.606000", "144352.609000", "144352.611000", "144352.614000", "144352.616000", "144352.619000", "144352.621000", "144352.624000", "144352.626000", "144352.629000", "144352.631000", "144352.634000", "144352.636000", "144352.639000", "144352.651000", "144352.653000", "144352.656000", "144352.658000", "144352.661000", "144352.663000", "144352.666000", "144352.668000", "144352.671000", "144432.571000", "144432.573000", "144432.576000", "144432.578000", "144432.581000", "144432.583000", "144432.586000", "144432.588000", "144432.591000", "144432.593000", "144432.596000", "144432.598000", "144432.601000", "144432.603000", "144432.606000", "144432.608000", "144432.611000", "144432.613000", "144432.616000", "144432.618000", "144432.621000", "144432.623000", "144432.626000", "144432.628000", "144432.631000", "144432.633000", "144432.636000", "144512.571000", "144512.573000", "144512.576000", "144512.578000", "144512.581000", "144512.584000", "144512.586000", "144512.589000", "144512.591000", "144512.594000", "144512.596000", "144512.599000", "144512.601000", "144512.604000", "144512.607000", "144512.609000", "144512.612000", "144512.614000", "144512.623000", "144512.625000", "144512.628000", "144512.639000", "144512.641000", "144512.644000", "144512.646000", "144512.649000", "144512.652000", "144552.556000", "144552.559000", "144552.562000", "144552.564000", "144552.567000", "144552.569000", "144552.572000", "144552.574000", "144552.577000", "144552.579000", "144552.582000", "144552.584000", "144552.587000", "144552.589000", "144552.592000", "144552.594000", "144552.601000", "144552.604000", "144552.606000", "144552.609000", "144552.611000", "144552.614000", "144552.616000", "144552.619000", "144552.621000", "144552.624000", "144632.564000", "144632.567000", "144632.570000", "144632.572000", "144632.575000", "144632.577000", "144632.580000", "144632.583000", "144632.585000", "144632.588000", "144632.590000", "144632.593000", "144632.595000", "144632.598000", "144632.600000", "144632.603000", "144632.605000", "144632.608000", "144632.610000", "144632.613000", "144632.615000", "144632.618000", "144632.620000", "144632.623000", "144632.625000", "144632.628000", "144632.631000", "144712.566000", "144712.568000", "144712.571000", "144712.573000", "144712.576000", "144712.578000", "144712.581000", "144712.584000", "144712.586000", "144712.589000", "144712.591000", "144712.594000", "144712.596000", "144712.599000", "144712.601000", "144712.604000", "144712.606000", "144712.609000", "144712.611000", "144712.614000", "144712.616000", "144712.619000", "144712.621000", "144712.624000", "144712.627000", "144712.629000", "144712.632000", "144752.563000", "144752.566000", "144752.568000", "144752.571000", "144752.573000", "144752.576000", "144752.578000", "144752.581000", "144752.583000", "144752.586000", "144752.588000", "144752.591000", "144752.593000", "144752.596000", "144752.599000", "144752.601000", "144752.604000", "144752.606000", "144752.609000", "144752.611000", "144752.614000", "144752.616000", "144752.619000", "144752.621000", "144752.624000", "144752.626000", "144752.629000", "144832.548000", "144832.551000", "144832.553000", "144832.556000", "144832.558000", "144832.561000", "144832.563000", "144832.566000", "144832.568000", "144832.571000", "144832.573000", "144832.576000", "144832.578000", "144832.581000", "144832.583000", "144832.586000", "144832.588000", "144832.591000", "144832.593000", "144832.596000", "144832.598000", "144832.601000", "144832.603000", "144832.606000", "144832.608000", "144832.611000", "144832.614000", "144912.579000", "144912.582000", "144912.584000", "144912.587000", "144912.589000", "144912.592000", "144912.594000", "144912.597000", "144912.599000", "144912.602000", "144912.604000", "144912.607000", "144912.609000", "144912.612000", "144912.614000", "144912.623000", "144912.626000", "144912.628000", "144912.631000", "144912.634000", "144912.636000", "144912.639000", "144912.641000", "144912.644000", "144912.646000", "144912.649000", "144912.651000", "144952.552000", "144952.555000", "144952.558000", "144952.560000", "144952.563000", "144952.566000", "144952.568000", "144952.571000", "144952.573000", "144952.576000", "144952.578000", "144952.581000", "144952.583000", "144952.586000", "144952.588000", "144952.591000", "144952.593000", "144952.596000", "144952.598000", "144952.601000", "144952.603000", "144952.606000", "144952.608000", "144952.611000", "144952.613000", "144952.616000", "144952.619000", "145032.544000", "145032.547000", "145032.550000", "145032.552000", "145032.555000", "145032.557000", "145032.560000", "145032.562000", "145032.565000", "145032.567000", "145032.570000", "145032.572000", "145032.575000", "145032.577000", "145032.580000", "145032.582000", "145032.585000", "145032.588000", "145032.590000", "145032.594000", "145032.597000", "145032.600000", "145032.603000", "145032.606000", "145032.609000", "145032.611000", "145112.541000", "145112.543000", "145112.546000", "145112.549000", "145112.551000", "145112.554000", "145112.556000", "145112.559000", "145112.561000", "145112.564000", "145112.566000", "145112.569000", "145112.571000", "145112.578000", "145112.580000", "145112.583000", "145112.585000", "145112.588000", "145112.590000", "145112.593000", "145112.595000", "145112.598000", "145112.600000", "145112.603000", "145112.606000", "145112.608000", "145112.611000", "145135.340000", "145135.343000", "145135.345000", "145135.352000", "145135.355000", "145135.357000", "145135.360000", "145135.363000", "145135.365000", "145135.368000", "145135.370000", "145135.373000", "145135.375000", "145135.378000", "145135.380000", "145135.383000"],
