{
  "AcquisitionMatrixPE": 104,
  "AcquisitionNumber": 1,
  "AcquisitionTime": "14:05:58.782500",
  "BandwidthPerPixelPhaseEncode": 17.17,
  "BaseResolution": 104,
  "BodyPartExamined": "BRAIN",
  "CoilString": "HC1-7;NC1_2",
  "ConsistencyInfo": "N4_VE11C_LATEST_20160120",
  "ConversionSoftware": "dcm2niix",
  "ConversionSoftwareVersion": "v1.0.20190902",
  "DerivedVendorReportedEchoSpacing": 0.000560011,
  "DeviceSerialNumber": "167006",
  "DwellTime": 2.1e-06,
  "EchoTime": 0.037,
  "EchoTrainLength": 104,
  "EffectiveEchoSpacing": 0.000560011,
  "FlipAngle": 52,
  "HeudiconvVersion": "0.10.0",
  "ImageComments": "Unaliased_MB4_PE3_LB",
  "ImageOrientationPatientDICOM": [0.999731, 0.0124996, 0.0195385, -0.000174487, 0.846399, -0.532549],
  "ImageType": [
    "ORIGINAL",
    "PRIMARY",
    "M",
    "MB",
    "ND",
    "MOSAIC"
],
  "ImagingFrequency": 123.259,
  "InPlanePhaseEncodingDirectionDICOM": "COL",
  "InstitutionAddress": "Chemin_Queen-Mary_4565_Montreal_District_CA_H3W_1W5",
  "InstitutionName": "IUGM",
  "InstitutionalDepartmentName": "Department",
  "MRAcquisitionType": "2D",
  "MagneticFieldStrength": 3,
  "Manufacturer": "Siemens",
  "ManufacturersModelName": "Prisma_fit",
  "Modality": "MR",
  "MultibandAccelerationFactor": 4,
  "PartialFourier": 1,
  "PatientPosition": "HFS",
  "PercentPhaseFOV": 100,
  "PhaseEncodingDirection": "j",
  "PhaseEncodingSteps": 104,
  "PhaseResolution": 1,
  "PixelBandwidth": 2290,
  "ProcedureStepDescription": "games_mario",
  "ProtocolName": "func_task-mario_run-01",
  "PulseSequenceDetails": "%CustomerSeq%_cmrr_mbep2d_bold",
  "ReceiveCoilActiveElements": "HC1-7;NC1,2",
  "ReceiveCoilName": "HeadNeck_64",
  "ReconMatrixPE": 104,
  "RepetitionTime": 1.49,
  "SAR": 0.0434446,
  "ScanOptions": "FS",
  "ScanningSequence": "EP",
  "SequenceName": "epfid2d1_104",
  "SequenceVariant": "SK_SS",
  "SeriesDescription": "func_task-mario_run-01",
  "SeriesNumber": 10,
  "ShimSetting": [615, -7183, -8866, 250, 3, -153, -21, -12],
  "SliceThickness": 2,
  "SliceTiming": [0, 0.785, 0.1, 0.8825, 0.1975, 0.98, 0.295, 1.08, 0.3925, 1.1775, 0.49, 1.275, 0.59, 1.3725, 0.6875, 0, 0.785, 0.1, 0.8825, 0.1975, 0.98, 0.295, 1.08, 0.3925, 1.1775, 0.49, 1.275, 0.59, 1.3725, 0.6875, 0, 0.785, 0.1, 0.8825, 0.1975, 0.98, 0.295, 1.08, 0.3925, 1.1775, 0.49, 1.275, 0.59, 1.3725, 0.6875, 0, 0.785, 0.1, 0.8825, 0.1975, 0.98, 0.295, 1.08, 0.3925, 1.1775, 0.49, 1.275, 0.59, 1.3725, 0.6875],
  "SoftwareVersions": "syngo_MR_E11",
  "SpacingBetweenSlices": 2,
  "StationName": "MRC35049",
  "TaskName": "mario",
  "TotalReadoutTime": 0.0576811,
  "TxRefAmp": 255.066,
  "WipMemBlock": "e0eab43b-9e9c-473d-b0ff-7b40819599ab||Sequence: R016 ve11c/master r/e634e98; Dec 19 2017 11:00:25 by eja",
  "dcmmeta_affine": [
    [-1.9994618892669678, -0.00034897480509243906, 0.04638808220624924, 105.77477264404297],
    [-0.024999219924211502, 1.692798376083374, -1.0648046731948853, -47.721710205078125],
    [0.0390770398080349, 1.0650980472564697, 1.6923472881317139, -93.13616943359375],
    [0.0, 0.0, 0.0, 1.0]
],
  "dcmmeta_reorient_transform": [
    [0.0, -1.0, 0.0, 103.0],
    [1.0, 0.0, 0.0, 0.0],
    [0.0, 0.0, 1.0, 0.0],
    [0.0, 0.0, 0.0, 1.0]
],
  "dcmmeta_shape": [104, 104, 60, 440],
  "dcmmeta_slice_dim": 2,
  "dcmmeta_version": 0.6,
  "global": {
    "const": {
      "AcquisitionMatrix": [104, 0, 0, 104],
      "AngioFlag": "N",
      "BitsAllocated": 16,
      "BitsStored": 16,
      "BodyPartExamined": "BRAIN",
      "Columns": 832,
      "EchoNumbers": 1,
      "EchoTime": 37.0,
      "EchoTrainLength": 104,
      "FlipAngle": 52.0,
      "HighBit": 15,
      "ImageOrientationPatient": [0.99973096680258, 0.01249961025554, 0.01953851988868, -0.000174487407, 0.84639915916147, -0.5325489957975],
      "ImagePositionPatient": [-833.41594886211, -751.9148189406, 390.04055152741],
      "ImageType": [
        "ORIGINAL",
        "PRIMARY",
        "M",
        "MB",
        "ND",
        "MOSAIC"
],
      "ImagedNucleus": "1H",
      "ImagingFrequency": 123.258885,
      "InPlanePhaseEncodingDirection": "COL",
      "MRAcquisitionType": "2D",
      "MagneticFieldStrength": 3.0,
      "Manufacturer": "SIEMENS",
      "ManufacturerModelName": "Prisma_fit",
      "Modality": "MR",
      "NumberOfAverages": 1.0,
      "NumberOfPhaseEncodingSteps": 104,
      "PercentPhaseFieldOfView": 100.0,
      "PercentSampling": 100.0,
      "PerformedProcedureStepStartTime": "133116.621000",
      "PhotometricInterpretation": "MONOCHROME2",
      "PixelBandwidth": 2290.0,
      "PixelRepresentation": 0,
      "PixelSpacing": [2.0, 2.0],
      "ProtocolName": "func_task-mario_run-01",
      "RepetitionTime": 1490.0,
      "Rows": 832,
      "SAR": 0.04344464347661,
      "SamplesPerPixel": 1,
      "ScanOptions": "FS",
      "ScanningSequence": "EP",
      "SequenceName": "epfid2d1_104",
      "SequenceVariant": [
        "SK",
        "SS"
],
      "SeriesDescription": "func_task-mario_run-01",
      "SeriesNumber": 10,
      "SeriesTime": "140727.133000",
      "SliceLocation": -50.948875064487,
      "SliceThickness": 2.0,
      "SmallestImagePixelValue": 0,
      "SoftwareVersions": "syngo MR E11",
      "SpacingBetweenSlices": 1.9999999923366,
      "SpecificCharacterSet": "ISO_IR 100",
      "StudyID": "1",
      "StudyTime": "133116.494000",
      "TransmitCoilName": "Body",
      "VariableFlipAngleFlag": "N",
      "WindowCenterWidthExplanation": "Algo1",
      "dBdt": 0.0},
    "slices": {}
  },
  "time": {
    "samples": {
      "AcquisitionNumber": [1, 2, 3, 4, 5, 6, 7, 8, 9, 10, 11, 12, 13, 14, 15, 16, 17, 18, 19, 20, 21, 22, 23, 24, 25, 26, 27, 28, 29, 30, 31, 32, 33, 34, 35, 36, 37, 38, 39, 40, 41, 42, 43, 44, 45, 46, 47, 48, 49, 50, 51, 52, 53, 54, 55, 56, 57, 58, 59, 60, 61, 62, 63, 64, 65, 66, 67, 68, 69, 70, 71, 72, 73, 74, 75, 76, 77, 78, 79, 80, 81, 82, 83, 84, 85, 86, 87, 88, 89, 90, 91, 92, 93, 94, 95, 96, 97, 98, 99, 100, 101, 102, 103, 104, 105, 106, 107, 108, 109, 110, 111, 112, 113, 114, 115, 116, 117, 118, 119, 120, 121, 122, 123, 124, 125, 126, 127, 128, 129, 130, 131, 132, 133, 134, 135, 136, 137, 138, 139, 140, 141, 142, 143, 144, 145, 146, 147, 148, 149, 150, 151, 152, 153, 154, 155, 156, 157, 158, 159, 160, 161, 162, 163, 164, 165, 166, 167, 168, 169, 170, 171, 172, 173, 174, 175, 176, 177, 178, 179, 180, 181, 182, 183, 184, 185, 186, 187, 188, 189, 190, 191, 192, 193, 194, 195, 196, 197, 198, 199, 200, 201, 202, 203, 204, 205, 206, 207, 208, 209, 210, 211, 212, 213, 214, 215, 216, 217, 218, 219, 220, 221, 222, 223, 224, 225, 226, 227, 228, 229, 230, 231, 232, 233, 234, 235, 236, 237, 238, 239, 240, 241, 242, 243, 244, 245, 246, 247, 248, 249, 250, 251, 252, 253, 254, 255, 256, 257, 258, 259, 260, 261, 262, 263, 264, 265, 266, 267, 268, 269, 270, 271, 272, 273, 274, 275, 276, 277, 278, 279, 280, 281, 282, 283, 284, 285, 286, 287, 288, 289, 290, 291, 292, 293, 294, 295, 296, 297, 298, 299, 300, 301, 302, 303, 304, 305, 306, 307, 308, 309, 310, 311, 312, 313, 314, 315, 316, 317, 318, 319, 320, 321, 322, 323, 324, 325, 326, 327, 328, 329, 330, 331, 332, 333, 334, 335, 336, 337, 338, 339, 340, 341, 342, 343, 344, 345, 346, 347, 348, 349, 350, 351, 352, 353, 354, 355, 356, 357, 358, 359, 360, 361, 362, 363, 364, 365, 366, 367, 368, 369, 370, 371, 372, 373, 374, 375, 376, 377, 378, 379, 380, 381, 382, 383, 384, 385, 386, 387, 388, 389, 390, 391, 392, 393, 394, 395, 396, 397, 398, 399, 400, 401, 402, 403, 404, 405, 406, 407, 408, 409, 410, 411, 412, 413, 414, 415, 416, 417, 418, 419, 420, 421, 422, 423, 424, 425, 426, 427, 428, 429, 430, 431, 432, 433, 434, 435, 436, 437, 438, 439, 440],
      "AcquisitionTime": ["140558.782500", "140600.272500", "140601.762500", "140603.252500", "140604.742500", "140606.232500", "140607.722500", "140609.212500", "140610.702500", "140612.192500", "140613.682500", "140615.172500", "140616.662500", "140618.152500", "140619.642500", "140621.132500", "140622.622500", "140624.112500", "140625.602500", "140627.092500", "140628.582500", "140630.072500", "140631.562500", "140633.052500", "140634.542500", "140636.032500", "140637.522500", "140639.012500", "140640.502500", "140641.992500", "140643.482500", "140644.972500", "140646.462500", "140647.952500", "140649.442500", "140650.932500", "140652.422500", "140653.912500", "140655.402500", "140656.892500", "140658.382500", "140659.872500", "140701.362500", "140702.852500", "140704.342500", "140705.832500", "140707.322500", "140708.812500", "140710.302500", "140711.792500", "140713.282500", "140714.772500", "140716.262500", "140717.752500", "140719.242500", "140720.732500", "140722.222500", "140723.712500", "140725.202500", "140726.692500", "140728.182500", "140729.672500", "140731.162500", "140732.652500", "140734.142500", "140735.632500", "140737.122500", "140738.612500", "140740.102500", "140741.592500", "140743.082500", "140744.572500", "140746.062500", "140747.552500", "140749.042500", "140750.532500", "140752.022500", "140753.512500", "140755.002500", "140756.492500", "140757.982500", "140759.472500", "140800.962500", "140802.452500", "140803.942500", "140805.432500", "140806.922500", "140808.412500", "140809.902500", "140811.392500", "140812.882500", "140814.372500", "140815.862500", "140817.352500", "140818.842500", "140820.332500", "140821.822500", "140823.312500", "140824.802500", "140826.292500", "140827.782500", "140829.272500", "140830.762500", "140832.252500", "140833.742500", "140835.232500", "140836.722500", "140838.212500", "140839.702500", "140841.192500", "140842.682500", "140844.172500", "140845.662500", "140847.152500", "140848.642500", "140850.132500", "140851.622500", "140853.112500", "140854.602500", "140856.092500", "140857.582500", "140859.072500", "140900.562500", "140902.052500", "140903.542500", "140905.032500", "140906.522500", "140908.012500", "140909.502500", "140910.992500", "140912.482500", "140913.972500", "140915.462500", "140916.952500", "140918.442500", "140919.932500", "140921.422500", "140922.912500", "140924.402500", "140925.892500", "140927.382500", "140928.872500", "140930.362500", "140931.852500", "140933.342500", "140934.832500", "140936.322500", "140937.812500", "140939.302500", "140940.792500", "140942.282500", "140943.772500", "140945.262500", "140946.752500", "140948.242500", "140949.732500", "140951.222500", "140952.712500", "140954.202500", "140955.692500", "140957.182500", "140958.672500", "141000.162500", "141001.652500", "141003.142500", "141004.632500", "141006.122500", "141007.612500", "141009.102500", "141010.592500", "141012.082500", "141013.572500", "141015.062500", "141016.552500", "141018.042500", "141019.532500", "141021.022500", "141022.512500", "141024.002500", "141025.492500", "141026.982500", "141028.472500", "141029.962500", "141031.452500", "141032.942500", "141034.432500", "141035.922500", "141037.412500", "141038.902500", "141040.392500", "141041.882500", "141043.372500", "141044.862500", "141046.352500", "141047.842500", "141049.332500", "141050.822500", "141052.312500", "141053.802500", "141055.292500", "141056.782500", "141058.272500", "141059.762500", "141101.252500", "141102.742500", "141104.232500", "141105.722500", "141107.212500", "141108.702500", "141110.192500", "141111.682500", "141113.172500", "141114.662500", "141116.152500", "141117.642500", "141119.132500", "141120.622500", "141122.112500", "141123.602500", "141125.092500", "141126.582500", "141128.072500", "141129.562500", "141131.052500", "141132.542500", "141134.032500", "141135.522500", "141137.012500", "141138.502500", "141139.992500", "141141.482500", "141142.972500", "141144.462500", "141145.952500", "141147.442500", "141148.932500", "141150.422500", "141151.912500", "141153.402500", "141154.892500", "141156.382500", "141157.872500", "141159.362500", "141200.852500", "141202.342500", "141203.832500", "141205.322500", "141206.812500", "141208.302500", "141209.792500", "141211.282500", "141212.772500", "141214.262500", "141215.752500", "141217.242500", "141218.732500", "141220.222500", "141221.712500", "141223.202500", "141224.692500", "141226.182500", "141227.672500", "141229.162500", "141230.652500", "141232.142500", "141233.632500", "141235.122500", "141236.612500", "141238.102500", "141239.592500", "141241.082500", "141242.572500", "141244.062500", "141245.552500", "141247.042500", "141248.532500", "141250.022500", "141251.512500", "141253.002500", "141254.492500", "141255.982500", "141257.472500", "141258.962500", "141300.452500", "141301.942500", "141303.432500", "141304.922500", "141306.412500", "141307.902500", "141309.392500", "141310.882500", "141312.372500", "141313.862500", "141315.352500", "141316.842500", "141318.332500", "141319.822500", "141321.312500", "141322.802500", "141324.292500", "141325.782500", "141327.272500", "141328.762500", "141330.252500", "141331.742500", "141333.232500", "141334.722500", "141336.212500", "141337.702500", "141339.192500", "141340.682500", "141342.172500", "141343.662500", "141345.152500", "141346.642500", "141348.132500", "141349.622500", "141351.112500", "141352.602500", "141354.092500", "141355.582500", "141357.072500", "141358.562500", "141400.052500", "141401.542500", "141403.032500", "141404.522500", "141406.012500", "141407.502500", "141408.992500", "141410.482500", "141411.972500", "141413.462500", "141414.952500", "141416.442500", "141417.932500", "141419.422500", "141420.912500", "141422.402500", "141423.892500", "141425.382500", "141426.872500", "141428.362500", "141429.852500", "141431.342500", "141432.832500", "141434.322500", "141435.812500", "141437.302500", "141438.792500", "141440.282500", "141441.772500", "141443.262500", "141444.752500", "141446.242500", "141447.732500", "141449.222500", "141450.712500", "141452.202500", "141453.692500", "141455.182500", "141456.672500", "141458.162500", "141459.652500", "141501.142500", "141502.632500", "141504.122500", "141505.612500", "141507.102500", "141508.592500", "141510.082500", "141511.572500", "141513.062500", "141514.552500", "141516.042500", "141517.532500", "141519.022500", "141520.512500", "141522.002500", "141523.492500", "141524.982500", "141526.472500", "141527.962500", "141529.452500", "141530.942500", "141532.432500", "141533.922500", "141535.412500", "141536.902500", "141538.392500", "141539.882500", "141541.372500", "141542.862500", "141544.352500", "141545.842500", "141547.332500", "141548.822500", "141550.312500", "141551.802500", "141553.292500", "141554.782500", "141556.272500", "141557.762500", "141559.252500", "141600.742500", "141602.232500", "141603.722500", "141605.212500", "141606.702500", "141608.192500", "141609.682500", "141611.172500", "141612.662500", "141614.152500", "141615.642500", "141617.132500", "141618.622500", "141620.112500", "141621.602500", "141623.092500", "141624.582500", "141626.072500", "141627.562500", "141629.052500", "141630.542500", "141632.032500", "141633.522500", "141635.012500", "141636.502500", "141637.992500", "141639.482500", "141640.972500", "141642.462500", "141643.952500", "141645.442500", "141646.932500", "141648.422500", "141649.912500", "141651.402500", "141652.892500"],
      "ContentTime": ["140727.136000", "140727.140000", "140727.143000", "140727.147000", "140727.150000", "140727.153000", "140727.157000", "140727.160000", "140727.163000", "140727.167000", "140727.170000", "140727.173000", "140727.176000", "140727.180000", "140727.183000", "140727.186000", "140727.190000", "140727.193000", "140727.196000", "140727.199000", "140727.203000", "140727.206000", "140727.209000", "140727.213000", "140727.216000", "140727.219000", "140727.222000", "140727.226000", "140727.229000", "140727.232000", "140727.236000", "140727.239000", "140727.242000", "140747.096000", "140747.100000", "140747.103000", "140747.106000", "140747.110000", "140747.113000", "140747.116000", "140747.120000", "140747.123000", "140747.126000", "140747.130000", "140747.133000", "140747.136000", "140747.139000", "140747.143000", "140747.146000", "140747.149000", "140747.153000", "140747.156000", "140747.159000", "140807.095000", "140807.099000", "140807.102000", "140807.105000", "140807.109000", "140807.112000", "140807.115000", "140807.119000", "140807.122000", "140807.125000", "140807.128000", "140807.132000", "140807.135000", "140807.138000", "140807.142000", "140807.145000", "140807.148000", "140807.151000", "140807.155000", "140807.158000", "140827.095000", "140827.099000", "140827.102000", "140827.106000", "140827.109000", "140827.112000", "140827.116000", "140827.119000", "140827.123000", "140827.127000", "140827.131000", "140827.134000", "140827.137000", "140827.141000", "140827.145000", "140827.148000", "140827.152000", "140827.155000", "140827.158000", "140827.161000", "140907.095000", "140907.099000", "140907.103000", "140907.106000", "140907.110000", "140907.113000", "140907.116000", "140907.120000", "140907.123000", "140907.126000", "140907.130000", "140907.133000", "140907.136000", "140907.139000", "140907.159000", "140907.162000", "140907.165000", "140907.168000", "140907.172000", "140907.175000", "140907.178000", "140907.182000", "140907.185000", "140907.188000", "140907.192000", "140907.195000", "140907.198000", "140907.201000", "140907.205000", "140907.208000", "140907.212000", "140907.215000", "140947.096000", "140947.100000", "140947.103000", "140947.107000", "140947.110000", "140947.113000", "140947.117000", "140947.120000", "140947.123000", "140947.127000", "140947.130000", "140947.133000", "140947.137000", "140947.140000", "140947.143000", "140947.147000", "140947.150000", "140947.153000", "140947.157000", "140947.160000", "140947.163000", "140947.176000", "140947.179000", "140947.182000", "140947.186000", "140947.189000", "140947.192000", "141027.095000", "141027.099000", "141027.102000", "141027.106000", "141027.117000", "141027.120000", "141027.123000", "141027.127000", "141027.130000", "141027.133000", "141027.136000", "141027.140000", "141027.143000", "141027.147000", "141027.150000", "141027.153000", "141027.157000", "141027.160000", "141027.163000", "141027.167000", "141027.170000", "141027.173000", "141027.177000", "141027.180000", "141027.183000", "141027.187000", "141027.190000", "141107.095000", "141107.099000", "141107.102000", "141107.115000", "141107.118000", "141107.122000", "141107.125000", "141107.128000", "141107.132000", "141107.135000", "141107.138000", "141107.142000", "141107.147000", "141107.150000", "141107.154000", "141107.157000", "141107.161000", "141107.164000", "141107.167000", "141107.171000", "141107.174000", "141107.177000", "141107.191000", "141107.194000", "141107.198000", "141107.201000", "141107.204000", "141147.096000", "141147.100000", "141147.103000", "141147.106000", "141147.110000", "141147.113000", "141147.117000", "141147.120000", "141147.123000", "141147.127000", "141147.130000", "141147.133000", "141147.137000", "141147.140000", "141147.143000", "141147.147000", "141147.150000", "141147.153000", "141147.156000", "141147.160000", "141147.163000", "141147.166000", "141147.177000", "141147.180000", "141147.183000", "141147.186000", "141147.190000", "141227.096000", "141227.100000", "141227.103000", "141227.107000", "141227.110000", "141227.114000", "141227.117000", "141227.120000", "141227.124000", "141227.127000", "141227.131000", "141227.134000", "141227.138000", "141227.141000", "141227.144000", "141227.148000", "141227.151000", "141227.154000", "141227.158000", "141227.161000", "141227.164000", "141227.168000", "141227.171000", "141227.174000", "141227.178000", "141227.181000", "141227.195000", "141307.095000", "141307.099000", "141307.102000", "141307.106000", "141307.109000", "141307.112000", "141307.116000", "141307.119000", "141307.122000", "141307.125000", "141307.129000", "141307.132000", "141307.135000", "141307.139000", "141307.142000", "141307.145000", "141307.149000", "141307.152000", "141307.155000", "141307.159000", "141307.166000", "141307.169000", "141307.173000", "141307.176000", "141307.179000", "141307.183000", "141347.096000", "141347.100000", "141347.103000", "141347.106000", "141347.110000", "141347.113000", "141347.117000", "141347.120000", "141347.123000", "141347.127000", "141347.130000", "141347.133000", "141347.137000", "141347.140000", "141347.143000", "141347.162000", "141347.165000", "141347.168000", "141347.172000", "141347.175000", "141347.178000", "141347.182000", "141347.185000", "141347.188000", "141347.192000", "141347.195000", "141347.198000", "141427.096000", "141427.100000", "141427.103000", "141427.107000", "141427.110000", "141427.114000", "141427.117000", "141427.120000", "141427.124000", "141427.127000", "141427.130000", "141427.134000", "141427.146000", "141427.150000", "141427.153000", "141427.156000", "141427.160000", "141427.163000", "141427.166000", "141427.170000", "141427.173000", "141427.176000", "141427.180000", "141427.183000", "141427.187000", "141427.190000", "141427.193000", "141507.095000", "141507.099000", "141507.102000", "141507.106000", "141507.109000", "141507.112000", "141507.116000", "141507.119000", "141507.123000", "141507.126000", "141507.129000", "141507.133000", "141507.136000", "141507.139000", "141507.143000", "141507.146000", "141507.149000", "141507.153000", "141507.156000", "141507.159000", "141507.163000", "141507.166000", "141507.169000", "141507.173000", "141507.176000", "141507.179000", "141507.183000", "141547.095000", "141547.099000", "141547.102000", "141547.106000", "141547.109000", "141547.113000", "141547.116000", "141547.119000", "141547.123000", "141547.126000", "141547.129000", "141547.132000", "141547.142000", "141547.145000", "141547.148000", "141547.152000", "141547.155000", "141547.158000", "141547.162000", "141547.166000", "141547.169000", "141547.173000", "141547.176000", "141547.179000", "141547.183000", "141547.186000", "141547.189000", "141627.096000", "141627.100000", "141627.103000", "141627.107000", "141627.110000", "141627.113000", "141627.117000", "141627.120000", "141627.123000", "141627.127000", "141627.130000", "141627.133000", "141627.137000", "141627.140000", "141627.143000", "141627.147000", "141627.150000", "141627.159000", "141627.162000", "141627.166000", "141627.169000", "141627.172000", "141627.176000", "141627.179000", "141627.182000", "141627.186000", "141627.189000", "141656.483000", "141656.487000", "141656.490000", "141656.494000", "141656.497000", "141656.500000", "141656.504000", "141656.507000", "141656.510000", "141656.514000", "141656.517000", "141656.521000", "141656.524000", "141656.527000", "141656.531000", "141656.534000", "141656.537000", "141656.540000", "141656.544000"],
