{
  "AcquisitionMatrixPE": 104,
  "AcquisitionNumber": 1,
  "AcquisitionTime": "14:40:54.327500",
  "BandwidthPerPixelPhaseEncode": 17.17,
  "BaseResolution": 104,
  "BodyPartExamined": "BRAIN",
  "CoilString": "HC1-7;NC1_2",
  "ConsistencyInfo": "N4_VE11C_LATEST_20160120",
  "ConversionSoftware": "dcm2niix",
  "ConversionSoftwareVersion": "v1.0.20190902",
  "DerivedVendorReportedEchoSpacing": 0.000560011,
  "DeviceSerialNumber": "167006",
  "DwellTime": 2.1e-06,
  "EchoTime": 0.037,
  "EchoTrainLength": 104,
  "EffectiveEchoSpacing": 0.000560011,
  "FlipAngle": 52,
  "HeudiconvVersion": "0.10.0",
  "ImageComments": "Unaliased_MB4_PE3_LB",
  "ImageOrientationPatientDICOM": [0.999731, 0.0124996, 0.0195385, -0.000174487, 0.846399, -0.532549],
  "ImageType": [
    "ORIGINAL",
    "PRIMARY",
    "M",
    "MB",
    "ND",
    "MOSAIC"
],
  "ImagingFrequency": 123.259,
  "InPlanePhaseEncodingDirectionDICOM": "COL",
  "InstitutionAddress": "Chemin_Queen-Mary_4565_Montreal_District_CA_H3W_1W5",
  "InstitutionName": "IUGM",
  "InstitutionalDepartmentName": "Department",
  "MRAcquisitionType": "2D",
  "MagneticFieldStrength": 3,
  "Manufacturer": "Siemens",
  "ManufacturersModelName": "Prisma_fit",
  "Modality": "MR",
  "MultibandAccelerationFactor": 4,
  "PartialFourier": 1,
  "PatientPosition": "HFS",
  "PercentPhaseFOV": 100,
  "PhaseEncodingDirection": "j",
  "PhaseEncodingSteps": 104,
  "PhaseResolution": 1,
  "PixelBandwidth": 2290,
  "ProcedureStepDescription": "games_mario",
  "ProtocolName": "func_task-mario_run-03",
  "PulseSequenceDetails": "%CustomerSeq%_cmrr_mbep2d_bold",
  "ReceiveCoilActiveElements": "HC1-7;NC1,2",
  "ReceiveCoilName": "HeadNeck_64",
  "ReconMatrixPE": 104,
  "RepetitionTime": 1.49,
  "SAR": 0.0434446,
  "ScanOptions": "FS",
  "ScanningSequence": "EP",
  "SequenceName": "epfid2d1_104",
  "SequenceVariant": "SK_SS",
  "SeriesDescription": "func_task-mario_run-03",
  "SeriesNumber": 22,
  "ShimSetting": [615, -7183, -8866, 250, 3, -153, -21, -12],
  "SliceThickness": 2,
  "SliceTiming": [0, 0.785, 0.1, 0.8825, 0.1975, 0.98, 0.295, 1.08, 0.3925, 1.1775, 0.49, 1.275, 0.59, 1.3725, 0.6875, 0, 0.785, 0.1, 0.8825, 0.1975, 0.98, 0.295, 1.08, 0.3925, 1.1775, 0.49, 1.275, 0.59, 1.3725, 0.6875, 0, 0.785, 0.1, 0.8825, 0.1975, 0.98, 0.295, 1.08, 0.3925, 1.1775, 0.49, 1.275, 0.59, 1.3725, 0.6875, 0, 0.785, 0.1, 0.8825, 0.1975, 0.98, 0.295, 1.08, 0.3925, 1.1775, 0.49, 1.275, 0.59, 1.3725, 0.6875],
  "SoftwareVersions": "syngo_MR_E11",
  "SpacingBetweenSlices": 2,
  "StationName": "MRC35049",
  "TaskName": "mario",
  "TotalReadoutTime": 0.0576811,
  "TxRefAmp": 255.066,
  "WipMemBlock": "b6375bf3-52d7-4fc7-9bcd-38807d5962e6||Sequence: R016 ve11c/master r/e634e98; Dec 19 2017 11:00:25 by eja",
  "dcmmeta_affine": [
    [-1.9994618892669678, -0.00034897480509243906, 0.04638808220624924, 105.77477264404297],
    [-0.024999219924211502, 1.692798376083374, -1.0648046731948853, -47.721710205078125],
    [0.0390770398080349, 1.0650980472564697, 1.6923472881317139, -93.13616943359375],
    [0.0, 0.0, 0.0, 1.0]
],
  "dcmmeta_reorient_transform": [
    [0.0, -1.0, 0.0, 103.0],
    [1.0, 0.0, 0.0, 0.0],
    [0.0, 0.0, 1.0, 0.0],
    [0.0, 0.0, 0.0, 1.0]
],
  "dcmmeta_shape": [104, 104, 60, 430],
  "dcmmeta_slice_dim": 2,
  "dcmmeta_version": 0.6,
  "global": {
    "const": {
      "AcquisitionMatrix": [104, 0, 0, 104],
      "AngioFlag": "N",
      "BitsAllocated": 16,
      "BitsStored": 16,
      "BodyPartExamined": "BRAIN",
      "Columns": 832,
      "EchoNumbers": 1,
      "EchoTime": 37.0,
      "EchoTrainLength": 104,
      "FlipAngle": 52.0,
      "HighBit": 15,
      "ImageOrientationPatient": [0.99973096680258, 0.01249961025554, 0.01953851988868, -0.000174487407, 0.84639915916147, -0.5325489957975],
      "ImagePositionPatient": [-833.41594886211, -751.9148189406, 390.04055152741],
      "ImageType": [
        "ORIGINAL",
        "PRIMARY",
        "M",
        "MB",
        "ND",
        "MOSAIC"
],
      "ImagedNucleus": "1H",
      "ImagingFrequency": 123.258897,
      "InPlanePhaseEncodingDirection": "COL",
      "MRAcquisitionType": "2D",
      "MagneticFieldStrength": 3.0,
      "Manufacturer": "SIEMENS",
      "ManufacturerModelName": "Prisma_fit",
      "Modality": "MR",
      "NumberOfAverages": 1.0,
      "NumberOfPhaseEncodingSteps": 104,
      "PercentPhaseFieldOfView": 100.0,
      "PercentSampling": 100.0,
      "PerformedProcedureStepStartTime": "133116.621000",
      "PhotometricInterpretation": "MONOCHROME2",
      "PixelBandwidth": 2290.0,
      "PixelRepresentation": 0,
      "PixelSpacing": [2.0, 2.0],
      "ProtocolName": "func_task-mario_run-03",
      "RepetitionTime": 1490.0,
      "Rows": 832,
      "SAR": 0.04344464347661,
      "SamplesPerPixel": 1,
      "ScanOptions": "FS",
      "ScanningSequence": "EP",
      "SequenceName": "epfid2d1_104",
      "SequenceVariant": [
        "SK",
        "SS"
],
      "SeriesDescription": "func_task-mario_run-03",
      "SeriesNumber": 22,
      "SeriesTime": "144212.461000",
      "SliceLocation": -50.948875064487,
      "SliceThickness": 2.0,
      "SmallestImagePixelValue": 0,
      "SoftwareVersions": "syngo MR E11",
      "SpacingBetweenSlices": 1.9999999923366,
      "SpecificCharacterSet": "ISO_IR 100",
      "StudyID": "1",
      "StudyTime": "133116.494000",
      "TransmitCoilName": "Body",
      "VariableFlipAngleFlag": "N",
      "WindowCenterWidthExplanation": "Algo1",
      "dBdt": 0.0},
    "slices": {}
  },
  "time": {
    "samples": {
      "AcquisitionNumber": [1, 2, 3, 4, 5, 6, 7, 8, 9, 10, 11, 12, 13, 14, 15, 16, 17, 18, 19, 20, 21, 22, 23, 24, 25, 26, 27, 28, 29, 30, 31, 32, 33, 34, 35, 36, 37, 38, 39, 40, 41, 42, 43, 44, 45, 46, 47, 48, 49, 50, 51, 52, 53, 54, 55, 56, 57, 58, 59, 60, 61, 62, 63, 64, 65, 66, 67, 68, 69, 70, 71, 72, 73, 74, 75, 76, 77, 78, 79, 80, 81, 82, 83, 84, 85, 86, 87, 88, 89, 90, 91, 92, 93, 94, 95, 96, 97, 98, 99, 100, 101, 102, 103, 104, 105, 106, 107, 108, 109, 110, 111, 112, 113, 114, 115, 116, 117, 118, 119, 120, 121, 122, 123, 124, 125, 126, 127, 128, 129, 130, 131, 132, 133, 134, 135, 136, 137, 138, 139, 140, 141, 142, 143, 144, 145, 146, 147, 148, 149, 150, 151, 152, 153, 154, 155, 156, 157, 158, 159, 160, 161, 162, 163, 164, 165, 166, 167, 168, 169, 170, 171, 172, 173, 174, 175, 176, 177, 178, 179, 180, 181, 182, 183, 184, 185, 186, 187, 188, 189, 190, 191, 192, 193, 194, 195, 196, 197, 198, 199, 200, 201, 202, 203, 204, 205, 206, 207, 208, 209, 210, 211, 212, 213, 214, 215, 216, 217, 218, 219, 220, 221, 222, 223, 224, 225, 226, 227, 228, 229, 230, 231, 232, 233, 234, 235, 236, 237, 238, 239, 240, 241, 242, 243, 244, 245, 246, 247, 248, 249, 250, 251, 252, 253, 254, 255, 256, 257, 258, 259, 260, 261, 262, 263, 264, 265, 266, 267, 268, 269, 270, 271, 272, 273, 274, 275, 276, 277, 278, 279, 280, 281, 282, 283, 284, 285, 286, 287, 288, 289, 290, 291, 292, 293, 294, 295, 296, 297, 298, 299, 300, 301, 302, 303, 304, 305, 306, 307, 308, 309, 310, 311, 312, 313, 314, 315, 316, 317, 318, 319, 320, 321, 322, 323, 324, 325, 326, 327, 328, 329, 330, 331, 332, 333, 334, 335, 336, 337, 338, 339, 340, 341, 342, 343, 344, 345, 346, 347, 348, 349, 350, 351, 352, 353, 354, 355, 356, 357, 358, 359, 360, 361, 362, 363, 364, 365, 366, 367, 368, 369, 370, 371, 372, 373, 374, 375, 376, 377, 378, 379, 380, 381, 382, 383, 384, 385, 386, 387, 388, 389, 390, 391, 392, 393, 394, 395, 396, 397, 398, 399, 400, 401, 402, 403, 404, 405, 406, 407, 408, 409, 410, 411, 412, 413, 414, 415, 416, 417, 418, 419, 420, 421, 422, 423, 424, 425, 426, 427, 428, 429, 430],
      "AcquisitionTime": ["144054.327500", "144055.817500", "144057.307500", "144058.797500", "144100.287500", "144101.777500", "144103.267500", "144104.757500", "144106.247500", "144107.737500", "144109.227500", "144110.717500", "144112.207500", "144113.697500", "144115.187500", "144116.677500", "144118.167500", "144119.657500", "144121.147500", "144122.637500", "144124.127500", "144125.617500", "144127.107500", "144128.597500", "144130.087500", "144131.577500", "144133.067500", "144134.557500", "144136.047500", "144137.537500", "144139.027500", "144140.517500", "144142.007500", "144143.497500", "144144.987500", "144146.477500", "144147.967500", "144149.457500", "144150.947500", "144152.437500", "144153.927500", "144155.417500", "144156.907500", "144158.397500", "144159.887500", "144201.377500", "144202.867500", "144204.357500", "144205.847500", "144207.337500", "144208.827500", "144210.317500", "144211.807500", "144213.297500", "144214.787500", "144216.277500", "144217.767500", "144219.257500", "144220.747500", "144222.237500", "144223.727500", "144225.217500", "144226.707500", "144228.197500", "144229.687500", "144231.177500", "144232.667500", "144234.157500", "144235.647500", "144237.137500", "144238.627500", "144240.117500", "144241.607500", "144243.097500", "144244.587500", "144246.077500", "144247.567500", "144249.057500", "144250.547500", "144252.037500", "144253.527500", "144255.017500", "144256.507500", "144257.997500", "144259.487500", "144300.977500", "144302.467500", "144303.957500", "144305.447500", "144306.937500", "144308.427500", "144309.917500", "144311.407500", "144312.897500", "144314.387500", "144315.877500", "144317.367500", "144318.857500", "144320.347500", "144321.837500", "144323.327500", "144324.817500", "144326.307500", "144327.797500", "144329.287500", "144330.777500", "144332.267500", "144333.757500", "144335.247500", "144336.737500", "144338.227500", "144339.717500", "144341.207500", "144342.697500", "144344.187500", "144345.677500", "144347.167500", "144348.657500", "144350.147500", "144351.637500", "144353.127500", "144354.617500", "144356.107500", "144357.597500", "144359.087500", "144400.577500", "144402.067500", "144403.557500", "144405.047500", "144406.537500", "144408.027500", "144409.517500", "144411.007500", "144412.497500", "144413.987500", "144415.477500", "144416.967500", "144418.457500", "144419.947500", "144421.437500", "144422.927500", "144424.417500", "144425.907500", "144427.397500", "144428.887500", "144430.377500", "144431.867500", "144433.357500", "144434.847500", "144436.337500", "144437.827500", "144439.317500", "144440.807500", "144442.297500", "144443.787500", "144445.277500", "144446.767500", "144448.257500", "144449.747500", "144451.237500", "144452.727500", "144454.217500", "144455.707500", "144457.197500", "144458.687500", "144500.177500", "144501.667500", "144503.157500", "144504.647500", "144506.137500", "144507.627500", "144509.117500", "144510.607500", "144512.097500", "144513.587500", "144515.077500", "144516.567500", "144518.057500", "144519.547500", "144521.037500", "144522.527500", "144524.017500", "144525.507500", "144526.997500", "144528.487500", "144529.977500", "144531.467500", "144532.957500", "144534.447500", "144535.937500", "144537.427500", "144538.917500", "144540.407500", "144541.897500", "144543.387500", "144544.877500", "144546.367500", "144547.857500", "144549.347500", "144550.837500", "144552.327500", "144553.817500", "144555.307500", "144556.797500", "144558.287500", "144559.777500", "144601.267500", "144602.757500", "144604.247500", "144605.737500", "144607.227500", "144608.717500", "144610.207500", "144611.697500", "144613.187500", "144614.677500", "144616.167500", "144617.657500", "144619.147500", "144620.637500", "144622.127500", "144623.617500", "144625.107500", "144626.597500", "144628.087500", "144629.577500", "144631.067500", "144632.557500", "144634.047500", "144635.537500", "144637.027500", "144638.517500", "144640.007500", "144641.497500", "144642.987500", "144644.477500", "144645.967500", "144647.457500", "144648.947500", "144650.437500", "144651.927500", "144653.417500", "144654.907500", "144656.397500", "144657.887500", "144659.377500", "144700.867500", "144702.357500", "144703.847500", "144705.337500", "144706.827500", "144708.317500", "144709.807500", "144711.297500", "144712.787500", "144714.277500", "144715.767500", "144717.257500", "144718.747500", "144720.237500", "144721.727500", "144723.217500", "144724.707500", "144726.197500", "144727.687500", "144729.177500", "144730.667500", "144732.157500", "144733.647500", "144735.137500", "144736.627500", "144738.117500", "144739.607500", "144741.097500", "144742.587500", "144744.077500", "144745.567500", "144747.057500", "144748.547500", "144750.037500", "144751.527500", "144753.017500", "144754.507500", "144755.997500", "144757.487500", "144758.977500", "144800.467500", "144801.957500", "144803.447500", "144804.937500", "144806.427500", "144807.917500", "144809.407500", "144810.897500", "144812.387500", "144813.877500", "144815.367500", "144816.857500", "144818.347500", "144819.837500", "144821.327500", "144822.817500", "144824.307500", "144825.797500", "144827.287500", "144828.777500", "144830.267500", "144831.757500", "144833.247500", "144834.737500", "144836.227500", "144837.717500", "144839.207500", "144840.697500", "144842.187500", "144843.677500", "144845.167500", "144846.657500", "144848.147500", "144849.637500", "144851.127500", "144852.617500", "144854.107500", "144855.597500", "144857.087500", "144858.577500", "144900.067500", "144901.557500", "144903.047500", "144904.537500", "144906.027500", "144907.517500", "144909.007500", "144910.497500", "144911.987500", "144913.477500", "144914.967500", "144916.457500", "144917.947500", "144919.437500", "144920.927500", "144922.417500", "144923.907500", "144925.397500", "144926.887500", "144928.377500", "144929.867500", "144931.357500", "144932.847500", "144934.337500", "144935.827500", "144937.317500", "144938.807500", "144940.297500", "144941.787500", "144943.277500", "144944.767500", "144946.257500", "144947.747500", "144949.237500", "144950.727500", "144952.217500", "144953.707500", "144955.197500", "144956.687500", "144958.177500", "144959.667500", "145001.157500", "145002.647500", "145004.137500", "145005.627500", "145007.117500", "145008.607500", "145010.097500", "145011.587500", "145013.077500", "145014.567500", "145016.057500", "145017.547500", "145019.037500", "145020.527500", "145022.017500", "145023.507500", "145024.997500", "145026.487500", "145027.977500", "145029.467500", "145030.957500", "145032.447500", "145033.937500", "145035.427500", "145036.917500", "145038.407500", "145039.897500", "145041.387500", "145042.877500", "145044.367500", "145045.857500", "145047.347500", "145048.837500", "145050.327500", "145051.817500", "145053.307500", "145054.797500", "145056.287500", "145057.777500", "145059.267500", "145100.757500", "145102.247500", "145103.737500", "145105.227500", "145106.717500", "145108.207500", "145109.697500", "145111.187500", "145112.677500", "145114.167500", "145115.657500", "145117.147500", "145118.637500", "145120.127500", "145121.617500", "145123.107500", "145124.597500", "145126.087500", "145127.577500", "145129.067500", "145130.557500", "145132.047500", "145133.537500"],
      "ContentTime": ["144212.464000", "144212.468000", "144212.472000", "144212.475000", "144212.478000", "144212.481000", "144212.493000", "144212.496000", "144212.499000", "144212.503000", "144212.506000", "144212.509000", "144212.513000", "144212.516000", "144212.519000", "144212.523000", "144212.526000", "144212.529000", "144212.533000", "144212.536000", "144212.539000", "144212.543000", "144212.546000", "144212.549000", "144212.553000", "144232.418000", "144232.422000", "144232.425000", "144232.429000", "144232.432000", "144232.435000", "144232.439000", "144232.447000", "144232.451000", "144232.454000", "144232.457000", "144232.461000", "144232.464000", "144232.467000", "144232.470000", "144232.474000", "144232.477000", "144232.480000", "144232.484000", "144232.487000", "144252.405000", "144252.409000", "144252.412000", "144252.415000", "144252.419000", "144252.436000", "144252.439000", "144252.442000", "144252.446000", "144252.449000", "144252.452000", "144252.456000", "144252.459000", "144252.462000", "144252.470000", "144252.473000", "144252.477000", "144252.480000", "144252.483000", "144252.486000", "144312.405000", "144312.409000", "144312.412000", "144312.415000", "144312.419000", "144312.422000", "144312.425000", "144312.429000", "144312.432000", "144312.435000", "144312.439000", "144312.442000", "144312.445000", "144312.448000", "144312.458000", "144312.462000", "144312.465000", "144312.468000", "144312.472000", "144312.475000", "144312.478000", "144352.405000", "144352.409000", "144352.412000", "144352.416000", "144352.419000", "144352.422000", "144352.426000", "144352.429000", "144352.433000", "144352.436000", "144352.439000", "144352.442000", "144352.446000", "144352.449000", "144352.453000", "144352.456000", "144352.459000", "144352.471000", "144352.474000", "144352.477000", "144352.481000", "144352.484000", "144352.487000", "144352.491000", "144352.494000", "144352.497000", "144352.501000", "144352.504000", "144352.508000", "144352.511000", "144352.514000", "144352.518000", "144352.521000", "144432.405000", "144432.409000", "144432.418000", "144432.421000", "144432.424000", "144432.427000", "144432.431000", "144432.449000", "144432.452000", "144432.455000", "144432.459000", "144432.462000", "144432.466000", "144432.469000", "144432.472000", "144432.476000", "144432.479000", "144432.482000", "144432.486000", "144432.489000", "144432.492000", "144432.495000", "144432.499000", "144432.502000", "144432.505000", "144432.509000", "144432.512000", "144512.405000", "144512.409000", "144512.412000", "144512.416000", "144512.419000", "144512.422000", "144512.425000", "144512.429000", "144512.432000", "144512.435000", "144512.439000", "144512.442000", "144512.445000", "144512.449000", "144512.452000", "144512.460000", "144512.464000", "144512.467000", "144512.470000", "144512.474000", "144512.477000", "144512.480000", "144512.483000", "144512.487000", "144512.490000", "144512.498000", "144512.501000", "144552.406000", "144552.409000", "144552.413000", "144552.416000", "144552.419000", "144552.422000", "144552.426000", "144552.429000", "144552.433000", "144552.436000", "144552.439000", "144552.442000", "144552.446000", "144552.449000", "144552.452000", "144552.456000", "144552.459000", "144552.463000", "144552.466000", "144552.469000", "144552.473000", "144552.476000", "144552.480000", "144552.483000", "144552.487000", "144552.491000", "144632.405000", "144632.409000", "144632.421000", "144632.425000", "144632.428000", "144632.431000", "144632.435000", "144632.438000", "144632.441000", "144632.445000", "144632.448000", "144632.452000", "144632.455000", "144632.458000", "144632.462000", "144632.465000", "144632.468000", "144632.472000", "144632.475000", "144632.478000", "144632.482000", "144632.485000", "144632.488000", "144632.492000", "144632.495000", "144632.499000", "144632.502000", "144712.405000", "144712.409000", "144712.412000", "144712.415000", "144712.426000", "144712.429000", "144712.433000", "144712.444000", "144712.448000", "144712.451000", "144712.455000", "144712.458000", "144712.461000", "144712.465000", "144712.468000", "144712.471000", "144712.475000", "144712.478000", "144712.482000", "144712.485000", "144712.488000", "144712.492000", "144712.495000", "144712.498000", "144712.502000", "144712.505000", "144712.508000", "144752.405000", "144752.410000", "144752.413000", "144752.417000", "144752.420000", "144752.423000", "144752.426000", "144752.430000", "144752.433000", "144752.437000", "144752.440000", "144752.443000", "144752.447000", "144752.450000", "144752.453000", "144752.457000", "144752.460000", "144752.463000", "144752.467000", "144752.470000", "144752.473000", "144752.477000", "144752.480000", "144752.483000", "144752.487000", "144752.490000", "144752.493000", "144832.405000", "144832.409000", "144832.412000", "144832.415000", "144832.419000", "144832.422000", "144832.426000", "144832.429000", "144832.433000", "144832.436000", "144832.439000", "144832.443000", "144832.446000", "144832.449000", "144832.453000", "144832.456000", "144832.459000", "144832.463000", "144832.466000", "144832.469000", "144832.473000", "144832.476000", "144832.479000", "144832.483000", "144832.486000", "144832.489000", "144832.493000", "144912.405000", "144912.409000", "144912.412000", "144912.415000", "144912.419000", "144912.422000", "144912.425000", "144912.429000", "144912.432000", "144912.435000", "144912.439000", "144912.453000", "144912.456000", "144912.460000", "144912.463000", "144912.466000", "144912.470000", "144912.473000", "144912.476000", "144912.479000", "144912.483000", "144912.503000", "144912.506000", "144912.509000", "144912.513000", "144912.516000", "144912.519000", "144952.405000", "144952.409000", "144952.412000", "144952.416000", "144952.419000", "144952.422000", "144952.426000", "144952.429000", "144952.433000", "144952.436000", "144952.439000", "144952.443000", "144952.446000", "144952.449000", "144952.453000", "144952.456000", "144952.459000", "144952.463000", "144952.466000", "144952.469000", "144952.473000", "144952.476000", "144952.480000", "144952.489000", "144952.492000", "144952.496000", "144952.499000", "145032.406000", "145032.409000", "145032.412000", "145032.416000", "145032.419000", "145032.423000", "145032.426000", "145032.429000", "145032.433000", "145032.436000", "145032.439000", "145032.443000", "145032.446000", "145032.451000", "145032.454000", "145032.458000", "145032.461000", "145032.465000", "145032.469000", "145032.472000", "145032.476000", "145032.479000", "145032.483000", "145032.486000", "145032.489000", "145032.492000", "145112.405000", "145112.409000", "145112.412000", "145112.415000", "145112.419000", "145112.422000", "145112.425000", "145112.429000", "145112.432000", "145112.435000", "145112.439000", "145112.442000", "145112.445000", "145112.449000", "145112.452000", "145112.455000", "145112.459000", "145112.462000", "145112.465000", "145112.469000", "145112.472000", "145112.475000", "145112.479000", "145112.482000", "145112.485000", "145112.489000", "145112.492000", "145135.246000", "145135.250000", "145135.253000", "145135.257000", "145135.260000", "145135.263000", "145135.267000", "145135.271000", "145135.274000", "145135.277000", "145135.281000", "145135.284000", "145135.288000", "145135.291000", "145135.294000", "145135.298000"],
      "InstanceCreationTime": ["144212.464000", "144212.468000", "144212.472000", "144212.475000", "144212.478000", "144212.481000", "144212.493000", "144212.496000", "144212.499000", "144212.503000", "144212.506000", "144212.509000", "144212.513000", "144212.516000", "144212.519000", "144212.523000", "144212.526000", "144212.529000", "144212.533000", "144212.536000", "144212.539000", "144212.543000", "144212.546000", "144212.549000", "144212.553000", "144232.418000", "144232.422000", "144232.425000", "144232.429000", "144232.432000", "144232.435000", "144232.439000", "144232.447000", "144232.451000", "144232.454000", "144232.457000", "144232.461000", "144232.464000", "144232.467000", "144232.470000", "144232.474000", "144232.477000", "144232.480000", "144232.484000", "144232.487000", "144252.405000", "144252.409000", "144252.412000", "144252.415000", "144252.419000", "144252.436000", "144252.439000", "144252.442000", "144252.446000", "144252.449000", "144252.452000", "144252.456000", "144252.459000", "144252.462000", "144252.470000", "144252.473000", "144252.477000", "144252.480000", "144252.483000", "144252.486000", "144312.405000", "144312.409000", "144312.412000", "144312.415000", "144312.419000", "144312.422000", "144312.425000", "144312.429000", "144312.432000", "144312.435000", "144312.439000", "144312.442000", "144312.445000", "144312.448000", "144312.458000", "144312.462000", "144312.465000", "144312.468000", "144312.472000", "144312.475000", "144312.478000", "144352.405000", "144352.409000", "144352.412000", "144352.416000", "144352.419000", "144352.422000", "144352.426000", "144352.429000", "144352.433000", "144352.436000", "144352.439000", "144352.442000", "144352.446000", "144352.449000", "144352.453000", "144352.456000", "144352.459000", "144352.471000", "144352.474000", "144352.477000", "144352.481000", "144352.484000", "144352.487000", "144352.491000", "144352.494000", "144352.497000", "144352.501000", "144352.504000", "144352.508000", "144352.511000", "144352.514000", "144352.518000", "144352.521000", "144432.405000", "144432.409000", "144432.418000", "144432.421000", "144432.424000", "144432.427000", "144432.431000", "144432.449000", "144432.452000", "144432.455000", "144432.459000", "144432.462000", "144432.466000", "144432.469000", "144432.472000", "144432.476000", "144432.479000", "144432.482000", "144432.486000", "144432.489000", "144432.492000", "144432.495000", "144432.499000", "144432.502000", "144432.505000", "144432.509000", "144432.512000", "144512.405000", "144512.409000", "144512.412000", "144512.416000", "144512.419000", "144512.422000", "144512.425000", "144512.429000", "144512.432000", "144512.435000", "144512.439000", "144512.442000", "144512.445000", "144512.449000", "144512.452000", "144512.460000", "144512.464000", "144512.467000", "144512.470000", "144512.474000", "144512.477000", "144512.480000", "144512.483000", "144512.487000", "144512.490000", "144512.498000", "144512.501000", "144552.406000", "144552.409000", "144552.413000", "144552.416000", "144552.419000", "144552.422000", "144552.426000", "144552.429000", "144552.433000", "144552.436000", "144552.439000", "144552.442000", "144552.446000", "144552.449000", "144552.452000", "144552.456000", "144552.459000", "144552.463000", "144552.466000", "144552.469000", "144552.473000", "144552.476000", "144552.480000", "144552.483000", "144552.487000", "144552.491000", "144632.405000", "144632.409000", "144632.421000", "144632.425000", "144632.428000", "144632.431000", "144632.435000", "144632.438000", "144632.441000", "144632.445000", "144632.448000", "144632.452000", "144632.455000", "144632.458000", "144632.462000", "144632.465000", "144632.468000", "144632.472000", "144632.475000", "144632.478000", "144632.482000", "144632.485000", "144632.488000", "144632.492000", "144632.495000", "144632.499000", "144632.502000", "144712.405000", "144712.409000", "144712.412000", "144712.415000", "144712.426000", "144712.429000", "144712.433000", "144712.444000", "144712.448000", "144712.451000", "144712.455000", "144712.458000", "144712.461000", "144712.465000", "144712.468000", "144712.471000", "144712.475000", "144712.478000", "144712.482000", "144712.485000", "144712.488000", "144712.492000", "144712.495000", "144712.498000", "144712.502000", "144712.505000", "144712.508000", "144752.405000", "144752.410000", "144752.413000", "144752.417000", "144752.420000", "144752.423000", "144752.426000", "144752.430000", "144752.433000", "144752.437000", "144752.440000", "144752.443000", "144752.447000", "144752.450000", "144752.453000", "144752.457000", "144752.460000", "144752.463000", "144752.467000", "144752.470000", "144752.473000", "144752.477000", "144752.480000", "144752.483000", "144752.487000", "144752.490000", "144752.493000", "144832.405000", "144832.409000", "144832.412000", "144832.415000", "144832.419000", "144832.422000", "144832.426000", "144832.429000", "144832.433000", "144832.436000", "144832.439000", "144832.443000", "144832.446000", "144832.449000", "144832.453000", "144832.456000", "144832.459000", "144832.463000", "144832.466000", "144832.469000", "144832.473000", "144832.476000", "144832.479000", "144832.483000", "144832.486000", "144832.489000", "144832.493000", "144912.405000", "144912.409000", "144912.412000", "144912.415000", "144912.419000", "144912.422000", "144912.425000", "144912.429000", "144912.432000", "144912.435000", "144912.439000", "144912.453000", "144912.456000", "144912.460000", "144912.463000", "144912.466000", "144912.470000", "144912.473000", "144912.476000", "144912.479000", "144912.483000", "144912.503000", "144912.506000", "144912.509000", "144912.513000", "144912.516000", "144912.519000", "144952.405000", "144952.409000", "144952.412000", "144952.416000", "144952.419000", "144952.422000", "144952.426000", "144952.429000", "144952.433000", "144952.436000", "144952.439000", "144952.443000", "144952.446000", "144952.449000", "144952.453000", "144952.456000", "144952.459000", "144952.463000", "144952.466000", "144952.469000", "144952.473000", "144952.476000", "144952.480000", "144952.489000", "144952.492000", "144952.496000", "144952.499000", "145032.406000", "145032.409000", "145032.412000", "145032.416000", "145032.419000", "145032.423000", "145032.426000", "145032.429000", "145032.433000", "145032.436000", "145032.439000", "145032.443000", "145032.446000", "145032.451000", "145032.454000", "145032.458000", "145032.461000", "145032.465000", "145032.469000", "145032.472000", "145032.476000", "145032.479000", "145032.483000", "145032.486000", "145032.489000", "145032.492000", "145112.405000", "145112.409000", "145112.412000", "145112.415000", "145112.419000", "145112.422000", "145112.425000", "145112.429000", "145112.432000", "145112.435000", "145112.439000", "145112.442000", "145112.445000", "145112.449000", "145112.452000", "145112.455000", "145112.459000", "145112.462000", "145112.465000", "145112.469000", "145112.472000", "145112.475000", "145112.479000", "145112.482000", "145112.485000", "145112.489000", "145112.492000", "145135.246000", "145135.250000", "145135.253000", "145135.257000", "145135.260000", "145135.263000", "145135.267000", "145135.271000", "145135.274000", "145135.277000", "145135.281000", "145135.284000", "145135.288000", "145135.291000", "145135.294000", "145135.298000"],
