{
  "AcquisitionMatrixPE": 104,
  "AcquisitionNumber": 1,
  "AcquisitionTime": "14:53:10.415000",
  "BandwidthPerPixelPhaseEncode": 17.17,
  "BaseResolution": 104,
  "BodyPartExamined": "BRAIN",
  "CoilString": "HC1-7;NC1_2",
  "ConsistencyInfo": "N4_VE11C_LATEST_20160120",
  "ConversionSoftware": "dcm2niix",
  "ConversionSoftwareVersion": "v1.0.20190902",
  "DerivedVendorReportedEchoSpacing": 0.000560011,
  "DeviceSerialNumber": "167006",
  "DwellTime": 2.1e-06,
  "EchoTime": 0.037,
  "EchoTrainLength": 104,
  "EffectiveEchoSpacing": 0.000560011,
  "FlipAngle": 52,
  "HeudiconvVersion": "0.10.0",
  "ImageComments": "Unaliased_MB4_PE3_LB",
  "ImageOrientationPatientDICOM": [0.999731, 0.0124996, 0.0195385, -0.000174487, 0.846399, -0.532549],
  "ImageType": [
    "ORIGINAL",
    "PRIMARY",
    "P",
    "MB",
    "ND",
    "MOSAIC"
],
  "ImagingFrequency": 123.259,
  "InPlanePhaseEncodingDirectionDICOM": "COL",
  "InstitutionAddress": "Chemin_Queen-Mary_4565_Montreal_District_CA_H3W_1W5",
  "InstitutionName": "IUGM",
  "InstitutionalDepartmentName": "Department",
  "MRAcquisitionType": "2D",
  "MagneticFieldStrength": 3,
  "Manufacturer": "Siemens",
  "ManufacturersModelName": "Prisma_fit",
  "Modality": "MR",
  "MultibandAccelerationFactor": 4,
  "PartialFourier": 1,
  "PatientPosition": "HFS",
  "PercentPhaseFOV": 100,
  "PhaseEncodingDirection": "j",
  "PhaseEncodingSteps": 104,
  "PhaseResolution": 1,
  "PixelBandwidth": 2290,
  "ProcedureStepDescription": "games_mario",
  "ProtocolName": "func_task-mario_run-04",
  "PulseSequenceDetails": "%CustomerSeq%_cmrr_mbep2d_bold",
  "ReceiveCoilActiveElements": "HC1-7;NC1,2",
  "ReceiveCoilName": "HeadNeck_64",
  "ReconMatrixPE": 104,
  "RepetitionTime": 1.49,
  "SAR": 0.0434446,
  "ScanOptions": "FS",
  "ScanningSequence": "EP",
  "SequenceName": "epfid2d1_104",
  "SequenceVariant": "SK_SS",
  "SeriesDescription": "func_task-mario_run-04",
  "SeriesNumber": 26,
  "ShimSetting": [615, -7183, -8866, 250, 3, -153, -21, -12],
  "SliceThickness": 2,
  "SliceTiming": [0, 0.785, 0.0975, 0.8825, 0.195, 0.98, 0.295, 1.0775, 0.3925, 1.175, 0.49, 1.275, 0.5875, 1.3725, 0.685, 0, 0.785, 0.0975, 0.8825, 0.195, 0.98, 0.295, 1.0775, 0.3925, 1.175, 0.49, 1.275, 0.5875, 1.3725, 0.685, 0, 0.785, 0.0975, 0.8825, 0.195, 0.98, 0.295, 1.0775, 0.3925, 1.175, 0.49, 1.275, 0.5875, 1.3725, 0.685, 0, 0.785, 0.0975, 0.8825, 0.195, 0.98, 0.295, 1.0775, 0.3925, 1.175, 0.49, 1.275, 0.5875, 1.3725, 0.685],
  "SoftwareVersions": "syngo_MR_E11",
  "SpacingBetweenSlices": 2,
  "StationName": "MRC35049",
  "TaskName": "mario",
  "TotalReadoutTime": 0.0576811,
  "TxRefAmp": 255.066,
  "WipMemBlock": "70e5bdf8-6105-4bab-844c-f19f9671a035||Sequence: R016 ve11c/master r/e634e98; Dec 19 2017 11:00:25 by eja",
  "dcmmeta_affine": [
    [-1.9994618892669678, -0.00034897480509243906, 0.04638808220624924, 105.77477264404297],
    [-0.024999219924211502, 1.692798376083374, -1.0648046731948853, -47.721710205078125],
    [0.0390770398080349, 1.0650980472564697, 1.6923472881317139, -93.13616943359375],
    [0.0, 0.0, 0.0, 1.0]
],
  "dcmmeta_reorient_transform": [
    [0.0, -1.0, 0.0, 103.0],
    [1.0, 0.0, 0.0, 0.0],
    [0.0, 0.0, 1.0, 0.0],
    [0.0, 0.0, 0.0, 1.0]
],
  "dcmmeta_shape": [104, 104, 60, 453],
  "dcmmeta_slice_dim": 2,
  "dcmmeta_version": 0.6,
  "global": {
    "const": {
      "AcquisitionMatrix": [104, 0, 0, 104],
      "AngioFlag": "N",
      "BitsAllocated": 16,
      "BitsStored": 16,
      "BodyPartExamined": "BRAIN",
      "Columns": 832,
      "EchoNumbers": 1,
      "EchoTime": 37.0,
      "EchoTrainLength": 104,
      "FlipAngle": 52.0,
      "HighBit": 15,
      "ImageOrientationPatient": [0.99973096680258, 0.01249961025554, 0.01953851988868, -0.000174487407, 0.84639915916147, -0.5325489957975],
      "ImagePositionPatient": [-833.41594886211, -751.9148189406, 390.04055152741],
      "ImageType": [
        "ORIGINAL",
        "PRIMARY",
        "P",
        "MB",
        "ND",
        "MOSAIC"
],
      "ImagedNucleus": "1H",
      "ImagingFrequency": 123.25891,
      "InPlanePhaseEncodingDirection": "COL",
      "LargestImagePixelValue": 4095,
      "MRAcquisitionType": "2D",
      "MagneticFieldStrength": 3.0,
      "Manufacturer": "SIEMENS",
      "ManufacturerModelName": "Prisma_fit",
      "Modality": "MR",
      "NumberOfAverages": 1.0,
      "NumberOfPhaseEncodingSteps": 104,
      "PercentPhaseFieldOfView": 100.0,
      "PercentSampling": 100.0,
      "PerformedProcedureStepStartTime": "133116.621000",
      "PhotometricInterpretation": "MONOCHROME2",
      "PixelBandwidth": 2290.0,
      "PixelRepresentation": 0,
      "PixelSpacing": [2.0, 2.0],
      "ProtocolName": "func_task-mario_run-04",
      "RepetitionTime": 1490.0,
      "RescaleIntercept": -4096.0,
      "RescaleSlope": 2.0,
      "RescaleType": "US",
      "Rows": 832,
      "SAR": 0.04344464347661,
      "SamplesPerPixel": 1,
      "ScanOptions": "FS",
      "ScanningSequence": "EP",
      "SequenceName": "epfid2d1_104",
      "SequenceVariant": [
        "SK",
        "SS"
],
      "SeriesDescription": "func_task-mario_run-04",
      "SeriesNumber": 26,
      "SeriesTime": "145434.791000",
      "SliceLocation": -50.948875064487,
      "SliceThickness": 2.0,
      "SmallestImagePixelValue": 0,
      "SoftwareVersions": "syngo MR E11",
      "SpacingBetweenSlices": 1.9999999923366,
      "SpecificCharacterSet": "ISO_IR 100",
      "StudyID": "1",
      "StudyTime": "133116.494000",
      "TransmitCoilName": "Body",
      "VariableFlipAngleFlag": "N",
      "WindowCenterWidthExplanation": "Algo1",
      "dBdt": 0.0},
    "slices": {}
  },
  "time": {
    "samples": {
      "AcquisitionNumber": [1, 2, 3, 4, 5, 6, 7, 8, 9, 10, 11, 12, 13, 14, 15, 16, 17, 18, 19, 20, 21, 22, 23, 24, 25, 26, 27, 28, 29, 30, 31, 32, 33, 34, 35, 36, 37, 38, 39, 40, 41, 42, 43, 44, 45, 46, 47, 48, 49, 50, 51, 52, 53, 54, 55, 56, 57, 58, 59, 60, 61, 62, 63, 64, 65, 66, 67, 68, 69, 70, 71, 72, 73, 74, 75, 76, 77, 78, 79, 80, 81, 82, 83, 84, 85, 86, 87, 88, 89, 90, 91, 92, 93, 94, 95, 96, 97, 98, 99, 100, 101, 102, 103, 104, 105, 106, 107, 108, 109, 110, 111, 112, 113, 114, 115, 116, 117, 118, 119, 120, 121, 122, 123, 124, 125, 126, 127, 128, 129, 130, 131, 132, 133, 134, 135, 136, 137, 138, 139, 140, 141, 142, 143, 144, 145, 146, 147, 148, 149, 150, 151, 152, 153, 154, 155, 156, 157, 158, 159, 160, 161, 162, 163, 164, 165, 166, 167, 168, 169, 170, 171, 172, 173, 174, 175, 176, 177, 178, 179, 180, 181, 182, 183, 184, 185, 186, 187, 188, 189, 190, 191, 192, 193, 194, 195, 196, 197, 198, 199, 200, 201, 202, 203, 204, 205, 206, 207, 208, 209, 210, 211, 212, 213, 214, 215, 216, 217, 218, 219, 220, 221, 222, 223, 224, 225, 226, 227, 228, 229, 230, 231, 232, 233, 234, 235, 236, 237, 238, 239, 240, 241, 242, 243, 244, 245, 246, 247, 248, 249, 250, 251, 252, 253, 254, 255, 256, 257, 258, 259, 260, 261, 262, 263, 264, 265, 266, 267, 268, 269, 270, 271, 272, 273, 274, 275, 276, 277, 278, 279, 280, 281, 282, 283, 284, 285, 286, 287, 288, 289, 290, 291, 292, 293, 294, 295, 296, 297, 298, 299, 300, 301, 302, 303, 304, 305, 306, 307, 308, 309, 310, 311, 312, 313, 314, 315, 316, 317, 318, 319, 320, 321, 322, 323, 324, 325, 326, 327, 328, 329, 330, 331, 332, 333, 334, 335, 336, 337, 338, 339, 340, 341, 342, 343, 344, 345, 346, 347, 348, 349, 350, 351, 352, 353, 354, 355, 356, 357, 358, 359, 360, 361, 362, 363, 364, 365, 366, 367, 368, 369, 370, 371, 372, 373, 374, 375, 376, 377, 378, 379, 380, 381, 382, 383, 384, 385, 386, 387, 388, 389, 390, 391, 392, 393, 394, 395, 396, 397, 398, 399, 400, 401, 402, 403, 404, 405, 406, 407, 408, 409, 410, 411, 412, 413, 414, 415, 416, 417, 418, 419, 420, 421, 422, 423, 424, 425, 426, 427, 428, 429, 430, 431, 432, 433, 434, 435, 436, 437, 438, 439, 440, 441, 442, 443, 444, 445, 446, 447, 448, 449, 450, 451, 452, 453],
      "AcquisitionTime": ["145310.415000", "145311.905000", "145313.395000", "145314.885000", "145316.375000", "145317.865000", "145319.355000", "145320.845000", "145322.335000", "145323.825000", "145325.315000", "145326.805000", "145328.295000", "145329.785000", "145331.275000", "145332.765000", "145334.255000", "145335.745000", "145337.235000", "145338.725000", "145340.215000", "145341.705000", "145343.195000", "145344.685000", "145346.175000", "145347.665000", "145349.155000", "145350.645000", "145352.135000", "145353.625000", "145355.115000", "145356.605000", "145358.095000", "145359.585000", "145401.075000", "145402.565000", "145404.055000", "145405.545000", "145407.035000", "145408.525000", "145410.015000", "145411.505000", "145412.995000", "145414.485000", "145415.975000", "145417.465000", "145418.955000", "145420.445000", "145421.935000", "145423.425000", "145424.915000", "145426.405000", "145427.895000", "145429.385000", "145430.875000", "145432.365000", "145433.855000", "145435.345000", "145436.835000", "145438.325000", "145439.815000", "145441.305000", "145442.795000", "145444.285000", "145445.775000", "145447.265000", "145448.755000", "145450.245000", "145451.735000", "145453.225000", "145454.715000", "145456.205000", "145457.695000", "145459.185000", "145500.675000", "145502.165000", "145503.655000", "145505.145000", "145506.635000", "145508.125000", "145509.615000", "145511.105000", "145512.595000", "145514.085000", "145515.575000", "145517.065000", "145518.555000", "145520.045000", "145521.535000", "145523.025000", "145524.515000", "145526.005000", "145527.495000", "145528.985000", "145530.475000", "145531.965000", "145533.455000", "145534.945000", "145536.435000", "145537.925000", "145539.415000", "145540.905000", "145542.395000", "145543.885000", "145545.375000", "145546.865000", "145548.355000", "145549.845000", "145551.335000", "145552.825000", "145554.315000", "145555.805000", "145557.295000", "145558.785000", "145600.275000", "145601.765000", "145603.255000", "145604.745000", "145606.235000", "145607.725000", "145609.215000", "145610.705000", "145612.195000", "145613.685000", "145615.175000", "145616.665000", "145618.155000", "145619.645000", "145621.135000", "145622.625000", "145624.115000", "145625.605000", "145627.095000", "145628.585000", "145630.075000", "145631.565000", "145633.055000", "145634.545000", "145636.035000", "145637.525000", "145639.015000", "145640.505000", "145641.995000", "145643.485000", "145644.975000", "145646.465000", "145647.955000", "145649.445000", "145650.935000", "145652.425000", "145653.915000", "145655.405000", "145656.895000", "145658.385000", "145659.875000", "145701.365000", "145702.855000", "145704.345000", "145705.835000", "145707.325000", "145708.815000", "145710.305000", "145711.795000", "145713.285000", "145714.775000", "145716.265000", "145717.755000", "145719.245000", "145720.735000", "145722.225000", "145723.715000", "145725.205000", "145726.695000", "145728.185000", "145729.675000", "145731.165000", "145732.655000", "145734.145000", "145735.635000", "145737.125000", "145738.615000", "145740.105000", "145741.595000", "145743.085000", "145744.575000", "145746.065000", "145747.555000", "145749.045000", "145750.535000", "145752.025000", "145753.515000", "145755.005000", "145756.495000", "145757.985000", "145759.475000", "145800.965000", "145802.455000", "145803.945000", "145805.435000", "145806.925000", "145808.415000", "145809.905000", "145811.395000", "145812.885000", "145814.375000", "145815.865000", "145817.355000", "145818.845000", "145820.335000", "145821.825000", "145823.315000", "145824.805000", "145826.295000", "145827.785000", "145829.275000", "145830.765000", "145832.255000", "145833.745000", "145835.235000", "145836.725000", "145838.215000", "145839.705000", "145841.195000", "145842.685000", "145844.175000", "145845.665000", "145847.155000", "145848.645000", "145850.135000", "145851.625000", "145853.115000", "145854.605000", "145856.095000", "145857.585000", "145859.075000", "145900.565000", "145902.055000", "145903.545000", "145905.035000", "145906.525000", "145908.015000", "145909.505000", "145910.995000", "145912.485000", "145913.975000", "145915.465000", "145916.955000", "145918.445000", "145919.935000", "145921.425000", "145922.915000", "145924.405000", "145925.895000", "145927.385000", "145928.875000", "145930.365000", "145931.855000", "145933.345000", "145934.835000", "145936.325000", "145937.815000", "145939.305000", "145940.795000", "145942.285000", "145943.775000", "145945.265000", "145946.755000", "145948.245000", "145949.735000", "145951.225000", "145952.715000", "145954.205000", "145955.695000", "145957.185000", "145958.675000", "150000.165000", "150001.655000", "150003.145000", "150004.635000", "150006.125000", "150007.615000", "150009.105000", "150010.595000", "150012.085000", "150013.575000", "150015.065000", "150016.555000", "150018.045000", "150019.535000", "150021.025000", "150022.515000", "150024.005000", "150025.495000", "150026.985000", "150028.475000", "150029.965000", "150031.455000", "150032.945000", "150034.435000", "150035.925000", "150037.415000", "150038.905000", "150040.395000", "150041.885000", "150043.375000", "150044.865000", "150046.355000", "150047.845000", "150049.335000", "150050.825000", "150052.315000", "150053.805000", "150055.295000", "150056.785000", "150058.275000", "150059.765000", "150101.255000", "150102.745000", "150104.235000", "150105.725000", "150107.215000", "150108.705000", "150110.195000", "150111.685000", "150113.175000", "150114.665000", "150116.155000", "150117.645000", "150119.135000", "150120.625000", "150122.115000", "150123.605000", "150125.095000", "150126.585000", "150128.075000", "150129.565000", "150131.055000", "150132.545000", "150134.035000", "150135.525000", "150137.015000", "150138.505000", "150139.995000", "150141.485000", "150142.975000", "150144.465000", "150145.955000", "150147.445000", "150148.935000", "150150.425000", "150151.915000", "150153.405000", "150154.895000", "150156.385000", "150157.875000", "150159.365000", "150200.855000", "150202.345000", "150203.835000", "150205.325000", "150206.815000", "150208.305000", "150209.795000", "150211.285000", "150212.775000", "150214.265000", "150215.755000", "150217.245000", "150218.735000", "150220.225000", "150221.715000", "150223.205000", "150224.695000", "150226.185000", "150227.675000", "150229.165000", "150230.655000", "150232.145000", "150233.635000", "150235.125000", "150236.615000", "150238.105000", "150239.595000", "150241.085000", "150242.575000", "150244.065000", "150245.555000", "150247.045000", "150248.535000", "150250.025000", "150251.515000", "150253.005000", "150254.495000", "150255.985000", "150257.475000", "150258.965000", "150300.455000", "150301.945000", "150303.435000", "150304.925000", "150306.415000", "150307.905000", "150309.395000", "150310.885000", "150312.375000", "150313.865000", "150315.355000", "150316.845000", "150318.335000", "150319.825000", "150321.315000", "150322.805000", "150324.295000", "150325.785000", "150327.275000", "150328.765000", "150330.255000", "150331.745000", "150333.235000", "150334.725000", "150336.215000", "150337.705000", "150339.195000", "150340.685000", "150342.175000", "150343.665000", "150345.155000", "150346.645000", "150348.135000", "150349.625000", "150351.115000", "150352.605000", "150354.095000", "150355.585000", "150357.075000", "150358.565000", "150400.055000", "150401.545000", "150403.035000", "150404.525000", "150406.015000", "150407.505000", "150408.995000", "150410.485000", "150411.975000", "150413.465000", "150414.955000", "150416.445000", "150417.935000", "150419.425000", "150420.915000", "150422.405000", "150423.895000"],
      "ContentTime": ["145434.793000", "145434.796000", "145434.799000", "145434.801000", "145434.804000", "145434.806000", "145434.809000", "145434.811000", "145434.814000", "145434.816000", "145434.819000", "145434.822000", "145434.824000", "145434.827000", "145434.832000", "145434.835000", "145434.838000", "145434.840000", "145434.842000", "145434.845000", "145434.848000", "145434.850000", "145434.853000", "145434.855000", "145434.858000", "145434.861000", "145434.863000", "145434.865000", "145434.868000", "145434.871000", "145454.733000", "145454.736000", "145454.738000", "145454.741000", "145454.744000", "145454.746000", "145454.749000", "145454.751000", "145454.754000", "145454.756000", "145454.759000", "145454.761000", "145454.764000", "145454.767000", "145454.771000", "145454.774000", "145454.776000", "145454.779000", "145454.782000", "145454.785000", "145514.715000", "145514.718000", "145514.721000", "145514.723000", "145514.735000", "145514.738000", "145514.740000", "145514.742000", "145514.745000", "145514.748000", "145514.750000", "145514.753000", "145514.755000", "145514.758000", "145514.760000", "145514.763000", "145514.766000", "145514.768000", "145514.771000", "145514.773000", "145514.776000", "145534.725000", "145534.728000", "145534.731000", "145534.733000", "145534.736000", "145534.739000", "145534.741000", "145534.744000", "145534.746000", "145534.749000", "145534.751000", "145534.754000", "145534.756000", "145534.759000", "145534.761000", "145534.764000", "145534.767000", "145534.769000", "145534.772000", "145534.774000", "145614.763000", "145614.766000", "145614.768000", "145614.771000", "145614.773000", "145614.776000", "145614.779000", "145614.781000", "145614.784000", "145614.786000", "145614.789000", "145614.792000", "145614.794000", "145614.797000", "145614.799000", "145614.802000", "145614.804000", "145614.807000", "145614.810000", "145614.812000", "145614.815000", "145614.817000", "145614.820000", "145614.822000", "145614.825000", "145614.828000", "145614.830000", "145614.833000", "145614.835000", "145614.838000", "145614.840000", "145614.843000", "145654.725000", "145654.728000", "145654.730000", "145654.733000", "145654.735000", "145654.738000", "145654.741000", "145654.743000", "145654.746000", "145654.748000", "145654.751000", "145654.754000", "145654.757000", "145654.760000", "145654.764000", "145654.767000", "145654.770000", "145654.773000", "145654.782000", "145654.785000", "145654.788000", "145654.791000", "145654.794000", "145654.797000", "145654.799000", "145654.802000", "145734.743000", "145734.746000", "145734.748000", "145734.751000", "145734.753000", "145734.756000", "145734.758000", "145734.761000", "145734.764000", "145734.766000", "145734.769000", "145734.771000", "145734.774000", "145734.776000", "145734.779000", "145734.781000", "145734.784000", "145734.787000", "145734.789000", "145734.792000", "145734.794000", "145734.797000", "145734.799000", "145734.802000", "145734.805000", "145734.807000", "145734.810000", "145814.727000", "145814.730000", "145814.733000", "145814.735000", "145814.738000", "145814.740000", "145814.743000", "145814.745000", "145814.748000", "145814.750000", "145814.753000", "145814.756000", "145814.758000", "145814.761000", "145814.763000", "145814.766000", "145814.768000", "145814.771000", "145814.774000", "145814.776000", "145814.779000", "145814.781000", "145814.784000", "145814.786000", "145814.789000", "145814.791000", "145814.794000", "145854.740000", "145854.743000", "145854.746000", "145854.748000", "145854.751000", "145854.754000", "145854.756000", "145854.759000", "145854.761000", "145854.764000", "145854.766000", "145854.769000", "145854.771000", "145854.774000", "145854.776000", "145854.779000", "145854.782000", "145854.784000", "145854.787000", "145854.789000", "145854.792000", "145854.794000", "145854.797000", "145854.799000", "145854.802000", "145854.805000", "145854.815000", "145934.738000", "145934.740000", "145934.743000", "145934.746000", "145934.753000", "145934.756000", "145934.759000", "145934.761000", "145934.764000", "145934.766000", "145934.769000", "145934.771000", "145934.774000", "145934.776000", "145934.779000", "145934.782000", "145934.784000", "145934.787000", "145934.789000", "145934.792000", "145934.795000", "145934.797000", "145934.800000", "145934.802000", "145934.805000", "145934.807000", "145934.810000", "150014.751000", "150014.754000", "150014.756000", "150014.759000", "150014.762000", "150014.764000", "150014.767000", "150014.769000", "150014.772000", "150014.774000", "150014.777000", "150014.779000", "150014.782000", "150014.785000", "150014.787000", "150014.790000", "150014.792000", "150014.795000", "150014.797000", "150014.800000", "150014.803000", "150014.805000", "150014.808000", "150014.810000", "150014.813000", "150014.815000", "150014.818000", "150054.736000", "150054.739000", "150054.741000", "150054.752000", "150054.754000", "150054.757000", "150054.759000", "150054.762000", "150054.765000", "150054.767000", "150054.770000", "150054.772000", "150054.775000", "150054.777000", "150054.780000", "150054.782000", "150054.785000", "150054.788000", "150054.790000", "150054.793000", "150054.795000", "150054.798000", "150054.800000", "150054.803000", "150054.806000", "150054.808000", "150134.739000", "150134.742000", "150134.744000", "150134.747000", "150134.751000", "150134.753000", "150134.756000", "150134.759000", "150134.761000", "150134.764000", "150134.766000", "150134.769000", "150134.783000", "150134.786000", "150134.789000", "150134.791000", "150134.794000", "150134.796000", "150134.799000", "150134.801000", "150134.804000", "150134.807000", "150134.809000", "150134.812000", "150134.814000", "150134.817000", "150134.820000", "150214.724000", "150214.727000", "150214.729000", "150214.732000", "150214.735000", "150214.743000", "150214.746000", "150214.748000", "150214.751000", "150214.754000", "150214.756000", "150214.759000", "150214.761000", "150214.764000", "150214.766000", "150214.769000", "150214.772000", "150214.774000", "150214.777000", "150214.779000", "150214.782000", "150214.784000", "150214.787000", "150214.790000", "150214.792000", "150214.795000", "150214.797000", "150254.732000", "150254.735000", "150254.738000", "150254.740000", "150254.743000", "150254.745000", "150254.748000", "150254.750000", "150254.753000", "150254.755000", "150254.758000", "150254.760000", "150254.763000", "150254.766000", "150254.768000", "150254.771000", "150254.773000", "150254.776000", "150254.779000", "150254.781000", "150254.784000", "150254.786000", "150254.789000", "150254.791000", "150254.794000", "150254.796000", "150254.799000", "150334.752000", "150334.754000", "150334.757000", "150334.760000", "150334.762000", "150334.765000", "150334.767000", "150334.770000", "150334.772000", "150334.775000", "150334.777000", "150334.780000", "150334.783000", "150334.785000", "150334.788000", "150334.790000", "150334.793000", "150334.796000", "150334.798000", "150334.801000", "150334.803000", "150334.806000", "150334.808000", "150334.813000", "150334.816000", "150334.819000", "150334.821000", "150414.732000", "150414.735000", "150414.738000", "150414.740000", "150414.743000", "150414.745000", "150414.748000", "150414.750000", "150414.753000", "150414.755000", "150414.758000", "150414.760000", "150414.763000", "150414.765000", "150414.768000", "150414.770000", "150414.773000", "150414.775000", "150414.778000", "150414.780000", "150414.783000", "150414.785000", "150414.788000", "150414.790000", "150414.793000", "150414.796000", "150414.798000", "150427.400000", "150427.403000", "150427.405000", "150427.408000", "150427.410000", "150427.413000", "150427.415000", "150427.418000"],
