{
  "AcquisitionMatrixPE": 104,
  "AcquisitionNumber": 1,
  "AcquisitionTime": "14:05:58.782500",
  "BandwidthPerPixelPhaseEncode": 17.17,
  "BaseResolution": 104,
  "BodyPartExamined": "BRAIN",
  "CoilString": "HC1-7;NC1_2",
  "ConsistencyInfo": "N4_VE11C_LATEST_20160120",
  "ConversionSoftware": "dcm2niix",
  "ConversionSoftwareVersion": "v1.0.20190902",
  "DerivedVendorReportedEchoSpacing": 0.000560011,
  "DeviceSerialNumber": "167006",
  "DwellTime": 2.1e-06,
  "EchoTime": 0.037,
  "EchoTrainLength": 104,
  "EffectiveEchoSpacing": 0.000560011,
  "FlipAngle": 52,
  "HeudiconvVersion": "0.10.0",
  "ImageComments": "Unaliased_MB4_PE3_LB",
  "ImageOrientationPatientDICOM": [0.999731, 0.0124996, 0.0195385, -0.000174487, 0.846399, -0.532549],
  "ImageType": [
    "ORIGINAL",
    "PRIMARY",
    "P",
    "MB",
    "ND",
    "MOSAIC"
],
  "ImagingFrequency": 123.259,
  "InPlanePhaseEncodingDirectionDICOM": "COL",
  "InstitutionAddress": "Chemin_Queen-Mary_4565_Montreal_District_CA_H3W_1W5",
  "InstitutionName": "IUGM",
  "InstitutionalDepartmentName": "Department",
  "MRAcquisitionType": "2D",
  "MagneticFieldStrength": 3,
  "Manufacturer": "Siemens",
  "ManufacturersModelName": "Prisma_fit",
  "Modality": "MR",
  "MultibandAccelerationFactor": 4,
  "PartialFourier": 1,
  "PatientPosition": "HFS",
  "PercentPhaseFOV": 100,
  "PhaseEncodingDirection": "j",
  "PhaseEncodingSteps": 104,
  "PhaseResolution": 1,
  "PixelBandwidth": 2290,
  "ProcedureStepDescription": "games_mario",
  "ProtocolName": "func_task-mario_run-01",
  "PulseSequenceDetails": "%CustomerSeq%_cmrr_mbep2d_bold",
  "ReceiveCoilActiveElements": "HC1-7;NC1,2",
  "ReceiveCoilName": "HeadNeck_64",
  "ReconMatrixPE": 104,
  "RepetitionTime": 1.49,
  "SAR": 0.0434446,
  "ScanOptions": "FS",
  "ScanningSequence": "EP",
  "SequenceName": "epfid2d1_104",
  "SequenceVariant": "SK_SS",
  "SeriesDescription": "func_task-mario_run-01",
  "SeriesNumber": 11,
  "ShimSetting": [615, -7183, -8866, 250, 3, -153, -21, -12],
  "SliceThickness": 2,
  "SliceTiming": [0, 0.785, 0.1, 0.8825, 0.1975, 0.98, 0.295, 1.08, 0.3925, 1.1775, 0.49, 1.275, 0.59, 1.3725, 0.6875, 0, 0.785, 0.1, 0.8825, 0.1975, 0.98, 0.295, 1.08, 0.3925, 1.1775, 0.49, 1.275, 0.59, 1.3725, 0.6875, 0, 0.785, 0.1, 0.8825, 0.1975, 0.98, 0.295, 1.08, 0.3925, 1.1775, 0.49, 1.275, 0.59, 1.3725, 0.6875, 0, 0.785, 0.1, 0.8825, 0.1975, 0.98, 0.295, 1.08, 0.3925, 1.1775, 0.49, 1.275, 0.59, 1.3725, 0.6875],
  "SoftwareVersions": "syngo_MR_E11",
  "SpacingBetweenSlices": 2,
  "StationName": "MRC35049",
  "TaskName": "mario",
  "TotalReadoutTime": 0.0576811,
  "TxRefAmp": 255.066,
  "WipMemBlock": "e0eab43b-9e9c-473d-b0ff-7b40819599ab||Sequence: R016 ve11c/master r/e634e98; Dec 19 2017 11:00:25 by eja",
  "dcmmeta_affine": [
    [-1.9994618892669678, -0.00034897480509243906, 0.04638808220624924, 105.77477264404297],
    [-0.024999219924211502, 1.692798376083374, -1.0648046731948853, -47.721710205078125],
    [0.0390770398080349, 1.0650980472564697, 1.6923472881317139, -93.13616943359375],
    [0.0, 0.0, 0.0, 1.0]
],
  "dcmmeta_reorient_transform": [
    [0.0, -1.0, 0.0, 103.0],
    [1.0, 0.0, 0.0, 0.0],
    [0.0, 0.0, 1.0, 0.0],
    [0.0, 0.0, 0.0, 1.0]
],
  "dcmmeta_shape": [104, 104, 60, 440],
  "dcmmeta_slice_dim": 2,
  "dcmmeta_version": 0.6,
  "global": {
    "const": {
      "AcquisitionMatrix": [104, 0, 0, 104],
      "AngioFlag": "N",
      "BitsAllocated": 16,
      "BitsStored": 16,
      "BodyPartExamined": "BRAIN",
      "Columns": 832,
      "EchoNumbers": 1,
      "EchoTime": 37.0,
      "EchoTrainLength": 104,
      "FlipAngle": 52.0,
      "HighBit": 15,
      "ImageOrientationPatient": [0.99973096680258, 0.01249961025554, 0.01953851988868, -0.000174487407, 0.84639915916147, -0.5325489957975],
      "ImagePositionPatient": [-833.41594886211, -751.9148189406, 390.04055152741],
      "ImageType": [
        "ORIGINAL",
        "PRIMARY",
        "P",
        "MB",
        "ND",
        "MOSAIC"
],
      "ImagedNucleus": "1H",
      "ImagingFrequency": 123.258885,
      "InPlanePhaseEncodingDirection": "COL",
      "LargestImagePixelValue": 4095,
      "MRAcquisitionType": "2D",
      "MagneticFieldStrength": 3.0,
      "Manufacturer": "SIEMENS",
      "ManufacturerModelName": "Prisma_fit",
      "Modality": "MR",
      "NumberOfAverages": 1.0,
      "NumberOfPhaseEncodingSteps": 104,
      "PercentPhaseFieldOfView": 100.0,
      "PercentSampling": 100.0,
      "PerformedProcedureStepStartTime": "133116.621000",
      "PhotometricInterpretation": "MONOCHROME2",
      "PixelBandwidth": 2290.0,
      "PixelRepresentation": 0,
      "PixelSpacing": [2.0, 2.0],
      "ProtocolName": "func_task-mario_run-01",
      "RepetitionTime": 1490.0,
      "RescaleIntercept": -4096.0,
      "RescaleSlope": 2.0,
      "RescaleType": "US",
      "Rows": 832,
      "SAR": 0.04344464347661,
      "SamplesPerPixel": 1,
      "ScanOptions": "FS",
      "ScanningSequence": "EP",
      "SequenceName": "epfid2d1_104",
      "SequenceVariant": [
        "SK",
        "SS"
],
      "SeriesDescription": "func_task-mario_run-01",
      "SeriesNumber": 11,
      "SeriesTime": "140727.291000",
      "SliceLocation": -50.948875064487,
      "SliceThickness": 2.0,
      "SmallestImagePixelValue": 0,
      "SoftwareVersions": "syngo MR E11",
      "SpacingBetweenSlices": 1.9999999923366,
      "SpecificCharacterSet": "ISO_IR 100",
      "StudyID": "1",
      "StudyTime": "133116.494000",
      "TransmitCoilName": "Body",
      "VariableFlipAngleFlag": "N",
      "WindowCenterWidthExplanation": "Algo1",
      "dBdt": 0.0},
    "slices": {}
  },
  "time": {
    "samples": {
      "AcquisitionNumber": [1, 2, 3, 4, 5, 6, 7, 8, 9, 10, 11, 12, 13, 14, 15, 16, 17, 18, 19, 20, 21, 22, 23, 24, 25, 26, 27, 28, 29, 30, 31, 32, 33, 34, 35, 36, 37, 38, 39, 40, 41, 42, 43, 44, 45, 46, 47, 48, 49, 50, 51, 52, 53, 54, 55, 56, 57, 58, 59, 60, 61, 62, 63, 64, 65, 66, 67, 68, 69, 70, 71, 72, 73, 74, 75, 76, 77, 78, 79, 80, 81, 82, 83, 84, 85, 86, 87, 88, 89, 90, 91, 92, 93, 94, 95, 96, 97, 98, 99, 100, 101, 102, 103, 104, 105, 106, 107, 108, 109, 110, 111, 112, 113, 114, 115, 116, 117, 118, 119, 120, 121, 122, 123, 124, 125, 126, 127, 128, 129, 130, 131, 132, 133, 134, 135, 136, 137, 138, 139, 140, 141, 142, 143, 144, 145, 146, 147, 148, 149, 150, 151, 152, 153, 154, 155, 156, 157, 158, 159, 160, 161, 162, 163, 164, 165, 166, 167, 168, 169, 170, 171, 172, 173, 174, 175, 176, 177, 178, 179, 180, 181, 182, 183, 184, 185, 186, 187, 188, 189, 190, 191, 192, 193, 194, 195, 196, 197, 198, 199, 200, 201, 202, 203, 204, 205, 206, 207, 208, 209, 210, 211, 212, 213, 214, 215, 216, 217, 218, 219, 220, 221, 222, 223, 224, 225, 226, 227, 228, 229, 230, 231, 232, 233, 234, 235, 236, 237, 238, 239, 240, 241, 242, 243, 244, 245, 246, 247, 248, 249, 250, 251, 252, 253, 254, 255, 256, 257, 258, 259, 260, 261, 262, 263, 264, 265, 266, 267, 268, 269, 270, 271, 272, 273, 274, 275, 276, 277, 278, 279, 280, 281, 282, 283, 284, 285, 286, 287, 288, 289, 290, 291, 292, 293, 294, 295, 296, 297, 298, 299, 300, 301, 302, 303, 304, 305, 306, 307, 308, 309, 310, 311, 312, 313, 314, 315, 316, 317, 318, 319, 320, 321, 322, 323, 324, 325, 326, 327, 328, 329, 330, 331, 332, 333, 334, 335, 336, 337, 338, 339, 340, 341, 342, 343, 344, 345, 346, 347, 348, 349, 350, 351, 352, 353, 354, 355, 356, 357, 358, 359, 360, 361, 362, 363, 364, 365, 366, 367, 368, 369, 370, 371, 372, 373, 374, 375, 376, 377, 378, 379, 380, 381, 382, 383, 384, 385, 386, 387, 388, 389, 390, 391, 392, 393, 394, 395, 396, 397, 398, 399, 400, 401, 402, 403, 404, 405, 406, 407, 408, 409, 410, 411, 412, 413, 414, 415, 416, 417, 418, 419, 420, 421, 422, 423, 424, 425, 426, 427, 428, 429, 430, 431, 432, 433, 434, 435, 436, 437, 438, 439, 440],
      "AcquisitionTime": ["140558.782500", "140600.272500", "140601.762500", "140603.252500", "140604.742500", "140606.232500", "140607.722500", "140609.212500", "140610.702500", "140612.192500", "140613.682500", "140615.172500", "140616.662500", "140618.152500", "140619.642500", "140621.132500", "140622.622500", "140624.112500", "140625.602500", "140627.092500", "140628.582500", "140630.072500", "140631.562500", "140633.052500", "140634.542500", "140636.032500", "140637.522500", "140639.012500", "140640.502500", "140641.992500", "140643.482500", "140644.972500", "140646.462500", "140647.952500", "140649.442500", "140650.932500", "140652.422500", "140653.912500", "140655.402500", "140656.892500", "140658.382500", "140659.872500", "140701.362500", "140702.852500", "140704.342500", "140705.832500", "140707.322500", "140708.812500", "140710.302500", "140711.792500", "140713.282500", "140714.772500", "140716.262500", "140717.752500", "140719.242500", "140720.732500", "140722.222500", "140723.712500", "140725.202500", "140726.692500", "140728.182500", "140729.672500", "140731.162500", "140732.652500", "140734.142500", "140735.632500", "140737.122500", "140738.612500", "140740.102500", "140741.592500", "140743.082500", "140744.572500", "140746.062500", "140747.552500", "140749.042500", "140750.532500", "140752.022500", "140753.512500", "140755.002500", "140756.492500", "140757.982500", "140759.472500", "140800.962500", "140802.452500", "140803.942500", "140805.432500", "140806.922500", "140808.412500", "140809.902500", "140811.392500", "140812.882500", "140814.372500", "140815.862500", "140817.352500", "140818.842500", "140820.332500", "140821.822500", "140823.312500", "140824.802500", "140826.292500", "140827.782500", "140829.272500", "140830.762500", "140832.252500", "140833.742500", "140835.232500", "140836.722500", "140838.212500", "140839.702500", "140841.192500", "140842.682500", "140844.172500", "140845.662500", "140847.152500", "140848.642500", "140850.132500", "140851.622500", "140853.112500", "140854.602500", "140856.092500", "140857.582500", "140859.072500", "140900.562500", "140902.052500", "140903.542500", "140905.032500", "140906.522500", "140908.012500", "140909.502500", "140910.992500", "140912.482500", "140913.972500", "140915.462500", "140916.952500", "140918.442500", "140919.932500", "140921.422500", "140922.912500", "140924.402500", "140925.892500", "140927.382500", "140928.872500", "140930.362500", "140931.852500", "140933.342500", "140934.832500", "140936.322500", "140937.812500", "140939.302500", "140940.792500", "140942.282500", "140943.772500", "140945.262500", "140946.752500", "140948.242500", "140949.732500", "140951.222500", "140952.712500", "140954.202500", "140955.692500", "140957.182500", "140958.672500", "141000.162500", "141001.652500", "141003.142500", "141004.632500", "141006.122500", "141007.612500", "141009.102500", "141010.592500", "141012.082500", "141013.572500", "141015.062500", "141016.552500", "141018.042500", "141019.532500", "141021.022500", "141022.512500", "141024.002500", "141025.492500", "141026.982500", "141028.472500", "141029.962500", "141031.452500", "141032.942500", "141034.432500", "141035.922500", "141037.412500", "141038.902500", "141040.392500", "141041.882500", "141043.372500", "141044.862500", "141046.352500", "141047.842500", "141049.332500", "141050.822500", "141052.312500", "141053.802500", "141055.292500", "141056.782500", "141058.272500", "141059.762500", "141101.252500", "141102.742500", "141104.232500", "141105.722500", "141107.212500", "141108.702500", "141110.192500", "141111.682500", "141113.172500", "141114.662500", "141116.152500", "141117.642500", "141119.132500", "141120.622500", "141122.112500", "141123.602500", "141125.092500", "141126.582500", "141128.072500", "141129.562500", "141131.052500", "141132.542500", "141134.032500", "141135.522500", "141137.012500", "141138.502500", "141139.992500", "141141.482500", "141142.972500", "141144.462500", "141145.952500", "141147.442500", "141148.932500", "141150.422500", "141151.912500", "141153.402500", "141154.892500", "141156.382500", "141157.872500", "141159.362500", "141200.852500", "141202.342500", "141203.832500", "141205.322500", "141206.812500", "141208.302500", "141209.792500", "141211.282500", "141212.772500", "141214.262500", "141215.752500", "141217.242500", "141218.732500", "141220.222500", "141221.712500", "141223.202500", "141224.692500", "141226.182500", "141227.672500", "141229.162500", "141230.652500", "141232.142500", "141233.632500", "141235.122500", "141236.612500", "141238.102500", "141239.592500", "141241.082500", "141242.572500", "141244.062500", "141245.552500", "141247.042500", "141248.532500", "141250.022500", "141251.512500", "141253.002500", "141254.492500", "141255.982500", "141257.472500", "141258.962500", "141300.452500", "141301.942500", "141303.432500", "141304.922500", "141306.412500", "141307.902500", "141309.392500", "141310.882500", "141312.372500", "141313.862500", "141315.352500", "141316.842500", "141318.332500", "141319.822500", "141321.312500", "141322.802500", "141324.292500", "141325.782500", "141327.272500", "141328.762500", "141330.252500", "141331.742500", "141333.232500", "141334.722500", "141336.212500", "141337.702500", "141339.192500", "141340.682500", "141342.172500", "141343.662500", "141345.152500", "141346.642500", "141348.132500", "141349.622500", "141351.112500", "141352.602500", "141354.092500", "141355.582500", "141357.072500", "141358.562500", "141400.052500", "141401.542500", "141403.032500", "141404.522500", "141406.012500", "141407.502500", "141408.992500", "141410.482500", "141411.972500", "141413.462500", "141414.952500", "141416.442500", "141417.932500", "141419.422500", "141420.912500", "141422.402500", "141423.892500", "141425.382500", "141426.872500", "141428.362500", "141429.852500", "141431.342500", "141432.832500", "141434.322500", "141435.812500", "141437.302500", "141438.792500", "141440.282500", "141441.772500", "141443.262500", "141444.752500", "141446.242500", "141447.732500", "141449.222500", "141450.712500", "141452.202500", "141453.692500", "141455.182500", "141456.672500", "141458.162500", "141459.652500", "141501.142500", "141502.632500", "141504.122500", "141505.612500", "141507.102500", "141508.592500", "141510.082500", "141511.572500", "141513.062500", "141514.552500", "141516.042500", "141517.532500", "141519.022500", "141520.512500", "141522.002500", "141523.492500", "141524.982500", "141526.472500", "141527.962500", "141529.452500", "141530.942500", "141532.432500", "141533.922500", "141535.412500", "141536.902500", "141538.392500", "141539.882500", "141541.372500", "141542.862500", "141544.352500", "141545.842500", "141547.332500", "141548.822500", "141550.312500", "141551.802500", "141553.292500", "141554.782500", "141556.272500", "141557.762500", "141559.252500", "141600.742500", "141602.232500", "141603.722500", "141605.212500", "141606.702500", "141608.192500", "141609.682500", "141611.172500", "141612.662500", "141614.152500", "141615.642500", "141617.132500", "141618.622500", "141620.112500", "141621.602500", "141623.092500", "141624.582500", "141626.072500", "141627.562500", "141629.052500", "141630.542500", "141632.032500", "141633.522500", "141635.012500", "141636.502500", "141637.992500", "141639.482500", "141640.972500", "141642.462500", "141643.952500", "141645.442500", "141646.932500", "141648.422500", "141649.912500", "141651.402500", "141652.892500"],
      "ContentTime": ["140727.293000", "140727.296000", "140727.299000", "140727.301000", "140727.304000", "140727.306000", "140727.309000", "140727.311000", "140727.314000", "140727.316000", "140727.319000", "140727.321000", "140727.324000", "140727.326000", "140727.329000", "140727.331000", "140727.334000", "140727.336000", "140727.339000", "140727.348000", "140727.351000", "140727.353000", "140727.356000", "140727.358000", "140727.361000", "140727.363000", "140727.366000", "140727.368000", "140727.371000", "140727.373000", "140727.376000", "140727.378000", "140727.381000", "140747.216000", "140747.219000", "140747.222000", "140747.224000", "140747.227000", "140747.229000", "140747.232000", "140747.234000", "140747.237000", "140747.239000", "140747.241000", "140747.244000", "140747.247000", "140747.249000", "140747.252000", "140747.254000", "140747.257000", "140747.259000", "140747.262000", "140747.264000", "140807.216000", "140807.218000", "140807.221000", "140807.223000", "140807.226000", "140807.228000", "140807.231000", "140807.233000", "140807.236000", "140807.238000", "140807.241000", "140807.244000", "140807.246000", "140807.249000", "140807.252000", "140807.254000", "140807.256000", "140807.259000", "140807.261000", "140807.264000", "140827.231000", "140827.234000", "140827.237000", "140827.239000", "140827.242000", "140827.244000", "140827.247000", "140827.249000", "140827.252000", "140827.254000", "140827.257000", "140827.259000", "140827.262000", "140827.264000", "140827.267000", "140827.269000", "140827.272000", "140827.274000", "140827.277000", "140827.279000", "140907.264000", "140907.266000", "140907.269000", "140907.271000", "140907.274000", "140907.278000", "140907.280000", "140907.283000", "140907.293000", "140907.296000", "140907.298000", "140907.301000", "140907.303000", "140907.306000", "140907.308000", "140907.311000", "140907.314000", "140907.316000", "140907.319000", "140907.321000", "140907.324000", "140907.326000", "140907.329000", "140907.331000", "140907.334000", "140907.336000", "140907.339000", "140907.341000", "140907.344000", "140907.346000", "140907.349000", "140907.351000", "140947.242000", "140947.245000", "140947.248000", "140947.250000", "140947.253000", "140947.255000", "140947.258000", "140947.260000", "140947.263000", "140947.265000", "140947.268000", "140947.270000", "140947.273000", "140947.275000", "140947.278000", "140947.280000", "140947.283000", "140947.285000", "140947.288000", "140947.290000", "140947.293000", "140947.295000", "140947.298000", "140947.300000", "140947.303000", "140947.305000", "140947.308000", "141027.244000", "141027.247000", "141027.249000", "141027.252000", "141027.254000", "141027.257000", "141027.259000", "141027.262000", "141027.264000", "141027.267000", "141027.269000", "141027.272000", "141027.274000", "141027.277000", "141027.279000", "141027.282000", "141027.284000", "141027.287000", "141027.289000", "141027.292000", "141027.294000", "141027.297000", "141027.300000", "141027.302000", "141027.305000", "141027.307000", "141027.310000", "141107.256000", "141107.259000", "141107.261000", "141107.270000", "141107.273000", "141107.275000", "141107.278000", "141107.280000", "141107.283000", "141107.285000", "141107.288000", "141107.290000", "141107.293000", "141107.296000", "141107.298000", "141107.300000", "141107.303000", "141107.306000", "141107.308000", "141107.311000", "141107.313000", "141107.317000", "141107.319000", "141107.322000", "141107.324000", "141107.327000", "141107.329000", "141147.242000", "141147.244000", "141147.247000", "141147.249000", "141147.252000", "141147.255000", "141147.257000", "141147.260000", "141147.262000", "141147.265000", "141147.267000", "141147.270000", "141147.272000", "141147.275000", "141147.277000", "141147.280000", "141147.282000", "141147.285000", "141147.287000", "141147.290000", "141147.292000", "141147.295000", "141147.297000", "141147.300000", "141147.303000", "141147.305000", "141147.308000", "141227.249000", "141227.252000", "141227.255000", "141227.257000", "141227.260000", "141227.262000", "141227.265000", "141227.267000", "141227.270000", "141227.272000", "141227.275000", "141227.277000", "141227.280000", "141227.282000", "141227.285000", "141227.287000", "141227.290000", "141227.293000", "141227.295000", "141227.298000", "141227.300000", "141227.303000", "141227.305000", "141227.308000", "141227.311000", "141227.313000", "141227.316000", "141307.246000", "141307.249000", "141307.251000", "141307.254000", "141307.256000", "141307.259000", "141307.261000", "141307.264000", "141307.266000", "141307.269000", "141307.271000", "141307.274000", "141307.276000", "141307.279000", "141307.282000", "141307.285000", "141307.287000", "141307.290000", "141307.292000", "141307.295000", "141307.303000", "141307.307000", "141307.309000", "141307.312000", "141307.314000", "141307.317000", "141347.248000", "141347.251000", "141347.254000", "141347.256000", "141347.259000", "141347.261000", "141347.264000", "141347.266000", "141347.269000", "141347.271000", "141347.274000", "141347.276000", "141347.279000", "141347.281000", "141347.284000", "141347.286000", "141347.289000", "141347.291000", "141347.294000", "141347.296000", "141347.299000", "141347.301000", "141347.304000", "141347.306000", "141347.309000", "141347.311000", "141347.314000", "141427.650000", "141427.653000", "141427.656000", "141427.658000", "141427.661000", "141427.663000", "141427.666000", "141427.668000", "141427.671000", "141427.673000", "141427.676000", "141427.678000", "141427.681000", "141427.683000", "141427.686000", "141427.688000", "141427.691000", "141427.693000", "141427.696000", "141427.698000", "141427.701000", "141427.704000", "141427.706000", "141427.709000", "141427.711000", "141427.714000", "141427.716000", "141507.224000", "141507.227000", "141507.230000", "141507.232000", "141507.235000", "141507.237000", "141507.240000", "141507.242000", "141507.245000", "141507.248000", "141507.250000", "141507.253000", "141507.255000", "141507.258000", "141507.260000", "141507.263000", "141507.265000", "141507.268000", "141507.270000", "141507.273000", "141507.275000", "141507.278000", "141507.280000", "141507.287000", "141507.289000", "141507.292000", "141507.294000", "141547.233000", "141547.235000", "141547.238000", "141547.240000", "141547.243000", "141547.245000", "141547.248000", "141547.250000", "141547.253000", "141547.255000", "141547.258000", "141547.260000", "141547.263000", "141547.265000", "141547.268000", "141547.270000", "141547.273000", "141547.275000", "141547.278000", "141547.287000", "141547.290000", "141547.292000", "141547.295000", "141547.297000", "141547.300000", "141547.302000", "141547.305000", "141627.242000", "141627.245000", "141627.247000", "141627.250000", "141627.252000", "141627.255000", "141627.257000", "141627.260000", "141627.262000", "141627.265000", "141627.267000", "141627.270000", "141627.272000", "141627.275000", "141627.277000", "141627.280000", "141627.282000", "141627.285000", "141627.288000", "141627.290000", "141627.293000", "141627.295000", "141627.298000", "141627.300000", "141627.303000", "141627.305000", "141627.308000", "141656.606000", "141656.609000", "141656.611000", "141656.614000", "141656.617000", "141656.619000", "141656.622000", "141656.624000", "141656.627000", "141656.629000", "141656.632000", "141656.635000", "141656.637000", "141656.640000", "141656.642000", "141656.645000", "141656.647000", "141656.650000", "141656.657000"],
