{
  "AcquisitionMatrixPE": 104,
  "AcquisitionNumber": 1,
  "AcquisitionTime": "14:18:26.605000",
  "BandwidthPerPixelPhaseEncode": 17.17,
  "BaseResolution": 104,
  "BodyPartExamined": "BRAIN",
  "CoilString": "HC1-7;NC1_2",
  "ConsistencyInfo": "N4_VE11C_LATEST_20160120",
  "ConversionSoftware": "dcm2niix",
  "ConversionSoftwareVersion": "v1.0.20190902",
  "DerivedVendorReportedEchoSpacing": 0.000560011,
  "DeviceSerialNumber": "167006",
  "DwellTime": 2.1e-06,
  "EchoTime": 0.037,
  "EchoTrainLength": 104,
  "EffectiveEchoSpacing": 0.000560011,
  "FlipAngle": 52,
  "HeudiconvVersion": "0.10.0",
  "ImageComments": "Unaliased_MB4_PE3_LB",
  "ImageOrientationPatientDICOM": [0.999731, 0.0124996, 0.0195385, -0.000174487, 0.846399, -0.532549],
  "ImageType": [
    "ORIGINAL",
    "PRIMARY",
    "M",
    "MB",
    "ND",
    "MOSAIC"
],
  "ImagingFrequency": 123.259,
  "InPlanePhaseEncodingDirectionDICOM": "COL",
  "InstitutionAddress": "Chemin_Queen-Mary_4565_Montreal_District_CA_H3W_1W5",
  "InstitutionName": "IUGM",
  "InstitutionalDepartmentName": "Department",
  "MRAcquisitionType": "2D",
  "MagneticFieldStrength": 3,
  "Manufacturer": "Siemens",
  "ManufacturersModelName": "Prisma_fit",
  "Modality": "MR",
  "MultibandAccelerationFactor": 4,
  "PartialFourier": 1,
  "PatientPosition": "HFS",
  "PercentPhaseFOV": 100,
  "PhaseEncodingDirection": "j",
  "PhaseEncodingSteps": 104,
  "PhaseResolution": 1,
  "PixelBandwidth": 2290,
  "ProcedureStepDescription": "games_mario",
  "ProtocolName": "func_task-mario_run-02",
  "PulseSequenceDetails": "%CustomerSeq%_cmrr_mbep2d_bold",
  "ReceiveCoilActiveElements": "HC1-7;NC1,2",
  "ReceiveCoilName": "HeadNeck_64",
  "ReconMatrixPE": 104,
  "RepetitionTime": 1.49,
  "SAR": 0.0434446,
  "ScanOptions": "FS",
  "ScanningSequence": "EP",
  "SequenceName": "epfid2d1_104",
  "SequenceVariant": "SK_SS",
  "SeriesDescription": "func_task-mario_run-02",
  "SeriesNumber": 13,
  "ShimSetting": [615, -7183, -8866, 250, 3, -153, -21, -12],
  "SliceThickness": 2,
  "SliceTiming": [0, 0.785, 0.0975, 0.8825, 0.1975, 0.98, 0.295, 1.0775, 0.3925, 1.1775, 0.49, 1.275, 0.5875, 1.3725, 0.6875, 0, 0.785, 0.0975, 0.8825, 0.1975, 0.98, 0.295, 1.0775, 0.3925, 1.1775, 0.49, 1.275, 0.5875, 1.3725, 0.6875, 0, 0.785, 0.0975, 0.8825, 0.1975, 0.98, 0.295, 1.0775, 0.3925, 1.1775, 0.49, 1.275, 0.5875, 1.3725, 0.6875, 0, 0.785, 0.0975, 0.8825, 0.1975, 0.98, 0.295, 1.0775, 0.3925, 1.1775, 0.49, 1.275, 0.5875, 1.3725, 0.6875],
  "SoftwareVersions": "syngo_MR_E11",
  "SpacingBetweenSlices": 2,
  "StationName": "MRC35049",
  "TaskName": "mario",
  "TotalReadoutTime": 0.0576811,
  "TxRefAmp": 255.066,
  "WipMemBlock": "e1e1f52b-7cbb-4014-b32d-98d6d69c382b||Sequence: R016 ve11c/master r/e634e98; Dec 19 2017 11:00:25 by eja",
  "dcmmeta_affine": [
    [-1.9994618892669678, -0.00034897480509243906, 0.04638808220624924, 105.77477264404297],
    [-0.024999219924211502, 1.692798376083374, -1.0648046731948853, -47.721710205078125],
    [0.0390770398080349, 1.0650980472564697, 1.6923472881317139, -93.13616943359375],
    [0.0, 0.0, 0.0, 1.0]
],
  "dcmmeta_reorient_transform": [
    [0.0, -1.0, 0.0, 103.0],
    [1.0, 0.0, 0.0, 0.0],
    [0.0, 0.0, 1.0, 0.0],
    [0.0, 0.0, 0.0, 1.0]
],
  "dcmmeta_shape": [104, 104, 60, 437],
  "dcmmeta_slice_dim": 2,
  "dcmmeta_version": 0.6,
  "global": {
    "const": {
      "AcquisitionMatrix": [104, 0, 0, 104],
      "AngioFlag": "N",
      "BitsAllocated": 16,
      "BitsStored": 16,
      "BodyPartExamined": "BRAIN",
      "Columns": 832,
      "EchoNumbers": 1,
      "EchoTime": 37.0,
      "EchoTrainLength": 104,
      "FlipAngle": 52.0,
      "HighBit": 15,
      "ImageOrientationPatient": [0.99973096680258, 0.01249961025554, 0.01953851988868, -0.000174487407, 0.84639915916147, -0.5325489957975],
      "ImagePositionPatient": [-833.41594886211, -751.9148189406, 390.04055152741],
      "ImageType": [
        "ORIGINAL",
        "PRIMARY",
        "M",
        "MB",
        "ND",
        "MOSAIC"
],
      "ImagedNucleus": "1H",
      "ImagingFrequency": 123.2589,
      "InPlanePhaseEncodingDirection": "COL",
      "MRAcquisitionType": "2D",
      "MagneticFieldStrength": 3.0,
      "Manufacturer": "SIEMENS",
      "ManufacturerModelName": "Prisma_fit",
      "Modality": "MR",
      "NumberOfAverages": 1.0,
      "NumberOfPhaseEncodingSteps": 104,
      "PercentPhaseFieldOfView": 100.0,
      "PercentSampling": 100.0,
      "PerformedProcedureStepStartTime": "133116.621000",
      "PhotometricInterpretation": "MONOCHROME2",
      "PixelBandwidth": 2290.0,
      "PixelRepresentation": 0,
      "PixelSpacing": [2.0, 2.0],
      "ProtocolName": "func_task-mario_run-02",
      "RepetitionTime": 1490.0,
      "Rows": 832,
      "SAR": 0.04344464347661,
      "SamplesPerPixel": 1,
      "ScanOptions": "FS",
      "ScanningSequence": "EP",
      "SequenceName": "epfid2d1_104",
      "SequenceVariant": [
        "SK",
        "SS"
],
      "SeriesDescription": "func_task-mario_run-02",
      "SeriesNumber": 13,
      "SeriesTime": "141952.441000",
      "SliceLocation": -50.948875064487,
      "SliceThickness": 2.0,
      "SmallestImagePixelValue": 0,
      "SoftwareVersions": "syngo MR E11",
      "SpacingBetweenSlices": 1.9999999923366,
      "SpecificCharacterSet": "ISO_IR 100",
      "StudyID": "1",
      "StudyTime": "133116.494000",
      "TransmitCoilName": "Body",
      "VariableFlipAngleFlag": "N",
      "WindowCenterWidthExplanation": "Algo1",
      "dBdt": 0.0},
    "slices": {}
  },
  "time": {
    "samples": {
      "AcquisitionNumber": [1, 2, 3, 4, 5, 6, 7, 8, 9, 10, 11, 12, 13, 14, 15, 16, 17, 18, 19, 20, 21, 22, 23, 24, 25, 26, 27, 28, 29, 30, 31, 32, 33, 34, 35, 36, 37, 38, 39, 40, 41, 42, 43, 44, 45, 46, 47, 48, 49, 50, 51, 52, 53, 54, 55, 56, 57, 58, 59, 60, 61, 62, 63, 64, 65, 66, 67, 68, 69, 70, 71, 72, 73, 74, 75, 76, 77, 78, 79, 80, 81, 82, 83, 84, 85, 86, 87, 88, 89, 90, 91, 92, 93, 94, 95, 96, 97, 98, 99, 100, 101, 102, 103, 104, 105, 106, 107, 108, 109, 110, 111, 112, 113, 114, 115, 116, 117, 118, 119, 120, 121, 122, 123, 124, 125, 126, 127, 128, 129, 130, 131, 132, 133, 134, 135, 136, 137, 138, 139, 140, 141, 142, 143, 144, 145, 146, 147, 148, 149, 150, 151, 152, 153, 154, 155, 156, 157, 158, 159, 160, 161, 162, 163, 164, 165, 166, 167, 168, 169, 170, 171, 172, 173, 174, 175, 176, 177, 178, 179, 180, 181, 182, 183, 184, 185, 186, 187, 188, 189, 190, 191, 192, 193, 194, 195, 196, 197, 198, 199, 200, 201, 202, 203, 204, 205, 206, 207, 208, 209, 210, 211, 212, 213, 214, 215, 216, 217, 218, 219, 220, 221, 222, 223, 224, 225, 226, 227, 228, 229, 230, 231, 232, 233, 234, 235, 236, 237, 238, 239, 240, 241, 242, 243, 244, 245, 246, 247, 248, 249, 250, 251, 252, 253, 254, 255, 256, 257, 258, 259, 260, 261, 262, 263, 264, 265, 266, 267, 268, 269, 270, 271, 272, 273, 274, 275, 276, 277, 278, 279, 280, 281, 282, 283, 284, 285, 286, 287, 288, 289, 290, 291, 292, 293, 294, 295, 296, 297, 298, 299, 300, 301, 302, 303, 304, 305, 306, 307, 308, 309, 310, 311, 312, 313, 314, 315, 316, 317, 318, 319, 320, 321, 322, 323, 324, 325, 326, 327, 328, 329, 330, 331, 332, 333, 334, 335, 336, 337, 338, 339, 340, 341, 342, 343, 344, 345, 346, 347, 348, 349, 350, 351, 352, 353, 354, 355, 356, 357, 358, 359, 360, 361, 362, 363, 364, 365, 366, 367, 368, 369, 370, 371, 372, 373, 374, 375, 376, 377, 378, 379, 380, 381, 382, 383, 384, 385, 386, 387, 388, 389, 390, 391, 392, 393, 394, 395, 396, 397, 398, 399, 400, 401, 402, 403, 404, 405, 406, 407, 408, 409, 410, 411, 412, 413, 414, 415, 416, 417, 418, 419, 420, 421, 422, 423, 424, 425, 426, 427, 428, 429, 430, 431, 432, 433, 434, 435, 436, 437],
      "AcquisitionTime": ["141826.605000", "141828.095000", "141829.585000", "141831.075000", "141832.565000", "141834.055000", "141835.545000", "141837.035000", "141838.525000", "141840.015000", "141841.505000", "141842.995000", "141844.485000", "141845.975000", "141847.465000", "141848.955000", "141850.445000", "141851.935000", "141853.425000", "141854.915000", "141856.405000", "141857.895000", "141859.385000", "141900.875000", "141902.365000", "141903.855000", "141905.345000", "141906.835000", "141908.325000", "141909.815000", "141911.305000", "141912.795000", "141914.285000", "141915.775000", "141917.265000", "141918.755000", "141920.245000", "141921.735000", "141923.225000", "141924.715000", "141926.205000", "141927.695000", "141929.185000", "141930.675000", "141932.165000", "141933.655000", "141935.145000", "141936.635000", "141938.125000", "141939.615000", "141941.105000", "141942.595000", "141944.085000", "141945.575000", "141947.065000", "141948.555000", "141950.045000", "141951.535000", "141953.025000", "141954.515000", "141956.005000", "141957.495000", "141958.985000", "142000.475000", "142001.965000", "142003.455000", "142004.945000", "142006.435000", "142007.925000", "142009.415000", "142010.905000", "142012.395000", "142013.885000", "142015.375000", "142016.865000", "142018.355000", "142019.845000", "142021.335000", "142022.825000", "142024.315000", "142025.805000", "142027.295000", "142028.785000", "142030.275000", "142031.765000", "142033.255000", "142034.745000", "142036.235000", "142037.725000", "142039.215000", "142040.705000", "142042.195000", "142043.685000", "142045.175000", "142046.665000", "142048.155000", "142049.645000", "142051.135000", "142052.625000", "142054.115000", "142055.605000", "142057.095000", "142058.585000", "142100.075000", "142101.565000", "142103.055000", "142104.545000", "142106.035000", "142107.525000", "142109.015000", "142110.505000", "142111.995000", "142113.485000", "142114.975000", "142116.465000", "142117.955000", "142119.445000", "142120.935000", "142122.425000", "142123.915000", "142125.405000", "142126.895000", "142128.385000", "142129.875000", "142131.365000", "142132.855000", "142134.345000", "142135.835000", "142137.325000", "142138.815000", "142140.305000", "142141.795000", "142143.285000", "142144.775000", "142146.265000", "142147.755000", "142149.245000", "142150.735000", "142152.225000", "142153.715000", "142155.205000", "142156.695000", "142158.185000", "142159.675000", "142201.165000", "142202.655000", "142204.145000", "142205.635000", "142207.125000", "142208.615000", "142210.105000", "142211.595000", "142213.085000", "142214.575000", "142216.065000", "142217.555000", "142219.045000", "142220.535000", "142222.025000", "142223.515000", "142225.005000", "142226.495000", "142227.985000", "142229.475000", "142230.965000", "142232.455000", "142233.945000", "142235.435000", "142236.925000", "142238.415000", "142239.905000", "142241.395000", "142242.885000", "142244.375000", "142245.865000", "142247.355000", "142248.845000", "142250.335000", "142251.825000", "142253.315000", "142254.805000", "142256.295000", "142257.785000", "142259.275000", "142300.765000", "142302.255000", "142303.745000", "142305.235000", "142306.725000", "142308.215000", "142309.705000", "142311.195000", "142312.685000", "142314.175000", "142315.665000", "142317.155000", "142318.645000", "142320.135000", "142321.625000", "142323.115000", "142324.605000", "142326.095000", "142327.585000", "142329.075000", "142330.565000", "142332.055000", "142333.545000", "142335.035000", "142336.525000", "142338.015000", "142339.505000", "142340.995000", "142342.485000", "142343.975000", "142345.465000", "142346.955000", "142348.445000", "142349.935000", "142351.425000", "142352.915000", "142354.405000", "142355.895000", "142357.385000", "142358.875000", "142400.365000", "142401.855000", "142403.345000", "142404.835000", "142406.325000", "142407.815000", "142409.305000", "142410.795000", "142412.285000", "142413.775000", "142415.265000", "142416.755000", "142418.245000", "142419.735000", "142421.225000", "142422.715000", "142424.205000", "142425.695000", "142427.185000", "142428.675000", "142430.165000", "142431.655000", "142433.145000", "142434.635000", "142436.125000", "142437.615000", "142439.105000", "142440.595000", "142442.085000", "142443.575000", "142445.065000", "142446.555000", "142448.045000", "142449.535000", "142451.025000", "142452.515000", "142454.005000", "142455.495000", "142456.985000", "142458.475000", "142459.965000", "142501.455000", "142502.945000", "142504.435000", "142505.925000", "142507.415000", "142508.905000", "142510.395000", "142511.885000", "142513.375000", "142514.865000", "142516.355000", "142517.845000", "142519.335000", "142520.825000", "142522.315000", "142523.805000", "142525.295000", "142526.785000", "142528.275000", "142529.765000", "142531.255000", "142532.745000", "142534.235000", "142535.725000", "142537.215000", "142538.705000", "142540.195000", "142541.685000", "142543.175000", "142544.665000", "142546.155000", "142547.645000", "142549.135000", "142550.625000", "142552.115000", "142553.605000", "142555.095000", "142556.585000", "142558.075000", "142559.565000", "142601.055000", "142602.545000", "142604.035000", "142605.525000", "142607.015000", "142608.505000", "142609.995000", "142611.485000", "142612.975000", "142614.465000", "142615.955000", "142617.445000", "142618.935000", "142620.425000", "142621.915000", "142623.405000", "142624.895000", "142626.385000", "142627.875000", "142629.365000", "142630.855000", "142632.345000", "142633.835000", "142635.325000", "142636.815000", "142638.305000", "142639.795000", "142641.285000", "142642.775000", "142644.265000", "142645.755000", "142647.245000", "142648.735000", "142650.225000", "142651.715000", "142653.205000", "142654.695000", "142656.185000", "142657.675000", "142659.165000", "142700.655000", "142702.145000", "142703.635000", "142705.125000", "142706.615000", "142708.105000", "142709.595000", "142711.085000", "142712.575000", "142714.065000", "142715.555000", "142717.045000", "142718.535000", "142720.025000", "142721.515000", "142723.005000", "142724.495000", "142725.985000", "142727.475000", "142728.965000", "142730.455000", "142731.945000", "142733.435000", "142734.925000", "142736.415000", "142737.905000", "142739.395000", "142740.885000", "142742.375000", "142743.865000", "142745.355000", "142746.845000", "142748.335000", "142749.825000", "142751.315000", "142752.805000", "142754.295000", "142755.785000", "142757.275000", "142758.765000", "142800.255000", "142801.745000", "142803.235000", "142804.725000", "142806.215000", "142807.705000", "142809.195000", "142810.685000", "142812.175000", "142813.665000", "142815.155000", "142816.645000", "142818.135000", "142819.625000", "142821.115000", "142822.605000", "142824.095000", "142825.585000", "142827.075000", "142828.565000", "142830.055000", "142831.545000", "142833.035000", "142834.525000", "142836.015000", "142837.505000", "142838.995000", "142840.485000", "142841.975000", "142843.465000", "142844.955000", "142846.445000", "142847.935000", "142849.425000", "142850.915000", "142852.405000", "142853.895000", "142855.385000", "142856.875000", "142858.365000", "142859.855000", "142901.345000", "142902.835000", "142904.325000", "142905.815000", "142907.305000", "142908.795000", "142910.285000", "142911.775000", "142913.265000", "142914.755000", "142916.245000"],
      "ContentTime": ["141952.444000", "141952.448000", "141952.452000", "141952.455000", "141952.458000", "141952.461000", "141952.476000", "141952.479000", "141952.482000", "141952.486000", "141952.489000", "141952.492000", "141952.496000", "141952.499000", "141952.502000", "141952.506000", "141952.509000", "141952.512000", "141952.515000", "141952.519000", "141952.528000", "141952.531000", "141952.534000", "141952.538000", "141952.541000", "141952.544000", "141952.547000", "141952.551000", "141952.554000", "141952.558000", "141952.561000", "142012.405000", "142012.418000", "142012.422000", "142012.425000", "142012.428000", "142012.432000", "142012.435000", "142012.438000", "142012.442000", "142012.454000", "142012.458000", "142012.461000", "142012.464000", "142012.468000", "142012.471000", "142012.474000", "142012.478000", "142012.481000", "142012.485000", "142012.488000", "142012.491000", "142032.405000", "142032.409000", "142032.412000", "142032.416000", "142032.427000", "142032.430000", "142032.434000", "142032.437000", "142032.440000", "142032.444000", "142032.447000", "142032.450000", "142032.453000", "142032.457000", "142032.460000", "142032.463000", "142032.467000", "142032.470000", "142032.473000", "142032.476000", "142052.405000", "142052.409000", "142052.412000", "142052.416000", "142052.419000", "142052.431000", "142052.435000", "142052.438000", "142052.441000", "142052.445000", "142052.448000", "142052.451000", "142052.455000", "142052.458000", "142052.466000", "142052.470000", "142052.473000", "142052.476000", "142052.480000", "142052.483000", "142132.405000", "142132.409000", "142132.412000", "142132.415000", "142132.419000", "142132.422000", "142132.425000", "142132.429000", "142132.432000", "142132.436000", "142132.451000", "142132.454000", "142132.458000", "142132.461000", "142132.464000", "142132.467000", "142132.471000", "142132.474000", "142132.477000", "142132.481000", "142132.484000", "142132.487000", "142132.490000", "142132.494000", "142132.497000", "142132.500000", "142132.504000", "142132.507000", "142132.510000", "142132.514000", "142132.517000", "142132.520000", "142212.405000", "142212.409000", "142212.412000", "142212.415000", "142212.419000", "142212.422000", "142212.425000", "142212.429000", "142212.432000", "142212.446000", "142212.450000", "142212.453000", "142212.456000", "142212.459000", "142212.463000", "142212.466000", "142212.469000", "142212.487000", "142212.490000", "142212.493000", "142212.497000", "142212.500000", "142212.503000", "142212.507000", "142212.510000", "142212.513000", "142212.517000", "142252.405000", "142252.409000", "142252.412000", "142252.415000", "142252.419000", "142252.422000", "142252.425000", "142252.429000", "142252.432000", "142252.435000", "142252.439000", "142252.442000", "142252.445000", "142252.449000", "142252.452000", "142252.455000", "142252.459000", "142252.462000", "142252.465000", "142252.469000", "142252.472000", "142252.475000", "142252.479000", "142252.482000", "142252.485000", "142252.489000", "142252.492000", "142332.405000", "142332.409000", "142332.412000", "142332.415000", "142332.427000", "142332.431000", "142332.434000", "142332.437000", "142332.441000", "142332.444000", "142332.448000", "142332.451000", "142332.454000", "142332.458000", "142332.461000", "142332.464000", "142332.468000", "142332.471000", "142332.474000", "142332.478000", "142332.481000", "142332.484000", "142332.488000", "142332.491000", "142332.494000", "142332.498000", "142332.501000", "142412.405000", "142412.409000", "142412.412000", "142412.416000", "142412.419000", "142412.422000", "142412.426000", "142412.429000", "142412.432000", "142412.436000", "142412.439000", "142412.442000", "142412.446000", "142412.450000", "142412.454000", "142412.457000", "142412.461000", "142412.465000", "142412.468000", "142412.472000", "142412.475000", "142412.479000", "142412.482000", "142412.486000", "142412.489000", "142412.492000", "142452.405000", "142452.425000", "142452.429000", "142452.432000", "142452.435000", "142452.439000", "142452.442000", "142452.445000", "142452.449000", "142452.452000", "142452.455000", "142452.459000", "142452.462000", "142452.473000", "142452.476000", "142452.479000", "142452.482000", "142452.486000", "142452.489000", "142452.492000", "142452.496000", "142452.499000", "142452.502000", "142452.506000", "142452.509000", "142452.512000", "142452.515000", "142512.405000", "142512.409000", "142512.412000", "142512.416000", "142512.419000", "142512.422000", "142512.426000", "142512.429000", "142512.432000", "142512.435000", "142512.439000", "142512.442000", "142512.445000", "142512.449000", "142552.405000", "142552.409000", "142552.413000", "142552.416000", "142552.419000", "142552.422000", "142552.426000", "142552.429000", "142552.432000", "142552.436000", "142552.439000", "142552.443000", "142552.446000", "142552.449000", "142552.452000", "142552.456000", "142552.459000", "142552.462000", "142552.466000", "142552.469000", "142552.472000", "142552.476000", "142552.479000", "142552.482000", "142552.486000", "142552.489000", "142552.492000", "142632.405000", "142632.412000", "142632.415000", "142632.418000", "142632.422000", "142632.425000", "142632.428000", "142632.432000", "142632.435000", "142632.438000", "142632.442000", "142632.445000", "142632.449000", "142632.452000", "142632.455000", "142632.459000", "142632.462000", "142632.465000", "142632.469000", "142632.472000", "142632.475000", "142632.479000", "142632.482000", "142632.486000", "142632.489000", "142632.492000", "142712.405000", "142712.420000", "142712.424000", "142712.427000", "142712.430000", "142712.434000", "142712.437000", "142712.440000", "142712.444000", "142712.447000", "142712.450000", "142712.453000", "142712.457000", "142712.460000", "142712.463000", "142712.467000", "142712.470000", "142712.474000", "142712.477000", "142712.480000", "142712.483000", "142712.487000", "142712.496000", "142712.499000", "142712.502000", "142712.506000", "142712.509000", "142752.405000", "142752.409000", "142752.412000", "142752.416000", "142752.419000", "142752.422000", "142752.426000", "142752.429000", "142752.432000", "142752.436000", "142752.439000", "142752.442000", "142752.446000", "142752.449000", "142752.452000", "142752.455000", "142752.459000", "142752.462000", "142752.465000", "142752.469000", "142752.472000", "142752.475000", "142752.479000", "142752.482000", "142752.485000", "142752.489000", "142752.492000", "142832.405000", "142832.409000", "142832.412000", "142832.415000", "142832.419000", "142832.422000", "142832.425000", "142832.429000", "142832.432000", "142832.435000", "142832.439000", "142832.442000", "142832.445000", "142832.449000", "142832.452000", "142832.455000", "142832.459000", "142832.462000", "142832.465000", "142832.469000", "142832.472000", "142832.475000", "142832.479000", "142832.482000", "142832.485000", "142832.488000", "142832.492000", "142912.405000", "142912.409000", "142912.412000", "142912.416000", "142912.419000", "142912.422000", "142912.425000", "142912.429000", "142912.432000", "142912.435000", "142912.439000", "142912.442000", "142912.446000", "142912.449000", "142912.452000", "142912.467000", "142912.470000", "142912.474000", "142912.477000", "142912.480000", "142912.484000", "142912.487000", "142912.490000", "142912.494000", "142912.497000", "142912.501000", "142912.504000", "142918.127000", "142918.137000", "142918.141000", "142918.144000"],
