{
  "AcquisitionMatrixPE": 104,
  "AcquisitionNumber": 1,
  "AcquisitionTime": "16:05:49.520000",
  "BandwidthPerPixelPhaseEncode": 17.17,
  "BaseResolution": 104,
  "BodyPartExamined": "BRAIN",
  "CoilString": "HC1-7;NC1_2",
  "ConsistencyInfo": "N4_VE11C_LATEST_20160120",
  "ConversionSoftware": "dcm2niix",
  "ConversionSoftwareVersion": "v1.0.20190902",
  "DerivedVendorReportedEchoSpacing": 0.000560011,
  "DeviceSerialNumber": "167006",
  "DwellTime": 2.1e-06,
  "EchoTime": 0.037,
  "EchoTrainLength": 104,
  "EffectiveEchoSpacing": 0.000560011,
  "FlipAngle": 52,
  "HeudiconvVersion": "0.10.0",
  "ImageComments": "Unaliased_MB4_PE3_LB",
  "ImageOrientationPatientDICOM": [0.998837, -0.0421278, 0.0234522, 0.0472787, 0.951189, -0.304967],
  "ImageType": [
    "ORIGINAL",
    "PRIMARY",
    "P",
    "MB",
    "ND",
    "MOSAIC"
],
  "ImagingFrequency": 123.259,
  "InPlanePhaseEncodingDirectionDICOM": "COL",
  "InstitutionAddress": "Chemin_Queen-Mary_4565_Montreal_District_CA_H3W_1W5",
  "InstitutionName": "IUGM",
  "InstitutionalDepartmentName": "Department",
  "MRAcquisitionType": "2D",
  "MagneticFieldStrength": 3,
  "Manufacturer": "Siemens",
  "ManufacturersModelName": "Prisma_fit",
  "Modality": "MR",
  "MultibandAccelerationFactor": 4,
  "PartialFourier": 1,
  "PatientPosition": "HFS",
  "PercentPhaseFOV": 100,
  "PhaseEncodingDirection": "j",
  "PhaseEncodingSteps": 104,
  "PhaseResolution": 1,
  "PixelBandwidth": 2290,
  "ProcedureStepDescription": "games_mario",
  "ProtocolName": "func_task-mario_run-04",
  "PulseSequenceDetails": "%CustomerSeq%_cmrr_mbep2d_bold",
  "ReceiveCoilActiveElements": "HC1-7;NC1,2",
  "ReceiveCoilName": "HeadNeck_64",
  "ReconMatrixPE": 104,
  "RepetitionTime": 1.49,
  "SAR": 0.0619666,
  "ScanOptions": "FS",
  "ScanningSequence": "EP",
  "SequenceName": "epfid2d1_104",
  "SequenceVariant": "SK_SS",
  "SeriesDescription": "func_task-mario_run-04",
  "SeriesNumber": 20,
  "ShimSetting": [637, -7249, -8807, 617, 12, -183, -96, -8],
  "SliceThickness": 2,
  "SliceTiming": [0, 0.785, 0.0975, 0.8825, 0.195, 0.98, 0.295, 1.0775, 0.3925, 1.175, 0.49, 1.275, 0.5875, 1.3725, 0.685, 0, 0.785, 0.0975, 0.8825, 0.195, 0.98, 0.295, 1.0775, 0.3925, 1.175, 0.49, 1.275, 0.5875, 1.3725, 0.685, 0, 0.785, 0.0975, 0.8825, 0.195, 0.98, 0.295, 1.0775, 0.3925, 1.175, 0.49, 1.275, 0.5875, 1.3725, 0.685, 0, 0.785, 0.0975, 0.8825, 0.195, 0.98, 0.295, 1.0775, 0.3925, 1.175, 0.49, 1.275, 0.5875, 1.3725, 0.685],
  "SoftwareVersions": "syngo_MR_E11",
  "SpacingBetweenSlices": 2,
  "StationName": "MRC35049",
  "TaskName": "mario",
  "TotalReadoutTime": 0.0576811,
  "TxRefAmp": 285.18,
  "WipMemBlock": "1f1a0880-287c-4d40-8f23-daa355b10fc5||Sequence: R016 ve11c/master r/e634e98; Dec 19 2017 11:00:25 by eja",
  "dcmmeta_affine": [
    [-1.9976738691329956, 0.09455735236406326, 0.018919745460152626, 101.69373321533203],
    [0.08425569534301758, 1.9023770093917847, -0.6114429831504822, -69.61274719238281],
    [0.04690445959568024, 0.6099348068237305, 1.904147982597351, -58.973392486572266],
    [0.0, 0.0, 0.0, 1.0]
],
  "dcmmeta_reorient_transform": [
    [0.0, -1.0, 0.0, 103.0],
    [1.0, 0.0, 0.0, 0.0],
    [0.0, 0.0, 1.0, 0.0],
    [0.0, 0.0, 0.0, 1.0]
],
  "dcmmeta_shape": [104, 104, 60, 515],
  "dcmmeta_slice_dim": 2,
  "dcmmeta_version": 0.6,
  "global": {
    "const": {
      "AcquisitionMatrix": [104, 0, 0, 104],
      "AngioFlag": "N",
      "BitsAllocated": 16,
      "BitsStored": 16,
      "BodyPartExamined": "BRAIN",
      "Columns": 832,
      "EchoNumbers": 1,
      "EchoTime": 37.0,
      "EchoTrainLength": 104,
      "FlipAngle": 52.0,
      "HighBit": 15,
      "ImageOrientationPatient": [0.99883694240334, -0.0421278458465, 0.02345223005764, 0.04727867699412, 0.95118852715638, -0.304967395811],
      "ImagePositionPatient": [-873.00531343981, -788.12826460552, 208.79293121556],
      "ImageType": [
        "ORIGINAL",
        "PRIMARY",
        "P",
        "MB",
        "ND",
        "MOSAIC"
],
      "ImagedNucleus": "1H",
      "ImagingFrequency": 123.258904,
      "InPlanePhaseEncodingDirection": "COL",
      "LargestImagePixelValue": 4095,
      "MRAcquisitionType": "2D",
      "MagneticFieldStrength": 3.0,
      "Manufacturer": "SIEMENS",
      "ManufacturerModelName": "Prisma_fit",
      "Modality": "MR",
      "NumberOfAverages": 1.0,
      "NumberOfPhaseEncodingSteps": 104,
      "PercentPhaseFieldOfView": 100.0,
      "PercentSampling": 100.0,
      "PerformedProcedureStepStartTime": "150136.413000",
      "PhotometricInterpretation": "MONOCHROME2",
      "PixelBandwidth": 2290.0,
      "PixelRepresentation": 0,
      "PixelSpacing": [2.0, 2.0],
      "ProtocolName": "func_task-mario_run-04",
      "RepetitionTime": 1490.0,
      "RescaleIntercept": -4096.0,
      "RescaleSlope": 2.0,
      "RescaleType": "US",
      "Rows": 832,
      "SAR": 0.06196655600287,
      "SamplesPerPixel": 1,
      "ScanOptions": "FS",
      "ScanningSequence": "EP",
      "SequenceName": "epfid2d1_104",
      "SequenceVariant": [
        "SK",
        "SS"
],
      "SeriesDescription": "func_task-mario_run-04",
      "SeriesNumber": 20,
      "SeriesTime": "160712.809000",
      "SliceLocation": -33.902910568133,
      "SliceThickness": 2.0,
      "SmallestImagePixelValue": 0,
      "SoftwareVersions": "syngo MR E11",
      "SpacingBetweenSlices": 2.0000000316277,
      "SpecificCharacterSet": "ISO_IR 100",
      "StudyID": "1",
      "StudyTime": "150136.333000",
      "TransmitCoilName": "Body",
      "VariableFlipAngleFlag": "N",
      "WindowCenterWidthExplanation": "Algo1",
      "dBdt": 0.0},
    "slices": {}
  },
  "time": {
    "samples": {
      "AcquisitionNumber": [1, 2, 3, 4, 5, 6, 7, 8, 9, 10, 11, 12, 13, 14, 15, 16, 17, 18, 19, 20, 21, 22, 23, 24, 25, 26, 27, 28, 29, 30, 31, 32, 33, 34, 35, 36, 37, 38, 39, 40, 41, 42, 43, 44, 45, 46, 47, 48, 49, 50, 51, 52, 53, 54, 55, 56, 57, 58, 59, 60, 61, 62, 63, 64, 65, 66, 67, 68, 69, 70, 71, 72, 73, 74, 75, 76, 77, 78, 79, 80, 81, 82, 83, 84, 85, 86, 87, 88, 89, 90, 91, 92, 93, 94, 95, 96, 97, 98, 99, 100, 101, 102, 103, 104, 105, 106, 107, 108, 109, 110, 111, 112, 113, 114, 115, 116, 117, 118, 119, 120, 121, 122, 123, 124, 125, 126, 127, 128, 129, 130, 131, 132, 133, 134, 135, 136, 137, 138, 139, 140, 141, 142, 143, 144, 145, 146, 147, 148, 149, 150, 151, 152, 153, 154, 155, 156, 157, 158, 159, 160, 161, 162, 163, 164, 165, 166, 167, 168, 169, 170, 171, 172, 173, 174, 175, 176, 177, 178, 179, 180, 181, 182, 183, 184, 185, 186, 187, 188, 189, 190, 191, 192, 193, 194, 195, 196, 197, 198, 199, 200, 201, 202, 203, 204, 205, 206, 207, 208, 209, 210, 211, 212, 213, 214, 215, 216, 217, 218, 219, 220, 221, 222, 223, 224, 225, 226, 227, 228, 229, 230, 231, 232, 233, 234, 235, 236, 237, 238, 239, 240, 241, 242, 243, 244, 245, 246, 247, 248, 249, 250, 251, 252, 253, 254, 255, 256, 257, 258, 259, 260, 261, 262, 263, 264, 265, 266, 267, 268, 269, 270, 271, 272, 273, 274, 275, 276, 277, 278, 279, 280, 281, 282, 283, 284, 285, 286, 287, 288, 289, 290, 291, 292, 293, 294, 295, 296, 297, 298, 299, 300, 301, 302, 303, 304, 305, 306, 307, 308, 309, 310, 311, 312, 313, 314, 315, 316, 317, 318, 319, 320, 321, 322, 323, 324, 325, 326, 327, 328, 329, 330, 331, 332, 333, 334, 335, 336, 337, 338, 339, 340, 341, 342, 343, 344, 345, 346, 347, 348, 349, 350, 351, 352, 353, 354, 355, 356, 357, 358, 359, 360, 361, 362, 363, 364, 365, 366, 367, 368, 369, 370, 371, 372, 373, 374, 375, 376, 377, 378, 379, 380, 381, 382, 383, 384, 385, 386, 387, 388, 389, 390, 391, 392, 393, 394, 395, 396, 397, 398, 399, 400, 401, 402, 403, 404, 405, 406, 407, 408, 409, 410, 411, 412, 413, 414, 415, 416, 417, 418, 419, 420, 421, 422, 423, 424, 425, 426, 427, 428, 429, 430, 431, 432, 433, 434, 435, 436, 437, 438, 439, 440, 441, 442, 443, 444, 445, 446, 447, 448, 449, 450, 451, 452, 453, 454, 455, 456, 457, 458, 459, 460, 461, 462, 463, 464, 465, 466, 467, 468, 469, 470, 471, 472, 473, 474, 475, 476, 477, 478, 479, 480, 481, 482, 483, 484, 485, 486, 487, 488, 489, 490, 491, 492, 493, 494, 495, 496, 497, 498, 499, 500, 501, 502, 503, 504, 505, 506, 507, 508, 509, 510, 511, 512, 513, 514, 515],
      "AcquisitionTime": ["160549.520000", "160551.010000", "160552.500000", "160553.990000", "160555.480000", "160556.970000", "160558.460000", "160559.950000", "160601.440000", "160602.930000", "160604.420000", "160605.910000", "160607.400000", "160608.890000", "160610.380000", "160611.870000", "160613.360000", "160614.850000", "160616.340000", "160617.830000", "160619.320000", "160620.810000", "160622.300000", "160623.790000", "160625.280000", "160626.770000", "160628.260000", "160629.750000", "160631.240000", "160632.730000", "160634.220000", "160635.710000", "160637.200000", "160638.690000", "160640.180000", "160641.670000", "160643.160000", "160644.650000", "160646.140000", "160647.630000", "160649.120000", "160650.610000", "160652.100000", "160653.590000", "160655.080000", "160656.570000", "160658.060000", "160659.550000", "160701.040000", "160702.530000", "160704.020000", "160705.510000", "160707.000000", "160708.490000", "160709.980000", "160711.470000", "160712.960000", "160714.450000", "160715.940000", "160717.430000", "160718.920000", "160720.410000", "160721.900000", "160723.390000", "160724.880000", "160726.370000", "160727.860000", "160729.350000", "160730.840000", "160732.330000", "160733.820000", "160735.310000", "160736.800000", "160738.290000", "160739.780000", "160741.270000", "160742.760000", "160744.250000", "160745.740000", "160747.230000", "160748.720000", "160750.210000", "160751.700000", "160753.190000", "160754.680000", "160756.170000", "160757.660000", "160759.150000", "160800.640000", "160802.130000", "160803.620000", "160805.110000", "160806.600000", "160808.090000", "160809.580000", "160811.070000", "160812.560000", "160814.050000", "160815.540000", "160817.030000", "160818.520000", "160820.010000", "160821.500000", "160822.990000", "160824.480000", "160825.970000", "160827.460000", "160828.950000", "160830.440000", "160831.930000", "160833.420000", "160834.910000", "160836.400000", "160837.890000", "160839.380000", "160840.870000", "160842.360000", "160843.850000", "160845.340000", "160846.830000", "160848.320000", "160849.810000", "160851.300000", "160852.790000", "160854.280000", "160855.770000", "160857.260000", "160858.750000", "160900.240000", "160901.730000", "160903.220000", "160904.710000", "160906.200000", "160907.690000", "160909.180000", "160910.670000", "160912.160000", "160913.650000", "160915.140000", "160916.630000", "160918.120000", "160919.610000", "160921.100000", "160922.590000", "160924.080000", "160925.570000", "160927.060000", "160928.550000", "160930.040000", "160931.530000", "160933.020000", "160934.510000", "160936.000000", "160937.490000", "160938.980000", "160940.470000", "160941.960000", "160943.450000", "160944.940000", "160946.430000", "160947.920000", "160949.410000", "160950.900000", "160952.390000", "160953.880000", "160955.370000", "160956.860000", "160958.350000", "160959.840000", "161001.330000", "161002.820000", "161004.310000", "161005.800000", "161007.290000", "161008.780000", "161010.270000", "161011.760000", "161013.250000", "161014.740000", "161016.230000", "161017.720000", "161019.210000", "161020.700000", "161022.190000", "161023.680000", "161025.170000", "161026.660000", "161028.150000", "161029.640000", "161031.130000", "161032.620000", "161034.110000", "161035.600000", "161037.090000", "161038.580000", "161040.070000", "161041.560000", "161043.050000", "161044.540000", "161046.030000", "161047.520000", "161049.010000", "161050.500000", "161051.990000", "161053.480000", "161054.970000", "161056.460000", "161057.950000", "161059.440000", "161100.930000", "161102.420000", "161103.910000", "161105.400000", "161106.890000", "161108.380000", "161109.870000", "161111.360000", "161112.850000", "161114.340000", "161115.830000", "161117.320000", "161118.810000", "161120.300000", "161121.790000", "161123.280000", "161124.770000", "161126.260000", "161127.750000", "161129.240000", "161130.730000", "161132.220000", "161133.710000", "161135.200000", "161136.690000", "161138.180000", "161139.670000", "161141.160000", "161142.650000", "161144.140000", "161145.630000", "161147.120000", "161148.610000", "161150.100000", "161151.590000", "161153.080000", "161154.570000", "161156.060000", "161157.550000", "161159.040000", "161200.530000", "161202.020000", "161203.510000", "161205.000000", "161206.490000", "161207.980000", "161209.470000", "161210.960000", "161212.450000", "161213.940000", "161215.430000", "161216.920000", "161218.410000", "161219.900000", "161221.390000", "161222.880000", "161224.370000", "161225.860000", "161227.350000", "161228.840000", "161230.330000", "161231.820000", "161233.310000", "161234.800000", "161236.290000", "161237.780000", "161239.270000", "161240.760000", "161242.250000", "161243.740000", "161245.230000", "161246.720000", "161248.210000", "161249.700000", "161251.190000", "161252.680000", "161254.170000", "161255.660000", "161257.150000", "161258.640000", "161300.130000", "161301.620000", "161303.110000", "161304.600000", "161306.090000", "161307.580000", "161309.070000", "161310.560000", "161312.050000", "161313.540000", "161315.030000", "161316.520000", "161318.010000", "161319.500000", "161320.990000", "161322.480000", "161323.970000", "161325.460000", "161326.950000", "161328.440000", "161329.930000", "161331.420000", "161332.910000", "161334.400000", "161335.890000", "161337.380000", "161338.870000", "161340.360000", "161341.850000", "161343.340000", "161344.830000", "161346.320000", "161347.810000", "161349.300000", "161350.790000", "161352.280000", "161353.770000", "161355.260000", "161356.750000", "161358.240000", "161359.730000", "161401.220000", "161402.710000", "161404.200000", "161405.690000", "161407.180000", "161408.670000", "161410.160000", "161411.650000", "161413.140000", "161414.630000", "161416.120000", "161417.610000", "161419.100000", "161420.590000", "161422.080000", "161423.570000", "161425.060000", "161426.550000", "161428.040000", "161429.530000", "161431.020000", "161432.510000", "161434.000000", "161435.490000", "161436.980000", "161438.470000", "161439.960000", "161441.450000", "161442.940000", "161444.430000", "161445.920000", "161447.410000", "161448.900000", "161450.390000", "161451.880000", "161453.370000", "161454.860000", "161456.350000", "161457.840000", "161459.330000", "161500.820000", "161502.310000", "161503.800000", "161505.290000", "161506.780000", "161508.270000", "161509.760000", "161511.250000", "161512.740000", "161514.230000", "161515.720000", "161517.210000", "161518.700000", "161520.190000", "161521.680000", "161523.170000", "161524.660000", "161526.150000", "161527.640000", "161529.130000", "161530.620000", "161532.110000", "161533.600000", "161535.090000", "161536.580000", "161538.070000", "161539.560000", "161541.050000", "161542.540000", "161544.030000", "161545.520000", "161547.010000", "161548.500000", "161549.990000", "161551.480000", "161552.970000", "161554.460000", "161555.950000", "161557.440000", "161558.930000", "161600.420000", "161601.910000", "161603.400000", "161604.890000", "161606.380000", "161607.870000", "161609.360000", "161610.850000", "161612.340000", "161613.830000", "161615.320000", "161616.810000", "161618.300000", "161619.790000", "161621.280000", "161622.770000", "161624.260000", "161625.750000", "161627.240000", "161628.730000", "161630.220000", "161631.710000", "161633.200000", "161634.690000", "161636.180000", "161637.670000", "161639.160000", "161640.650000", "161642.140000", "161643.630000", "161645.120000", "161646.610000", "161648.100000", "161649.590000", "161651.080000", "161652.570000", "161654.060000", "161655.550000", "161657.040000", "161658.530000", "161700.020000", "161701.510000", "161703.000000", "161704.490000", "161705.980000", "161707.470000", "161708.960000", "161710.450000", "161711.940000", "161713.430000", "161714.920000", "161716.410000", "161717.900000", "161719.390000", "161720.880000", "161722.370000", "161723.860000", "161725.350000", "161726.840000", "161728.330000", "161729.820000", "161731.310000", "161732.800000", "161734.290000", "161735.780000", "161737.270000", "161738.760000", "161740.250000", "161741.740000", "161743.230000", "161744.720000", "161746.210000", "161747.700000", "161749.190000", "161750.680000", "161752.170000", "161753.660000", "161755.150000", "161756.640000", "161758.130000", "161759.620000", "161801.110000", "161802.600000", "161804.090000", "161805.580000", "161807.070000", "161808.560000", "161810.050000", "161811.540000", "161813.030000", "161814.520000", "161816.010000", "161817.500000", "161818.990000", "161820.480000", "161821.970000", "161823.460000", "161824.950000", "161826.440000", "161827.930000", "161829.420000", "161830.910000", "161832.400000", "161833.890000", "161835.380000"],
      "ContentTime": ["160712.811000", "160712.814000", "160712.817000", "160712.819000", "160712.822000", "160712.824000", "160712.827000", "160712.829000", "160712.832000", "160712.834000", "160712.836000", "160712.839000", "160712.841000", "160712.844000", "160712.847000", "160712.849000", "160712.851000", "160712.854000", "160712.857000", "160712.859000", "160712.862000", "160712.864000", "160712.867000", "160712.869000", "160712.872000", "160712.874000", "160712.877000", "160712.883000", "160732.713000", "160732.716000", "160732.719000", "160732.721000", "160732.724000", "160732.728000", "160732.731000", "160732.733000", "160732.736000", "160732.738000", "160732.741000", "160732.743000", "160732.746000", "160732.748000", "160732.751000", "160732.753000", "160732.756000", "160732.758000", "160732.761000", "160732.763000", "160752.717000", "160752.720000", "160752.722000", "160752.725000", "160752.728000", "160752.730000", "160752.733000", "160752.735000", "160752.737000", "160752.740000", "160752.742000", "160752.745000", "160752.747000", "160752.750000", "160752.752000", "160752.755000", "160752.757000", "160752.760000", "160752.762000", "160752.765000", "160752.767000", "160812.710000", "160812.713000", "160812.716000", "160812.718000", "160812.721000", "160812.723000", "160812.726000", "160812.728000", "160812.731000", "160812.734000", "160812.736000", "160812.738000", "160812.741000", "160812.743000", "160812.746000", "160812.748000", "160812.751000", "160812.753000", "160812.756000", "160812.758000", "160852.770000", "160852.773000", "160852.775000", "160852.778000", "160852.780000", "160852.783000", "160852.786000", "160852.788000", "160852.791000", "160852.793000", "160852.796000", "160852.798000", "160852.801000", "160852.804000", "160852.806000", "160852.809000", "160852.811000", "160852.814000", "160852.816000", "160852.819000", "160852.821000", "160852.824000", "160852.827000", "160852.829000", "160852.832000", "160852.834000", "160852.837000", "160852.839000", "160852.842000", "160852.844000", "160852.847000", "160852.849000", "160852.852000", "160932.737000", "160932.740000", "160932.743000", "160932.745000", "160932.748000", "160932.750000", "160932.753000", "160932.755000", "160932.758000", "160932.760000", "160932.763000", "160932.766000", "160932.768000", "160932.771000", "160932.773000", "160932.776000", "160932.778000", "160932.781000", "160932.784000", "160932.786000", "160932.789000", "160932.791000", "160932.794000", "160932.796000", "160932.799000", "160932.801000", "160932.804000", "161012.774000", "161012.777000", "161012.779000", "161012.782000", "161012.789000", "161012.792000", "161012.794000", "161012.797000", "161012.799000", "161012.802000", "161012.805000", "161012.807000", "161012.810000", "161012.812000", "161012.815000", "161012.817000", "161012.820000", "161012.823000", "161012.825000", "161012.828000", "161012.830000", "161012.833000", "161012.835000", "161012.838000", "161012.840000", "161012.843000", "161052.730000", "161052.734000", "161052.737000", "161052.739000", "161052.742000", "161052.744000", "161052.747000", "161052.749000", "161052.752000", "161052.754000", "161052.757000", "161052.759000", "161052.762000", "161052.764000", "161052.767000", "161052.769000", "161052.772000", "161052.774000", "161052.777000", "161052.779000", "161052.782000", "161052.784000", "161052.787000", "161052.790000", "161052.792000", "161052.795000", "161052.797000", "161132.761000", "161132.763000", "161132.766000", "161132.769000", "161132.771000", "161132.773000", "161132.776000", "161132.778000", "161132.781000", "161132.784000", "161132.786000", "161132.789000", "161132.791000", "161132.794000", "161132.796000", "161132.799000", "161132.801000", "161132.804000", "161132.806000", "161132.809000", "161132.811000", "161132.814000", "161132.816000", "161132.819000", "161132.821000", "161132.824000", "161132.826000", "161212.729000", "161212.732000", "161212.735000", "161212.737000", "161212.740000", "161212.742000", "161212.745000", "161212.747000", "161212.750000", "161212.752000", "161212.755000", "161212.758000", "161212.760000", "161212.763000", "161212.765000", "161212.768000", "161212.770000", "161212.773000", "161212.776000", "161212.778000", "161212.781000", "161212.783000", "161212.786000", "161212.788000", "161212.791000", "161212.793000", "161212.796000", "161252.749000", "161252.751000", "161252.754000", "161252.757000", "161252.759000", "161252.762000", "161252.764000", "161252.767000", "161252.769000", "161252.772000", "161252.774000", "161252.777000", "161252.779000", "161252.782000", "161252.784000", "161252.787000", "161252.789000", "161252.801000", "161252.804000", "161252.806000", "161252.809000", "161252.812000", "161252.814000", "161252.817000", "161252.819000", "161252.822000", "161252.824000", "161332.761000", "161332.764000", "161332.766000", "161332.769000", "161332.771000", "161332.774000", "161332.776000", "161332.779000", "161332.781000", "161332.784000", "161332.786000", "161332.789000", "161332.791000", "161332.794000", "161332.796000", "161332.799000", "161332.801000", "161332.804000", "161332.806000", "161332.809000", "161332.811000", "161332.814000", "161332.816000", "161332.819000", "161332.821000", "161332.824000", "161332.826000", "161412.734000", "161412.737000", "161412.740000", "161412.742000", "161412.745000", "161412.747000", "161412.750000", "161412.752000", "161412.755000", "161412.757000", "161412.760000", "161412.762000", "161412.765000", "161412.767000", "161412.770000", "161412.772000", "161412.775000", "161412.777000", "161412.780000", "161412.783000", "161412.785000", "161412.787000", "161412.790000", "161412.792000", "161412.795000", "161412.797000", "161412.800000", "161432.682000", "161432.685000", "161432.687000", "161432.690000", "161432.693000", "161432.695000", "161432.698000", "161432.700000", "161432.703000", "161432.705000", "161432.708000", "161432.710000", "161432.713000", "161512.754000", "161512.756000", "161512.759000", "161512.761000", "161512.764000", "161512.766000", "161512.769000", "161512.771000", "161512.774000", "161512.776000", "161512.779000", "161512.781000", "161512.784000", "161512.786000", "161512.789000", "161512.791000", "161512.794000", "161512.796000", "161512.799000", "161512.801000", "161512.804000", "161512.806000", "161512.809000", "161512.812000", "161512.814000", "161512.817000", "161512.819000", "161552.750000", "161552.753000", "161552.756000", "161552.758000", "161552.761000", "161552.763000", "161552.766000", "161552.768000", "161552.771000", "161552.773000", "161552.776000", "161552.778000", "161552.781000", "161552.783000", "161552.786000", "161552.788000", "161552.791000", "161552.793000", "161552.796000", "161552.798000", "161552.801000", "161552.803000", "161552.806000", "161552.808000", "161552.811000", "161552.813000", "161552.816000", "161632.747000", "161632.750000", "161632.753000", "161632.755000", "161632.758000", "161632.760000", "161632.763000", "161632.765000", "161632.768000", "161632.770000", "161632.773000", "161632.775000", "161632.778000", "161632.781000", "161632.783000", "161632.786000", "161632.788000", "161632.791000", "161632.793000", "161632.796000", "161632.798000", "161632.801000", "161632.804000", "161632.806000", "161632.809000", "161632.811000", "161712.739000", "161712.742000", "161712.745000", "161712.747000", "161712.750000", "161712.752000", "161712.755000", "161712.757000", "161712.760000", "161712.762000", "161712.765000", "161712.767000", "161712.770000", "161712.772000", "161712.775000", "161712.777000", "161712.780000", "161712.782000", "161712.785000", "161712.787000", "161712.790000", "161712.792000", "161712.795000", "161712.797000", "161712.800000", "161712.803000", "161712.805000", "161753.147000", "161753.149000", "161753.152000", "161753.154000", "161753.157000", "161753.220000", "161753.222000", "161753.225000", "161753.227000", "161753.230000", "161753.232000", "161753.235000", "161753.237000", "161753.240000", "161753.242000", "161753.245000", "161753.247000", "161753.250000", "161753.252000", "161753.255000", "161753.257000", "161753.260000", "161753.262000", "161753.265000", "161753.267000", "161753.270000", "161753.272000", "161832.739000", "161832.742000", "161832.744000", "161832.747000", "161832.749000", "161832.752000", "161832.754000", "161832.757000", "161832.759000", "161832.762000", "161832.765000", "161832.767000", "161832.770000", "161832.772000", "161832.775000", "161832.777000", "161832.780000", "161832.783000", "161832.785000", "161832.788000", "161832.790000", "161832.793000", "161832.795000", "161832.798000", "161832.800000", "161832.803000", "161832.806000", "161838.406000", "161838.409000", "161838.412000", "161838.414000"],
