{
  "AcquisitionMatrixPE": 104,
  "AcquisitionNumber": 1,
  "AcquisitionTime": "13:59:20.737500",
  "BandwidthPerPixelPhaseEncode": 17.17,
  "BaseResolution": 104,
  "BodyPartExamined": "BRAIN",
  "CoilCombinationMethod": "Sum of Squares",
  "ConsistencyInfo": "N4_VE11C_LATEST_20160120",
  "ConversionSoftware": "dcm2niix",
  "ConversionSoftwareVersion": "v1.0.20211006",
  "DerivedVendorReportedEchoSpacing": 0.000560011,
  "DeviceSerialNumber": "167006",
  "DwellTime": 2.1e-06,
  "EchoTime": 0.037,
  "EchoTrainLength": 104,
  "EffectiveEchoSpacing": 0.000560011,
  "FlipAngle": 52,
  "HeudiconvVersion": "0.10.0",
  "ImageComments": "Unaliased MB4/PE3/LB",
  "ImageOrientationPatientDICOM": [0.99971, 0.021788, 0.0102773, -0.0137849, 0.867252, -0.497678],
  "ImageOrientationText": "Tra>Cor(-29.8)>Sag(1.1)",
  "ImageType": [
    "ORIGINAL",
    "PRIMARY",
    "M",
    "MB",
    "ND",
    "MOSAIC"
],
  "ImagingFrequency": 123.259,
  "InPlanePhaseEncodingDirectionDICOM": "COL",
  "InstitutionAddress": "Chemin Queen-Mary 4565,Montreal,District,CA,H3W 1W5",
  "InstitutionName": "IUGM",
  "InstitutionalDepartmentName": "Department",
  "MRAcquisitionType": "2D",
  "MagneticFieldStrength": 3,
  "Manufacturer": "Siemens",
  "ManufacturersModelName": "Prisma_fit",
  "MatrixCoilMode": "SENSE",
  "Modality": "MR",
  "MultibandAccelerationFactor": 4,
  "PartialFourier": 1,
  "PatientPosition": "HFS",
  "PercentPhaseFOV": 100,
  "PercentSampling": 100,
  "PhaseEncodingDirection": "j",
  "PhaseEncodingSteps": 104,
  "PhaseResolution": 1,
  "PixelBandwidth": 2290,
  "ProcedureStepDescription": "games^mario",
  "ProtocolName": "func_task-mario_run-04",
  "PulseSequenceDetails": "%CustomerSeq%\\cmrr_mbep2d_bold",
  "ReceiveCoilActiveElements": "HC1-7;NC1,2",
  "ReceiveCoilName": "HeadNeck_64",
  "ReconMatrixPE": 104,
  "RepetitionTime": 1.49,
  "SAR": 0.0647578,
  "ScanOptions": "FS",
  "ScanningSequence": "EP",
  "SequenceName": "epfid2d1_104",
  "SequenceVariant": "SK\\SS",
  "SeriesDescription": "func_task-mario_run-04",
  "SeriesNumber": 19,
  "ShimSetting": [616, -7186, -8862, 300, 37, -152, -11, -25],
  "SliceThickness": 2,
  "SliceTiming": [0, 0.785, 0.1, 0.8825, 0.1975, 0.98, 0.295, 1.08, 0.3925, 1.1775, 0.49, 1.275, 0.59, 1.3725, 0.6875, 0, 0.785, 0.1, 0.8825, 0.1975, 0.98, 0.295, 1.08, 0.3925, 1.1775, 0.49, 1.275, 0.59, 1.3725, 0.6875, 0, 0.785, 0.1, 0.8825, 0.1975, 0.98, 0.295, 1.08, 0.3925, 1.1775, 0.49, 1.275, 0.59, 1.3725, 0.6875, 0, 0.785, 0.1, 0.8825, 0.1975, 0.98, 0.295, 1.08, 0.3925, 1.1775, 0.49, 1.275, 0.59, 1.3725, 0.6875],
  "SoftwareVersions": "syngo MR E11",
  "SpacingBetweenSlices": 2,
  "StationName": "MRC35049",
  "TaskName": "mario",
  "TotalReadoutTime": 0.0576811,
  "TxRefAmp": 300.782,
  "WipMemBlock": "12e46f20-4563-41f5-8cfc-b1181b4d1aa6||Sequence: R016 ve11c/master r/e634e98; Dec 19 2017 11:00:25 by eja",
  "dcmmeta_affine": [
    [-1.9994195699691772, -0.02756989561021328, 0.03951285406947136, 107.16554260253906],
    [-0.04357608035206795, 1.7345044612884521, -0.9947840571403503, -50.182464599609375],
    [0.020554566755890846, 0.9953562617301941, 1.7346018552780151, -91.64247131347656],
    [0.0, 0.0, 0.0, 1.0]
],
  "dcmmeta_reorient_transform": [
    [0.0, -1.0, 0.0, 103.0],
    [1.0, 0.0, 0.0, 0.0],
    [0.0, 0.0, 1.0, 0.0],
    [0.0, 0.0, 0.0, 1.0]
],
  "dcmmeta_shape": [104, 104, 60, 465],
  "dcmmeta_slice_dim": 2,
  "dcmmeta_version": 0.6,
  "global": {
    "const": {
      "AcquisitionMatrix": [104, 0, 0, 104],
      "AngioFlag": "N",
      "BitsAllocated": 16,
      "BitsStored": 16,
      "BodyPartExamined": "BRAIN",
      "Columns": 832,
      "EchoNumbers": 1,
      "EchoTime": 37.0,
      "EchoTrainLength": 104,
      "FlipAngle": 52.0,
      "HighBit": 15,
      "ImageOrientationPatient": [0.99970978727428, 0.02178803982016, 0.01027728314377, -0.0137849480829, 0.86725224751351, -0.4976781232776],
      "ImagePositionPatient": [-822.07912379998, -775.69282582431, 365.70703603968],
      "ImageType": [
        "ORIGINAL",
        "PRIMARY",
        "M",
        "MB",
        "ND",
        "MOSAIC"
],
      "ImagedNucleus": "1H",
      "ImagingFrequency": 123.258921,
      "InPlanePhaseEncodingDirection": "COL",
      "MRAcquisitionType": "2D",
      "MagneticFieldStrength": 3.0,
      "Manufacturer": "SIEMENS",
      "ManufacturerModelName": "Prisma_fit",
      "Modality": "MR",
      "NumberOfAverages": 1.0,
      "NumberOfPhaseEncodingSteps": 104,
      "PercentPhaseFieldOfView": 100.0,
      "PercentSampling": 100.0,
      "PerformedProcedureStepStartTime": "120447.800000",
      "PhotometricInterpretation": "MONOCHROME2",
      "PixelBandwidth": 2290.0,
      "PixelRepresentation": 0,
      "PixelSpacing": [2.0, 2.0],
      "ProtocolName": "func_task-mario_run-04",
      "RepetitionTime": 1490.0,
      "Rows": 832,
      "SAR": 0.06475784629126,
      "SamplesPerPixel": 1,
      "ScanOptions": "FS",
      "ScanningSequence": "EP",
      "SequenceName": "epfid2d1_104",
      "SequenceVariant": [
        "SK",
        "SS"
],
      "SeriesDescription": "func_task-mario_run-04",
      "SeriesNumber": 19,
      "SeriesTime": "140040.918000",
      "SliceLocation": -52.404029955509,
      "SliceThickness": 2.0,
      "SmallestImagePixelValue": 0,
      "SoftwareVersions": "syngo MR E11",
      "SpacingBetweenSlices": 2.0000000204636,
      "SpecificCharacterSet": "ISO_IR 100",
      "StudyID": "1",
      "StudyTime": "120447.679000",
      "TransmitCoilName": "Body",
      "VariableFlipAngleFlag": "N",
      "WindowCenterWidthExplanation": "Algo1",
      "dBdt": 0.0},
    "slices": {}
  },
  "time": {
    "samples": {
      "AcquisitionNumber": [1, 2, 3, 4, 5, 6, 7, 8, 9, 10, 11, 12, 13, 14, 15, 16, 17, 18, 19, 20, 21, 22, 23, 24, 25, 26, 27, 28, 29, 30, 31, 32, 33, 34, 35, 36, 37, 38, 39, 40, 41, 42, 43, 44, 45, 46, 47, 48, 49, 50, 51, 52, 53, 54, 55, 56, 57, 58, 59, 60, 61, 62, 63, 64, 65, 66, 67, 68, 69, 70, 71, 72, 73, 74, 75, 76, 77, 78, 79, 80, 81, 82, 83, 84, 85, 86, 87, 88, 89, 90, 91, 92, 93, 94, 95, 96, 97, 98, 99, 100, 101, 102, 103, 104, 105, 106, 107, 108, 109, 110, 111, 112, 113, 114, 115, 116, 117, 118, 119, 120, 121, 122, 123, 124, 125, 126, 127, 128, 129, 130, 131, 132, 133, 134, 135, 136, 137, 138, 139, 140, 141, 142, 143, 144, 145, 146, 147, 148, 149, 150, 151, 152, 153, 154, 155, 156, 157, 158, 159, 160, 161, 162, 163, 164, 165, 166, 167, 168, 169, 170, 171, 172, 173, 174, 175, 176, 177, 178, 179, 180, 181, 182, 183, 184, 185, 186, 187, 188, 189, 190, 191, 192, 193, 194, 195, 196, 197, 198, 199, 200, 201, 202, 203, 204, 205, 206, 207, 208, 209, 210, 211, 212, 213, 214, 215, 216, 217, 218, 219, 220, 221, 222, 223, 224, 225, 226, 227, 228, 229, 230, 231, 232, 233, 234, 235, 236, 237, 238, 239, 240, 241, 242, 243, 244, 245, 246, 247, 248, 249, 250, 251, 252, 253, 254, 255, 256, 257, 258, 259, 260, 261, 262, 263, 264, 265, 266, 267, 268, 269, 270, 271, 272, 273, 274, 275, 276, 277, 278, 279, 280, 281, 282, 283, 284, 285, 286, 287, 288, 289, 290, 291, 292, 293, 294, 295, 296, 297, 298, 299, 300, 301, 302, 303, 304, 305, 306, 307, 308, 309, 310, 311, 312, 313, 314, 315, 316, 317, 318, 319, 320, 321, 322, 323, 324, 325, 326, 327, 328, 329, 330, 331, 332, 333, 334, 335, 336, 337, 338, 339, 340, 341, 342, 343, 344, 345, 346, 347, 348, 349, 350, 351, 352, 353, 354, 355, 356, 357, 358, 359, 360, 361, 362, 363, 364, 365, 366, 367, 368, 369, 370, 371, 372, 373, 374, 375, 376, 377, 378, 379, 380, 381, 382, 383, 384, 385, 386, 387, 388, 389, 390, 391, 392, 393, 394, 395, 396, 397, 398, 399, 400, 401, 402, 403, 404, 405, 406, 407, 408, 409, 410, 411, 412, 413, 414, 415, 416, 417, 418, 419, 420, 421, 422, 423, 424, 425, 426, 427, 428, 429, 430, 431, 432, 433, 434, 435, 436, 437, 438, 439, 440, 441, 442, 443, 444, 445, 446, 447, 448, 449, 450, 451, 452, 453, 454, 455, 456, 457, 458, 459, 460, 461, 462, 463, 464, 465],
      "AcquisitionTime": ["135920.737500", "135922.227500", "135923.717500", "135925.207500", "135926.697500", "135928.187500", "135929.677500", "135931.167500", "135932.657500", "135934.147500", "135935.637500", "135937.127500", "135938.617500", "135940.107500", "135941.597500", "135943.087500", "135944.577500", "135946.067500", "135947.557500", "135949.047500", "135950.537500", "135952.027500", "135953.517500", "135955.007500", "135956.497500", "135957.987500", "135959.477500", "140000.967500", "140002.457500", "140003.947500", "140005.437500", "140006.927500", "140008.417500", "140009.907500", "140011.397500", "140012.887500", "140014.377500", "140015.867500", "140017.357500", "140018.847500", "140020.337500", "140021.827500", "140023.317500", "140024.807500", "140026.297500", "140027.787500", "140029.277500", "140030.767500", "140032.257500", "140033.747500", "140035.237500", "140036.727500", "140038.217500", "140039.707500", "140041.197500", "140042.687500", "140044.177500", "140045.667500", "140047.157500", "140048.647500", "140050.137500", "140051.627500", "140053.117500", "140054.607500", "140056.097500", "140057.587500", "140059.077500", "140100.567500", "140102.057500", "140103.547500", "140105.037500", "140106.527500", "140108.017500", "140109.507500", "140110.997500", "140112.487500", "140113.977500", "140115.467500", "140116.957500", "140118.447500", "140119.937500", "140121.427500", "140122.917500", "140124.407500", "140125.897500", "140127.387500", "140128.877500", "140130.367500", "140131.857500", "140133.347500", "140134.837500", "140136.327500", "140137.817500", "140139.307500", "140140.797500", "140142.287500", "140143.777500", "140145.267500", "140146.757500", "140148.247500", "140149.737500", "140151.227500", "140152.717500", "140154.207500", "140155.697500", "140157.187500", "140158.677500", "140200.167500", "140201.657500", "140203.147500", "140204.637500", "140206.127500", "140207.617500", "140209.107500", "140210.597500", "140212.087500", "140213.577500", "140215.067500", "140216.557500", "140218.047500", "140219.537500", "140221.027500", "140222.517500", "140224.007500", "140225.497500", "140226.987500", "140228.477500", "140229.967500", "140231.457500", "140232.947500", "140234.437500", "140235.927500", "140237.417500", "140238.907500", "140240.397500", "140241.887500", "140243.377500", "140244.867500", "140246.357500", "140247.847500", "140249.337500", "140250.827500", "140252.317500", "140253.807500", "140255.297500", "140256.787500", "140258.277500", "140259.767500", "140301.257500", "140302.747500", "140304.237500", "140305.727500", "140307.217500", "140308.707500", "140310.197500", "140311.687500", "140313.177500", "140314.667500", "140316.157500", "140317.647500", "140319.137500", "140320.627500", "140322.117500", "140323.607500", "140325.097500", "140326.587500", "140328.077500", "140329.567500", "140331.057500", "140332.547500", "140334.037500", "140335.527500", "140337.017500", "140338.507500", "140339.997500", "140341.487500", "140342.977500", "140344.467500", "140345.957500", "140347.447500", "140348.937500", "140350.427500", "140351.917500", "140353.407500", "140354.897500", "140356.387500", "140357.877500", "140359.367500", "140400.857500", "140402.347500", "140403.837500", "140405.327500", "140406.817500", "140408.307500", "140409.797500", "140411.287500", "140412.777500", "140414.267500", "140415.757500", "140417.247500", "140418.737500", "140420.227500", "140421.717500", "140423.207500", "140424.697500", "140426.187500", "140427.677500", "140429.167500", "140430.657500", "140432.147500", "140433.637500", "140435.127500", "140436.617500", "140438.107500", "140439.597500", "140441.087500", "140442.577500", "140444.067500", "140445.557500", "140447.047500", "140448.537500", "140450.027500", "140451.517500", "140453.007500", "140454.497500", "140455.987500", "140457.477500", "140458.967500", "140500.457500", "140501.947500", "140503.437500", "140504.927500", "140506.417500", "140507.907500", "140509.397500", "140510.887500", "140512.377500", "140513.867500", "140515.357500", "140516.847500", "140518.337500", "140519.827500", "140521.317500", "140522.807500", "140524.297500", "140525.787500", "140527.277500", "140528.767500", "140530.257500", "140531.747500", "140533.237500", "140534.727500", "140536.217500", "140537.707500", "140539.197500", "140540.687500", "140542.177500", "140543.667500", "140545.157500", "140546.647500", "140548.137500", "140549.627500", "140551.117500", "140552.607500", "140554.097500", "140555.587500", "140557.077500", "140558.567500", "140600.057500", "140601.547500", "140603.037500", "140604.527500", "140606.017500", "140607.507500", "140608.997500", "140610.487500", "140611.977500", "140613.467500", "140614.957500", "140616.447500", "140617.937500", "140619.427500", "140620.917500", "140622.407500", "140623.897500", "140625.387500", "140626.877500", "140628.367500", "140629.857500", "140631.347500", "140632.837500", "140634.327500", "140635.817500", "140637.307500", "140638.797500", "140640.287500", "140641.777500", "140643.267500", "140644.757500", "140646.247500", "140647.737500", "140649.227500", "140650.717500", "140652.207500", "140653.697500", "140655.187500", "140656.677500", "140658.167500", "140659.657500", "140701.147500", "140702.637500", "140704.127500", "140705.617500", "140707.107500", "140708.597500", "140710.087500", "140711.577500", "140713.067500", "140714.557500", "140716.047500", "140717.537500", "140719.027500", "140720.517500", "140722.007500", "140723.497500", "140724.987500", "140726.477500", "140727.967500", "140729.457500", "140730.947500", "140732.437500", "140733.927500", "140735.417500", "140736.907500", "140738.397500", "140739.887500", "140741.377500", "140742.867500", "140744.357500", "140745.847500", "140747.337500", "140748.827500", "140750.317500", "140751.807500", "140753.297500", "140754.787500", "140756.277500", "140757.767500", "140759.257500", "140800.747500", "140802.237500", "140803.727500", "140805.217500", "140806.707500", "140808.197500", "140809.687500", "140811.177500", "140812.667500", "140814.157500", "140815.647500", "140817.137500", "140818.627500", "140820.117500", "140821.607500", "140823.097500", "140824.587500", "140826.077500", "140827.567500", "140829.057500", "140830.547500", "140832.037500", "140833.527500", "140835.017500", "140836.507500", "140837.997500", "140839.487500", "140840.977500", "140842.467500", "140843.957500", "140845.447500", "140846.937500", "140848.427500", "140849.917500", "140851.407500", "140852.897500", "140854.387500", "140855.877500", "140857.367500", "140858.857500", "140900.347500", "140901.837500", "140903.327500", "140904.817500", "140906.307500", "140907.797500", "140909.287500", "140910.777500", "140912.267500", "140913.757500", "140915.247500", "140916.737500", "140918.227500", "140919.717500", "140921.207500", "140922.697500", "140924.187500", "140925.677500", "140927.167500", "140928.657500", "140930.147500", "140931.637500", "140933.127500", "140934.617500", "140936.107500", "140937.597500", "140939.087500", "140940.577500", "140942.067500", "140943.557500", "140945.047500", "140946.537500", "140948.027500", "140949.517500", "140951.007500", "140952.497500", "140953.987500", "140955.477500", "140956.967500", "140958.457500", "140959.947500", "141001.437500", "141002.927500", "141004.417500", "141005.907500", "141007.397500", "141008.887500", "141010.377500", "141011.867500", "141013.357500", "141014.847500", "141016.337500", "141017.827500", "141019.317500", "141020.807500", "141022.297500", "141023.787500", "141025.277500", "141026.767500", "141028.257500", "141029.747500", "141031.237500", "141032.727500", "141034.217500", "141035.707500", "141037.197500", "141038.687500", "141040.177500", "141041.667500", "141043.157500", "141044.647500", "141046.137500", "141047.627500", "141049.117500", "141050.607500", "141052.097500"],
      "ContentTime": ["140040.921000", "140040.925000", "140040.928000", "140040.932000", "140040.935000", "140040.938000", "140040.941000", "140040.945000", "140040.948000", "140040.951000", "140040.954000", "140040.958000", "140040.961000", "140040.964000", "140040.968000", "140040.971000", "140040.974000", "140040.978000", "140040.981000", "140040.984000", "140040.987000", "140040.991000", "140040.994000", "140040.997000", "140041.002000", "140100.883000", "140100.887000", "140100.890000", "140100.893000", "140100.896000", "140100.900000", "140100.903000", "140100.906000", "140100.910000", "140100.913000", "140100.916000", "140100.919000", "140100.923000", "140100.926000", "140100.929000", "140100.933000", "140100.936000", "140100.939000", "140100.943000", "140100.946000", "140120.883000", "140120.887000", "140120.890000", "140120.893000", "140120.896000", "140120.900000", "140120.903000", "140120.906000", "140120.910000", "140120.913000", "140120.916000", "140120.920000", "140120.923000", "140120.926000", "140120.929000", "140120.933000", "140120.936000", "140120.939000", "140120.943000", "140120.946000", "140140.883000", "140140.887000", "140140.891000", "140140.894000", "140140.898000", "140140.901000", "140140.918000", "140140.922000", "140140.925000", "140140.935000", "140140.938000", "140140.941000", "140140.945000", "140140.948000", "140140.951000", "140140.955000", "140140.958000", "140140.961000", "140140.965000", "140140.968000", "140140.971000", "140200.884000", "140200.888000", "140200.891000", "140200.895000", "140200.898000", "140200.901000", "140200.905000", "140200.908000", "140200.911000", "140200.915000", "140200.918000", "140200.921000", "140200.925000", "140200.928000", "140200.931000", "140200.934000", "140200.938000", "140200.941000", "140200.944000", "140200.948000", "140240.883000", "140240.887000", "140240.891000", "140240.896000", "140240.900000", "140240.903000", "140240.907000", "140240.911000", "140240.915000", "140240.918000", "140240.921000", "140240.925000", "140240.928000", "140240.931000", "140240.935000", "140240.938000", "140240.941000", "140240.945000", "140240.948000", "140240.951000", "140240.955000", "140240.958000", "140240.962000", "140240.967000", "140240.970000", "140240.973000", "140240.977000", "140320.883000", "140320.887000", "140320.890000", "140320.893000", "140320.897000", "140320.900000", "140320.903000", "140320.907000", "140320.910000", "140320.913000", "140320.917000", "140320.920000", "140320.923000", "140320.927000", "140320.930000", "140320.933000", "140320.937000", "140320.940000", "140320.943000", "140320.947000", "140320.950000", "140320.954000", "140320.957000", "140320.960000", "140320.963000", "140320.967000", "140320.970000", "140400.883000", "140400.887000", "140400.890000", "140400.894000", "140400.897000", "140400.900000", "140400.904000", "140400.907000", "140400.910000", "140400.922000", "140400.926000", "140400.929000", "140400.932000", "140400.935000", "140400.939000", "140400.942000", "140400.946000", "140400.949000", "140400.952000", "140400.956000", "140400.959000", "140400.962000", "140400.965000", "140400.969000", "140400.972000", "140400.975000", "140400.979000", "140440.883000", "140440.887000", "140440.890000", "140440.893000", "140440.897000", "140440.900000", "140440.903000", "140440.907000", "140440.910000", "140440.913000", "140440.916000", "140440.920000", "140440.923000", "140440.926000", "140440.930000", "140440.933000", "140440.936000", "140440.940000", "140440.944000", "140440.947000", "140440.950000", "140440.954000", "140440.957000", "140440.960000", "140440.964000", "140440.967000", "140440.970000", "140500.883000", "140500.887000", "140500.890000", "140500.894000", "140500.897000", "140500.901000", "140500.904000", "140500.908000", "140500.911000", "140500.914000", "140500.917000", "140500.921000", "140500.924000", "140540.883000", "140540.887000", "140540.890000", "140540.893000", "140540.897000", "140540.900000", "140540.903000", "140540.906000", "140540.910000", "140540.913000", "140540.916000", "140540.919000", "140540.923000", "140540.926000", "140540.929000", "140540.933000", "140540.936000", "140540.939000", "140540.943000", "140540.946000", "140540.949000", "140540.952000", "140540.956000", "140540.960000", "140540.963000", "140540.966000", "140540.970000", "140620.883000", "140620.887000", "140620.890000", "140620.893000", "140620.897000", "140620.900000", "140620.903000", "140620.907000", "140620.910000", "140620.913000", "140620.917000", "140620.920000", "140620.923000", "140620.939000", "140620.942000", "140620.945000", "140620.948000", "140620.952000", "140620.955000", "140620.964000", "140620.968000", "140620.971000", "140620.974000", "140620.978000", "140620.981000", "140620.984000", "140620.987000", "140700.883000", "140700.887000", "140700.890000", "140700.894000", "140700.897000", "140700.900000", "140700.904000", "140700.907000", "140700.910000", "140700.914000", "140700.917000", "140700.920000", "140700.924000", "140700.927000", "140700.930000", "140700.934000", "140700.937000", "140700.940000", "140700.944000", "140700.947000", "140700.950000", "140700.953000", "140700.957000", "140700.960000", "140700.963000", "140700.966000", "140700.970000", "140740.883000", "140740.887000", "140740.890000", "140740.893000", "140740.897000", "140740.900000", "140740.903000", "140740.906000", "140740.910000", "140740.913000", "140740.916000", "140740.919000", "140740.923000", "140740.926000", "140740.929000", "140740.933000", "140740.936000", "140740.939000", "140740.943000", "140740.946000", "140740.949000", "140740.953000", "140740.956000", "140740.959000", "140740.962000", "140740.966000", "140740.969000", "140820.883000", "140820.887000", "140820.890000", "140820.894000", "140820.897000", "140820.900000", "140820.903000", "140820.907000", "140820.910000", "140820.913000", "140820.917000", "140820.920000", "140820.923000", "140820.927000", "140820.930000", "140820.933000", "140820.936000", "140820.940000", "140820.943000", "140820.946000", "140820.950000", "140820.953000", "140820.956000", "140820.959000", "140820.963000", "140820.975000", "140820.978000", "140900.883000", "140900.887000", "140900.890000", "140900.894000", "140900.897000", "140900.900000", "140900.904000", "140900.907000", "140900.910000", "140900.914000", "140900.918000", "140900.923000", "140900.927000", "140900.930000", "140900.934000", "140900.937000", "140900.941000", "140900.944000", "140900.947000", "140900.951000", "140900.954000", "140900.957000", "140900.960000", "140900.964000", "140900.967000", "140900.970000", "140940.883000", "140940.906000", "140940.910000", "140940.913000", "140940.916000", "140940.920000", "140940.923000", "140940.926000", "140940.929000", "140940.933000", "140940.936000", "140940.940000", "140940.943000", "140940.946000", "140940.949000", "140940.953000", "140940.956000", "140940.960000", "140940.963000", "140940.966000", "140940.970000", "140940.973000", "140940.976000", "140940.980000", "140940.983000", "140940.987000", "140940.990000", "141020.884000", "141020.887000", "141020.891000", "141020.894000", "141020.897000", "141020.901000", "141020.904000", "141020.907000", "141020.910000", "141020.914000", "141020.917000", "141020.920000", "141020.924000", "141020.927000", "141020.930000", "141020.934000", "141020.937000", "141020.940000", "141020.944000", "141020.947000", "141020.950000", "141020.954000", "141020.957000", "141020.960000", "141020.963000", "141020.967000", "141020.970000", "141054.771000", "141054.775000", "141054.778000", "141054.782000", "141054.785000", "141054.788000", "141054.791000", "141054.795000", "141054.798000", "141054.801000", "141054.805000", "141054.808000", "141054.812000", "141054.815000", "141054.818000", "141054.821000", "141054.825000", "141054.828000", "141054.831000", "141054.835000", "141054.838000", "141054.841000", "141054.845000"],
