{
  "AcquisitionMatrixPE": 104,
  "AcquisitionNumber": 1,
  "AcquisitionTime": "13:21:4.480000",
  "BandwidthPerPixelPhaseEncode": 17.17,
  "BaseResolution": 104,
  "BodyPartExamined": "BRAIN",
  "CoilCombinationMethod": "Sum of Squares",
  "ConsistencyInfo": "N4_VE11C_LATEST_20160120",
  "ConversionSoftware": "dcm2niix",
  "ConversionSoftwareVersion": "v1.0.20211006",
  "DerivedVendorReportedEchoSpacing": 0.000560011,
  "DeviceSerialNumber": "167006",
  "DwellTime": 2.1e-06,
  "EchoTime": 0.037,
  "EchoTime1": 0.037,
  "EchoTime2": 0.001,
  "EchoTrainLength": 104,
  "EffectiveEchoSpacing": 0.000560011,
  "FlipAngle": 52,
  "HeudiconvVersion": "0.10.0",
  "ImageComments": "Unaliased MB4/PE3/LB",
  "ImageOrientationPatientDICOM": [0.99971, 0.021788, 0.0102773, -0.0137849, 0.867252, -0.497678],
  "ImageOrientationText": "Tra>Cor(-29.8)>Sag(1.1)",
  "ImageType": [
    "ORIGINAL",
    "PRIMARY",
    "P",
    "MB",
    "ND",
    "MOSAIC",
    "PHASE"
],
  "ImagingFrequency": 123.259,
  "InPlanePhaseEncodingDirectionDICOM": "COL",
  "InstitutionAddress": "Chemin Queen-Mary 4565,Montreal,District,CA,H3W 1W5",
  "InstitutionName": "IUGM",
  "InstitutionalDepartmentName": "Department",
  "MRAcquisitionType": "2D",
  "MagneticFieldStrength": 3,
  "Manufacturer": "Siemens",
  "ManufacturersModelName": "Prisma_fit",
  "MatrixCoilMode": "SENSE",
  "Modality": "MR",
  "MultibandAccelerationFactor": 4,
  "PartialFourier": 1,
  "PatientPosition": "HFS",
  "PercentPhaseFOV": 100,
  "PercentSampling": 100,
  "PhaseEncodingDirection": "j",
  "PhaseEncodingSteps": 104,
  "PhaseResolution": 1,
  "PixelBandwidth": 2290,
  "ProcedureStepDescription": "games^mario",
  "ProtocolName": "func_task-mario_run-01",
  "PulseSequenceDetails": "%CustomerSeq%\\cmrr_mbep2d_bold",
  "ReceiveCoilActiveElements": "HC1-7;NC1,2",
  "ReceiveCoilName": "HeadNeck_64",
  "ReconMatrixPE": 104,
  "RepetitionTime": 1.49,
  "SAR": 0.0647578,
  "ScanOptions": "FS",
  "ScanningSequence": "EP",
  "SequenceName": "epfid2d1_104",
  "SequenceVariant": "SK\\SS",
  "SeriesDescription": "func_task-mario_run-01",
  "SeriesNumber": 11,
  "ShimSetting": [616, -7186, -8862, 300, 37, -152, -11, -25],
  "SliceThickness": 2,
  "SliceTiming": [0, 0.785, 0.1, 0.8825, 0.1975, 0.98, 0.295, 1.08, 0.3925, 1.1775, 0.49, 1.275, 0.59, 1.3725, 0.6875, 0, 0.785, 0.1, 0.8825, 0.1975, 0.98, 0.295, 1.08, 0.3925, 1.1775, 0.49, 1.275, 0.59, 1.3725, 0.6875, 0, 0.785, 0.1, 0.8825, 0.1975, 0.98, 0.295, 1.08, 0.3925, 1.1775, 0.49, 1.275, 0.59, 1.3725, 0.6875, 0, 0.785, 0.1, 0.8825, 0.1975, 0.98, 0.295, 1.08, 0.3925, 1.1775, 0.49, 1.275, 0.59, 1.3725, 0.6875],
  "SoftwareVersions": "syngo MR E11",
  "SpacingBetweenSlices": 2,
  "StationName": "MRC35049",
  "TaskName": "mario",
  "TotalReadoutTime": 0.0576811,
  "TxRefAmp": 300.782,
  "WipMemBlock": "bc8c898a-93b7-4ed2-aa91-6d95808e439f||Sequence: R016 ve11c/master r/e634e98; Dec 19 2017 11:00:25 by eja",
  "dcmmeta_affine": [
    [-1.9994195699691772, -0.02756989561021328, 0.03951285406947136, 107.16554260253906],
    [-0.04357608035206795, 1.7345044612884521, -0.9947840571403503, -50.182464599609375],
    [0.020554566755890846, 0.9953562617301941, 1.7346018552780151, -91.64247131347656],
    [0.0, 0.0, 0.0, 1.0]
],
  "dcmmeta_reorient_transform": [
    [0.0, -1.0, 0.0, 103.0],
    [1.0, 0.0, 0.0, 0.0],
    [0.0, 0.0, 1.0, 0.0],
    [0.0, 0.0, 0.0, 1.0]
],
  "dcmmeta_shape": [104, 104, 60, 441],
  "dcmmeta_slice_dim": 2,
  "dcmmeta_version": 0.6,
  "global": {
    "const": {
      "AcquisitionMatrix": [104, 0, 0, 104],
      "AngioFlag": "N",
      "BitsAllocated": 16,
      "BitsStored": 16,
      "BodyPartExamined": "BRAIN",
      "Columns": 832,
      "EchoNumbers": 1,
      "EchoTime": 37.0,
      "EchoTrainLength": 104,
      "FlipAngle": 52.0,
      "HighBit": 15,
      "ImageOrientationPatient": [0.99970978727428, 0.02178803982016, 0.01027728314377, -0.0137849480829, 0.86725224751351, -0.4976781232776],
      "ImagePositionPatient": [-822.07912379998, -775.69282582431, 365.70703603968],
      "ImageType": [
        "ORIGINAL",
        "PRIMARY",
        "P",
        "MB",
        "ND",
        "MOSAIC"
],
      "ImagedNucleus": "1H",
      "ImagingFrequency": 123.258898,
      "InPlanePhaseEncodingDirection": "COL",
      "LargestImagePixelValue": 4095,
      "MRAcquisitionType": "2D",
      "MagneticFieldStrength": 3.0,
      "Manufacturer": "SIEMENS",
      "ManufacturerModelName": "Prisma_fit",
      "Modality": "MR",
      "NumberOfAverages": 1.0,
      "NumberOfPhaseEncodingSteps": 104,
      "PercentPhaseFieldOfView": 100.0,
      "PercentSampling": 100.0,
      "PerformedProcedureStepStartTime": "120447.800000",
      "PhotometricInterpretation": "MONOCHROME2",
      "PixelBandwidth": 2290.0,
      "PixelRepresentation": 0,
      "PixelSpacing": [2.0, 2.0],
      "ProtocolName": "func_task-mario_run-01",
      "RepetitionTime": 1490.0,
      "RescaleIntercept": -4096.0,
      "RescaleSlope": 2.0,
      "RescaleType": "US",
      "Rows": 832,
      "SAR": 0.06475784629126,
      "SamplesPerPixel": 1,
      "ScanOptions": "FS",
      "ScanningSequence": "EP",
      "SequenceName": "epfid2d1_104",
      "SequenceVariant": [
        "SK",
        "SS"
],
      "SeriesDescription": "func_task-mario_run-01",
      "SeriesNumber": 11,
      "SeriesTime": "132221.065000",
      "SliceLocation": -52.404029955509,
      "SliceThickness": 2.0,
      "SmallestImagePixelValue": 0,
      "SoftwareVersions": "syngo MR E11",
      "SpacingBetweenSlices": 2.0000000204636,
      "SpecificCharacterSet": "ISO_IR 100",
      "StudyID": "1",
      "StudyTime": "120447.679000",
      "TransmitCoilName": "Body",
      "VariableFlipAngleFlag": "N",
      "WindowCenterWidthExplanation": "Algo1",
      "dBdt": 0.0},
    "slices": {}
  },
  "time": {
    "samples": {
      "AcquisitionNumber": [1, 2, 3, 4, 5, 6, 7, 8, 9, 10, 11, 12, 13, 14, 15, 16, 17, 18, 19, 20, 21, 22, 23, 24, 25, 26, 27, 28, 29, 30, 31, 32, 33, 34, 35, 36, 37, 38, 39, 40, 41, 42, 43, 44, 45, 46, 47, 48, 49, 50, 51, 52, 53, 54, 55, 56, 57, 58, 59, 60, 61, 62, 63, 64, 65, 66, 67, 68, 69, 70, 71, 72, 73, 74, 75, 76, 77, 78, 79, 80, 81, 82, 83, 84, 85, 86, 87, 88, 89, 90, 91, 92, 93, 94, 95, 96, 97, 98, 99, 100, 101, 102, 103, 104, 105, 106, 107, 108, 109, 110, 111, 112, 113, 114, 115, 116, 117, 118, 119, 120, 121, 122, 123, 124, 125, 126, 127, 128, 129, 130, 131, 132, 133, 134, 135, 136, 137, 138, 139, 140, 141, 142, 143, 144, 145, 146, 147, 148, 149, 150, 151, 152, 153, 154, 155, 156, 157, 158, 159, 160, 161, 162, 163, 164, 165, 166, 167, 168, 169, 170, 171, 172, 173, 174, 175, 176, 177, 178, 179, 180, 181, 182, 183, 184, 185, 186, 187, 188, 189, 190, 191, 192, 193, 194, 195, 196, 197, 198, 199, 200, 201, 202, 203, 204, 205, 206, 207, 208, 209, 210, 211, 212, 213, 214, 215, 216, 217, 218, 219, 220, 221, 222, 223, 224, 225, 226, 227, 228, 229, 230, 231, 232, 233, 234, 235, 236, 237, 238, 239, 240, 241, 242, 243, 244, 245, 246, 247, 248, 249, 250, 251, 252, 253, 254, 255, 256, 257, 258, 259, 260, 261, 262, 263, 264, 265, 266, 267, 268, 269, 270, 271, 272, 273, 274, 275, 276, 277, 278, 279, 280, 281, 282, 283, 284, 285, 286, 287, 288, 289, 290, 291, 292, 293, 294, 295, 296, 297, 298, 299, 300, 301, 302, 303, 304, 305, 306, 307, 308, 309, 310, 311, 312, 313, 314, 315, 316, 317, 318, 319, 320, 321, 322, 323, 324, 325, 326, 327, 328, 329, 330, 331, 332, 333, 334, 335, 336, 337, 338, 339, 340, 341, 342, 343, 344, 345, 346, 347, 348, 349, 350, 351, 352, 353, 354, 355, 356, 357, 358, 359, 360, 361, 362, 363, 364, 365, 366, 367, 368, 369, 370, 371, 372, 373, 374, 375, 376, 377, 378, 379, 380, 381, 382, 383, 384, 385, 386, 387, 388, 389, 390, 391, 392, 393, 394, 395, 396, 397, 398, 399, 400, 401, 402, 403, 404, 405, 406, 407, 408, 409, 410, 411, 412, 413, 414, 415, 416, 417, 418, 419, 420, 421, 422, 423, 424, 425, 426, 427, 428, 429, 430, 431, 432, 433, 434, 435, 436, 437, 438, 439, 440, 441],
      "AcquisitionTime": ["132104.480000", "132105.970000", "132107.460000", "132108.950000", "132110.440000", "132111.930000", "132113.420000", "132114.910000", "132116.400000", "132117.890000", "132119.380000", "132120.870000", "132122.360000", "132123.850000", "132125.340000", "132126.830000", "132128.320000", "132129.810000", "132131.300000", "132132.790000", "132134.280000", "132135.770000", "132137.260000", "132138.750000", "132140.240000", "132141.730000", "132143.220000", "132144.710000", "132146.200000", "132147.690000", "132149.180000", "132150.670000", "132152.160000", "132153.650000", "132155.140000", "132156.630000", "132158.120000", "132159.610000", "132201.100000", "132202.590000", "132204.080000", "132205.570000", "132207.060000", "132208.550000", "132210.040000", "132211.530000", "132213.020000", "132214.510000", "132216.000000", "132217.490000", "132218.980000", "132220.470000", "132221.960000", "132223.450000", "132224.940000", "132226.430000", "132227.920000", "132229.410000", "132230.900000", "132232.390000", "132233.880000", "132235.370000", "132236.860000", "132238.350000", "132239.840000", "132241.330000", "132242.820000", "132244.310000", "132245.800000", "132247.290000", "132248.780000", "132250.270000", "132251.760000", "132253.250000", "132254.740000", "132256.230000", "132257.720000", "132259.210000", "132300.700000", "132302.190000", "132303.680000", "132305.170000", "132306.660000", "132308.150000", "132309.640000", "132311.130000", "132312.620000", "132314.110000", "132315.600000", "132317.090000", "132318.580000", "132320.070000", "132321.560000", "132323.050000", "132324.540000", "132326.030000", "132327.520000", "132329.010000", "132330.500000", "132331.990000", "132333.480000", "132334.970000", "132336.460000", "132337.950000", "132339.440000", "132340.930000", "132342.420000", "132343.910000", "132345.400000", "132346.890000", "132348.380000", "132349.870000", "132351.360000", "132352.850000", "132354.340000", "132355.830000", "132357.320000", "132358.810000", "132400.300000", "132401.790000", "132403.280000", "132404.770000", "132406.260000", "132407.750000", "132409.240000", "132410.730000", "132412.220000", "132413.710000", "132415.200000", "132416.690000", "132418.180000", "132419.670000", "132421.160000", "132422.650000", "132424.140000", "132425.630000", "132427.120000", "132428.610000", "132430.100000", "132431.590000", "132433.080000", "132434.570000", "132436.060000", "132437.550000", "132439.040000", "132440.530000", "132442.020000", "132443.510000", "132445.000000", "132446.490000", "132447.980000", "132449.470000", "132450.960000", "132452.450000", "132453.940000", "132455.430000", "132456.920000", "132458.410000", "132459.900000", "132501.390000", "132502.880000", "132504.370000", "132505.860000", "132507.350000", "132508.840000", "132510.330000", "132511.820000", "132513.310000", "132514.800000", "132516.290000", "132517.780000", "132519.270000", "132520.760000", "132522.250000", "132523.740000", "132525.230000", "132526.720000", "132528.210000", "132529.700000", "132531.190000", "132532.680000", "132534.170000", "132535.660000", "132537.150000", "132538.640000", "132540.130000", "132541.620000", "132543.110000", "132544.600000", "132546.090000", "132547.580000", "132549.070000", "132550.560000", "132552.050000", "132553.540000", "132555.030000", "132556.520000", "132558.010000", "132559.500000", "132600.990000", "132602.480000", "132603.970000", "132605.460000", "132606.950000", "132608.440000", "132609.930000", "132611.420000", "132612.910000", "132614.400000", "132615.890000", "132617.380000", "132618.870000", "132620.360000", "132621.850000", "132623.340000", "132624.830000", "132626.320000", "132627.810000", "132629.300000", "132630.790000", "132632.280000", "132633.770000", "132635.260000", "132636.750000", "132638.240000", "132639.730000", "132641.220000", "132642.710000", "132644.200000", "132645.690000", "132647.180000", "132648.670000", "132650.160000", "132651.650000", "132653.140000", "132654.630000", "132656.120000", "132657.610000", "132659.100000", "132700.590000", "132702.080000", "132703.570000", "132705.060000", "132706.550000", "132708.040000", "132709.530000", "132711.020000", "132712.510000", "132714.000000", "132715.490000", "132716.980000", "132718.470000", "132719.960000", "132721.450000", "132722.940000", "132724.430000", "132725.920000", "132727.410000", "132728.900000", "132730.390000", "132731.880000", "132733.370000", "132734.860000", "132736.350000", "132737.840000", "132739.330000", "132740.820000", "132742.310000", "132743.800000", "132745.290000", "132746.780000", "132748.270000", "132749.760000", "132751.250000", "132752.740000", "132754.230000", "132755.720000", "132757.210000", "132758.700000", "132800.190000", "132801.680000", "132803.170000", "132804.660000", "132806.150000", "132807.640000", "132809.130000", "132810.620000", "132812.110000", "132813.600000", "132815.090000", "132816.580000", "132818.070000", "132819.560000", "132821.050000", "132822.540000", "132824.030000", "132825.520000", "132827.010000", "132828.500000", "132829.990000", "132831.480000", "132832.970000", "132834.460000", "132835.950000", "132837.440000", "132838.930000", "132840.420000", "132841.910000", "132843.400000", "132844.890000", "132846.380000", "132847.870000", "132849.360000", "132850.850000", "132852.340000", "132853.830000", "132855.320000", "132856.810000", "132858.300000", "132859.790000", "132901.280000", "132902.770000", "132904.260000", "132905.750000", "132907.240000", "132908.730000", "132910.220000", "132911.710000", "132913.200000", "132914.690000", "132916.180000", "132917.670000", "132919.160000", "132920.650000", "132922.140000", "132923.630000", "132925.120000", "132926.610000", "132928.100000", "132929.590000", "132931.080000", "132932.570000", "132934.060000", "132935.550000", "132937.040000", "132938.530000", "132940.020000", "132941.510000", "132943.000000", "132944.490000", "132945.980000", "132947.470000", "132948.960000", "132950.450000", "132951.940000", "132953.430000", "132954.920000", "132956.410000", "132957.900000", "132959.390000", "133000.880000", "133002.370000", "133003.860000", "133005.350000", "133006.840000", "133008.330000", "133009.820000", "133011.310000", "133012.800000", "133014.290000", "133015.780000", "133017.270000", "133018.760000", "133020.250000", "133021.740000", "133023.230000", "133024.720000", "133026.210000", "133027.700000", "133029.190000", "133030.680000", "133032.170000", "133033.660000", "133035.150000", "133036.640000", "133038.130000", "133039.620000", "133041.110000", "133042.600000", "133044.090000", "133045.580000", "133047.070000", "133048.560000", "133050.050000", "133051.540000", "133053.030000", "133054.520000", "133056.010000", "133057.500000", "133058.990000", "133100.480000", "133101.970000", "133103.460000", "133104.950000", "133106.440000", "133107.930000", "133109.420000", "133110.910000", "133112.400000", "133113.890000", "133115.380000", "133116.870000", "133118.360000", "133119.850000", "133121.340000", "133122.830000", "133124.320000", "133125.810000", "133127.300000", "133128.790000", "133130.280000", "133131.770000", "133133.260000", "133134.750000", "133136.240000", "133137.730000", "133139.220000", "133140.710000", "133142.200000", "133143.690000", "133145.180000", "133146.670000", "133148.160000", "133149.650000", "133151.140000", "133152.630000", "133154.120000", "133155.610000", "133157.100000", "133158.590000", "133200.080000"],
      "ContentTime": ["132221.067000", "132221.070000", "132221.073000", "132221.075000", "132221.077000", "132221.080000", "132221.082000", "132221.085000", "132221.087000", "132221.090000", "132221.092000", "132221.095000", "132221.097000", "132221.100000", "132221.102000", "132221.105000", "132221.107000", "132221.110000", "132221.112000", "132221.115000", "132221.117000", "132221.120000", "132241.015000", "132241.018000", "132241.021000", "132241.023000", "132241.035000", "132241.037000", "132241.040000", "132241.042000", "132241.045000", "132241.047000", "132241.049000", "132241.052000", "132241.054000", "132241.057000", "132241.059000", "132241.062000", "132241.064000", "132241.067000", "132241.069000", "132241.072000", "132241.074000", "132301.008000", "132301.011000", "132301.014000", "132301.016000", "132301.019000", "132301.021000", "132301.024000", "132301.026000", "132301.029000", "132301.031000", "132301.034000", "132301.036000", "132301.039000", "132301.041000", "132301.044000", "132301.046000", "132301.048000", "132301.051000", "132301.053000", "132301.056000", "132320.990000", "132320.993000", "132320.996000", "132320.998000", "132321.002000", "132321.004000", "132321.006000", "132321.009000", "132321.011000", "132321.014000", "132321.016000", "132321.019000", "132321.021000", "132321.024000", "132321.026000", "132321.029000", "132321.031000", "132321.034000", "132321.036000", "132321.039000", "132340.983000", "132340.986000", "132340.989000", "132340.991000", "132340.994000", "132340.996000", "132341.000000", "132341.002000", "132341.005000", "132341.007000", "132341.010000", "132341.012000", "132341.015000", "132341.017000", "132341.020000", "132341.022000", "132341.025000", "132341.027000", "132341.030000", "132341.032000", "132421.020000", "132421.023000", "132421.025000", "132421.028000", "132421.030000", "132421.032000", "132421.035000", "132421.037000", "132421.040000", "132421.042000", "132421.045000", "132421.047000", "132421.050000", "132421.052000", "132421.055000", "132421.057000", "132421.060000", "132421.062000", "132421.064000", "132421.067000", "132421.069000", "132421.076000", "132421.079000", "132421.081000", "132421.083000", "132421.086000", "132421.088000", "132421.091000", "132501.023000", "132501.026000", "132501.029000", "132501.031000", "132501.034000", "132501.037000", "132501.039000", "132501.042000", "132501.044000", "132501.047000", "132501.049000", "132501.052000", "132501.054000", "132501.057000", "132501.060000", "132501.062000", "132501.065000", "132501.067000", "132501.070000", "132501.073000", "132501.075000", "132501.078000", "132501.080000", "132501.083000", "132501.085000", "132501.088000", "132501.090000", "132541.013000", "132541.016000", "132541.018000", "132541.021000", "132541.023000", "132541.026000", "132541.028000", "132541.031000", "132541.033000", "132541.036000", "132541.038000", "132541.041000", "132541.043000", "132541.046000", "132541.048000", "132541.051000", "132541.053000", "132541.056000", "132541.058000", "132541.061000", "132541.063000", "132541.066000", "132541.068000", "132541.071000", "132541.073000", "132541.076000", "132541.086000", "132621.022000", "132621.025000", "132621.027000", "132621.030000", "132621.032000", "132621.035000", "132621.038000", "132621.040000", "132621.042000", "132621.045000", "132621.047000", "132621.050000", "132621.052000", "132621.055000", "132621.057000", "132621.060000", "132621.062000", "132621.065000", "132621.067000", "132621.070000", "132621.072000", "132621.075000", "132621.077000", "132621.079000", "132621.082000", "132621.084000", "132701.422000", "132701.425000", "132701.427000", "132701.430000", "132701.432000", "132701.435000", "132701.437000", "132701.440000", "132701.443000", "132701.445000", "132701.448000", "132701.450000", "132701.453000", "132701.455000", "132701.458000", "132701.460000", "132701.463000", "132701.465000", "132701.468000", "132701.470000", "132701.473000", "132701.475000", "132701.478000", "132701.480000", "132701.483000", "132701.486000", "132701.488000", "132741.031000", "132741.034000", "132741.037000", "132741.039000", "132741.042000", "132741.044000", "132741.047000", "132741.049000", "132741.052000", "132741.054000", "132741.057000", "132741.059000", "132741.062000", "132741.064000", "132741.067000", "132741.070000", "132741.072000", "132741.075000", "132741.077000", "132741.080000", "132741.082000", "132741.085000", "132741.087000", "132741.090000", "132741.092000", "132741.095000", "132741.097000", "132821.022000", "132821.025000", "132821.027000", "132821.030000", "132821.032000", "132821.034000", "132821.037000", "132821.039000", "132821.042000", "132821.045000", "132821.047000", "132821.050000", "132821.052000", "132821.055000", "132821.057000", "132821.060000", "132821.062000", "132821.065000", "132821.067000", "132821.070000", "132821.073000", "132821.075000", "132821.077000", "132821.080000", "132821.083000", "132821.085000", "132821.088000", "132901.013000", "132901.015000", "132901.018000", "132901.020000", "132901.023000", "132901.025000", "132901.028000", "132901.031000", "132901.033000", "132901.036000", "132901.038000", "132901.041000", "132901.043000", "132901.046000", "132901.048000", "132901.051000", "132901.053000", "132901.056000", "132901.059000", "132901.061000", "132901.064000", "132901.066000", "132901.069000", "132901.071000", "132901.074000", "132901.076000", "132901.079000", "132941.010000", "132941.013000", "132941.016000", "132941.018000", "132941.021000", "132941.023000", "132941.026000", "132941.028000", "132941.031000", "132941.033000", "132941.036000", "132941.038000", "132941.041000", "132941.044000", "132941.046000", "132941.048000", "132941.051000", "132941.054000", "132941.056000", "132941.059000", "132941.061000", "132941.064000", "132941.066000", "132941.069000", "132941.071000", "132941.074000", "132941.076000", "133021.013000", "133021.015000", "133021.018000", "133021.024000", "133021.026000", "133021.029000", "133021.031000", "133021.034000", "133021.036000", "133021.039000", "133021.041000", "133021.044000", "133021.046000", "133021.049000", "133021.051000", "133021.054000", "133021.057000", "133021.059000", "133021.062000", "133021.064000", "133021.067000", "133021.069000", "133021.072000", "133021.074000", "133021.077000", "133021.079000", "133101.027000", "133101.030000", "133101.032000", "133101.035000", "133101.037000", "133101.040000", "133101.042000", "133101.045000", "133101.047000", "133101.050000", "133101.053000", "133101.055000", "133101.058000", "133101.060000", "133101.063000", "133101.065000", "133101.068000", "133101.070000", "133101.073000", "133101.075000", "133101.078000", "133101.080000", "133101.083000", "133101.085000", "133101.088000", "133101.090000", "133101.093000", "133141.012000", "133141.015000", "133141.017000", "133141.020000", "133141.022000", "133141.025000", "133141.027000", "133141.030000", "133141.033000", "133141.035000", "133141.038000", "133141.040000", "133141.043000", "133141.045000", "133141.048000", "133141.050000", "133141.053000", "133141.055000", "133141.058000", "133141.060000", "133141.063000", "133141.066000", "133141.068000", "133141.071000", "133141.073000", "133141.076000", "133141.078000", "133202.888000", "133202.891000", "133202.902000", "133202.905000", "133202.907000", "133202.910000", "133202.912000", "133202.915000", "133202.917000", "133202.920000", "133202.923000", "133202.925000", "133202.928000", "133202.930000", "133202.933000"],
