{
  "AcquisitionMatrixPE": 104,
  "AcquisitionNumber": 1,
  "AcquisitionTime": "16:38:32.972500",
  "BandwidthPerPixelPhaseEncode": 17.17,
  "BaseResolution": 104,
  "BodyPartExamined": "BRAIN",
  "CoilCombinationMethod": "Sum of Squares",
  "ConsistencyInfo": "N4_VE11C_LATEST_20160120",
  "ConversionSoftware": "dcm2niix",
  "ConversionSoftwareVersion": "v1.0.20211006",
  "DerivedVendorReportedEchoSpacing": 0.000560011,
  "DeviceSerialNumber": "167006",
  "DwellTime": 2.1e-06,
  "EchoTime": 0.037,
  "EchoTime1": 0.037,
  "EchoTime2": 0.001,
  "EchoTrainLength": 104,
  "EffectiveEchoSpacing": 0.000560011,
  "FlipAngle": 52,
  "HeudiconvVersion": "0.11.3.post9+gc939bf8",
  "ImageComments": "Unaliased MB4/PE3/LB",
  "ImageOrientationPatientDICOM": [0.999711, -0.0196277, 0.0138691, 0.023385, 0.927564, -0.372932],
  "ImageOrientationText": "Tra>Cor(-21.9)>Sag(0.3)",
  "ImageType": [
    "ORIGINAL",
    "PRIMARY",
    "P",
    "MB",
    "ND",
    "MOSAIC",
    "PHASE"
],
  "ImagingFrequency": 123.259,
  "InPlanePhaseEncodingDirectionDICOM": "COL",
  "InstitutionAddress": "Chemin Queen-Mary 4565,Montreal,District,CA,H3W 1W5",
  "InstitutionName": "IUGM",
  "InstitutionalDepartmentName": "Department",
  "MRAcquisitionType": "2D",
  "MagneticFieldStrength": 3,
  "Manufacturer": "Siemens",
  "ManufacturersModelName": "Prisma_fit",
  "MatrixCoilMode": "SENSE",
  "Modality": "MR",
  "MultibandAccelerationFactor": 4,
  "PartialFourier": 1,
  "PatientPosition": "HFS",
  "PercentPhaseFOV": 100,
  "PercentSampling": 100,
  "PhaseEncodingDirection": "j",
  "PhaseEncodingSteps": 104,
  "PhaseResolution": 1,
  "PixelBandwidth": 2290,
  "ProcedureStepDescription": "games^mario",
  "ProtocolName": "func_task-mario_run-02",
  "PulseSequenceDetails": "%CustomerSeq%\\cmrr_mbep2d_bold",
  "ReceiveCoilActiveElements": "HC1-7;NC1,2",
  "ReceiveCoilName": "HeadNeck_64",
  "ReconMatrixPE": 104,
  "RepetitionTime": 1.49,
  "SAR": 0.0905097,
  "ScanOptions": "FS",
  "ScanningSequence": "EP",
  "SequenceName": "epfid2d1_104",
  "SequenceVariant": "SK\\SS",
  "SeriesDescription": "func_task-mario_run-02",
  "SeriesNumber": 14,
  "ShimSetting": [612, -7245, -8834, 362, 11, -336, 27, 12],
  "SliceThickness": 2,
  "SliceTiming": [0, 0.7825, 0.0975, 0.8825, 0.195, 0.98, 0.2925, 1.0775, 0.3925, 1.175, 0.49, 1.2725, 0.5875, 1.3725, 0.685, 0, 0.7825, 0.0975, 0.8825, 0.195, 0.98, 0.2925, 1.0775, 0.3925, 1.175, 0.49, 1.2725, 0.5875, 1.3725, 0.685, 0, 0.7825, 0.0975, 0.8825, 0.195, 0.98, 0.2925, 1.0775, 0.3925, 1.175, 0.49, 1.2725, 0.5875, 1.3725, 0.685, 0, 0.7825, 0.0975, 0.8825, 0.195, 0.98, 0.2925, 1.0775, 0.3925, 1.175, 0.49, 1.2725, 0.5875, 1.3725, 0.685],
  "SoftwareVersions": "syngo MR E11",
  "SpacingBetweenSlices": 2,
  "StationName": "MRC35049",
  "TaskName": "mario",
  "TotalReadoutTime": 0.0576811,
  "TxRefAmp": 308.036,
  "WipMemBlock": "18e9199d-114d-47e6-8d99-a399b5d4ba7a||Sequence: R017 ve11c/master r/75a17815+; Jun 28 2022 16:32:11 by eja",
  "dcmmeta_affine": [
    [-1.999422311782837, 0.046769946813583374, 0.011089339852333069, 100.86538696289062],
    [0.039255496114492416, 1.855128288269043, -0.7462963461875916, -63.496559143066406],
    [0.027738193050026894, 0.7458630800247192, 1.8555104732513428, -70.25985717773438],
    [0.0, 0.0, 0.0, 1.0]
],
  "dcmmeta_reorient_transform": [
    [0.0, -1.0, 0.0, 103.0],
    [1.0, 0.0, 0.0, 0.0],
    [0.0, 0.0, 1.0, 0.0],
    [0.0, 0.0, 0.0, 1.0]
],
  "dcmmeta_shape": [104, 104, 60, 484],
  "dcmmeta_slice_dim": 2,
  "dcmmeta_version": 0.6,
  "global": {
    "const": {
      "AcquisitionMatrix": [104, 0, 0, 104],
      "AngioFlag": "N",
      "BitsAllocated": 16,
      "BitsStored": 16,
      "BodyPartExamined": "BRAIN",
      "Columns": 832,
      "EchoNumbers": 1,
      "EchoTime": 37.0,
      "EchoTrainLength": 104,
      "FlipAngle": 52.0,
      "HighBit": 15,
      "ImageOrientationPatient": [0.99971115813354, -0.0196277474161, 0.0138690963895, 0.02338497250444, 0.9275641218587, -0.3729315525689],
      "ImagePositionPatient": [-850.49667148002, -788.55932879504, 267.96151162172],
      "ImageType": [
        "ORIGINAL",
        "PRIMARY",
        "P",
        "MB",
        "ND",
        "MOSAIC"
],
      "ImagedNucleus": "1H",
      "ImagingFrequency": 123.258784,
      "InPlanePhaseEncodingDirection": "COL",
      "LargestImagePixelValue": 4095,
      "MRAcquisitionType": "2D",
      "MagneticFieldStrength": 3.0,
      "Manufacturer": "SIEMENS",
      "ManufacturerModelName": "Prisma_fit",
      "Modality": "MR",
      "NumberOfAverages": 1.0,
      "NumberOfPhaseEncodingSteps": 104,
      "PercentPhaseFieldOfView": 100.0,
      "PercentSampling": 100.0,
      "PerformedProcedureStepStartTime": "161345.182000",
      "PhotometricInterpretation": "MONOCHROME2",
      "PixelBandwidth": 2290.0,
      "PixelRepresentation": 0,
      "PixelSpacing": [2.0, 2.0],
      "ProtocolName": "func_task-mario_run-02",
      "RepetitionTime": 1490.0,
      "RescaleIntercept": -4096.0,
      "RescaleSlope": 2.0,
      "RescaleType": "US",
      "Rows": 832,
      "SAR": 0.09050973428704,
      "SamplesPerPixel": 1,
      "ScanOptions": "FS",
      "ScanningSequence": "EP",
      "SequenceName": "epfid2d1_104",
      "SequenceVariant": [
        "SK",
        "SS"
],
      "SeriesDescription": "func_task-mario_run-02",
      "SeriesNumber": 14,
      "SeriesTime": "163926.675000",
      "SliceLocation": -40.931056516521,
      "SliceThickness": 2.0,
      "SmallestImagePixelValue": 0,
      "SoftwareVersions": "syngo MR E11",
      "SpacingBetweenSlices": 2.0000000460136,
      "SpecificCharacterSet": "ISO_IR 100",
      "StudyID": "1",
      "StudyTime": "161345.114000",
      "TransmitCoilName": "Body",
      "VariableFlipAngleFlag": "N",
      "WindowCenterWidthExplanation": "Algo1",
      "dBdt": 0.0},
    "slices": {}
  },
  "time": {
    "samples": {
      "AcquisitionNumber": [1, 2, 3, 4, 5, 6, 7, 8, 9, 10, 11, 12, 13, 14, 15, 16, 17, 18, 19, 20, 21, 22, 23, 24, 25, 26, 27, 28, 29, 30, 31, 32, 33, 34, 35, 36, 37, 38, 39, 40, 41, 42, 43, 44, 45, 46, 47, 48, 49, 50, 51, 52, 53, 54, 55, 56, 57, 58, 59, 60, 61, 62, 63, 64, 65, 66, 67, 68, 69, 70, 71, 72, 73, 74, 75, 76, 77, 78, 79, 80, 81, 82, 83, 84, 85, 86, 87, 88, 89, 90, 91, 92, 93, 94, 95, 96, 97, 98, 99, 100, 101, 102, 103, 104, 105, 106, 107, 108, 109, 110, 111, 112, 113, 114, 115, 116, 117, 118, 119, 120, 121, 122, 123, 124, 125, 126, 127, 128, 129, 130, 131, 132, 133, 134, 135, 136, 137, 138, 139, 140, 141, 142, 143, 144, 145, 146, 147, 148, 149, 150, 151, 152, 153, 154, 155, 156, 157, 158, 159, 160, 161, 162, 163, 164, 165, 166, 167, 168, 169, 170, 171, 172, 173, 174, 175, 176, 177, 178, 179, 180, 181, 182, 183, 184, 185, 186, 187, 188, 189, 190, 191, 192, 193, 194, 195, 196, 197, 198, 199, 200, 201, 202, 203, 204, 205, 206, 207, 208, 209, 210, 211, 212, 213, 214, 215, 216, 217, 218, 219, 220, 221, 222, 223, 224, 225, 226, 227, 228, 229, 230, 231, 232, 233, 234, 235, 236, 237, 238, 239, 240, 241, 242, 243, 244, 245, 246, 247, 248, 249, 250, 251, 252, 253, 254, 255, 256, 257, 258, 259, 260, 261, 262, 263, 264, 265, 266, 267, 268, 269, 270, 271, 272, 273, 274, 275, 276, 277, 278, 279, 280, 281, 282, 283, 284, 285, 286, 287, 288, 289, 290, 291, 292, 293, 294, 295, 296, 297, 298, 299, 300, 301, 302, 303, 304, 305, 306, 307, 308, 309, 310, 311, 312, 313, 314, 315, 316, 317, 318, 319, 320, 321, 322, 323, 324, 325, 326, 327, 328, 329, 330, 331, 332, 333, 334, 335, 336, 337, 338, 339, 340, 341, 342, 343, 344, 345, 346, 347, 348, 349, 350, 351, 352, 353, 354, 355, 356, 357, 358, 359, 360, 361, 362, 363, 364, 365, 366, 367, 368, 369, 370, 371, 372, 373, 374, 375, 376, 377, 378, 379, 380, 381, 382, 383, 384, 385, 386, 387, 388, 389, 390, 391, 392, 393, 394, 395, 396, 397, 398, 399, 400, 401, 402, 403, 404, 405, 406, 407, 408, 409, 410, 411, 412, 413, 414, 415, 416, 417, 418, 419, 420, 421, 422, 423, 424, 425, 426, 427, 428, 429, 430, 431, 432, 433, 434, 435, 436, 437, 438, 439, 440, 441, 442, 443, 444, 445, 446, 447, 448, 449, 450, 451, 452, 453, 454, 455, 456, 457, 458, 459, 460, 461, 462, 463, 464, 465, 466, 467, 468, 469, 470, 471, 472, 473, 474, 475, 476, 477, 478, 479, 480, 481, 482, 483, 484],
      "AcquisitionTime": ["163832.972500", "163834.462500", "163835.952500", "163837.442500", "163838.932500", "163840.422500", "163841.912500", "163843.402500", "163844.892500", "163846.382500", "163847.872500", "163849.362500", "163850.852500", "163852.342500", "163853.832500", "163855.322500", "163856.812500", "163858.302500", "163859.792500", "163901.282500", "163902.772500", "163904.262500", "163905.752500", "163907.242500", "163908.732500", "163910.222500", "163911.712500", "163913.202500", "163914.692500", "163916.182500", "163917.672500", "163919.162500", "163920.652500", "163922.142500", "163923.632500", "163925.122500", "163926.612500", "163928.102500", "163929.592500", "163931.082500", "163932.572500", "163934.062500", "163935.552500", "163937.042500", "163938.532500", "163940.022500", "163941.512500", "163943.002500", "163944.492500", "163945.982500", "163947.472500", "163948.962500", "163950.452500", "163951.942500", "163953.432500", "163954.922500", "163956.412500", "163957.902500", "163959.392500", "164000.882500", "164002.372500", "164003.862500", "164005.352500", "164006.842500", "164008.332500", "164009.822500", "164011.312500", "164012.802500", "164014.292500", "164015.782500", "164017.272500", "164018.762500", "164020.252500", "164021.742500", "164023.232500", "164024.722500", "164026.212500", "164027.702500", "164029.192500", "164030.682500", "164032.172500", "164033.662500", "164035.152500", "164036.642500", "164038.132500", "164039.622500", "164041.112500", "164042.602500", "164044.092500", "164045.582500", "164047.072500", "164048.562500", "164050.052500", "164051.542500", "164053.032500", "164054.522500", "164056.012500", "164057.502500", "164058.992500", "164100.482500", "164101.972500", "164103.462500", "164104.952500", "164106.442500", "164107.932500", "164109.422500", "164110.912500", "164112.402500", "164113.892500", "164115.382500", "164116.872500", "164118.362500", "164119.852500", "164121.342500", "164122.832500", "164124.322500", "164125.812500", "164127.302500", "164128.792500", "164130.282500", "164131.772500", "164133.262500", "164134.752500", "164136.242500", "164137.732500", "164139.222500", "164140.712500", "164142.202500", "164143.692500", "164145.182500", "164146.672500", "164148.162500", "164149.652500", "164151.142500", "164152.632500", "164154.122500", "164155.612500", "164157.102500", "164158.592500", "164200.082500", "164201.572500", "164203.062500", "164204.552500", "164206.042500", "164207.532500", "164209.022500", "164210.512500", "164212.002500", "164213.492500", "164214.982500", "164216.472500", "164217.962500", "164219.452500", "164220.942500", "164222.432500", "164223.922500", "164225.412500", "164226.902500", "164228.392500", "164229.882500", "164231.372500", "164232.862500", "164234.352500", "164235.842500", "164237.332500", "164238.822500", "164240.312500", "164241.802500", "164243.292500", "164244.782500", "164246.272500", "164247.762500", "164249.252500", "164250.742500", "164252.232500", "164253.722500", "164255.212500", "164256.702500", "164258.192500", "164259.682500", "164301.172500", "164302.662500", "164304.152500", "164305.642500", "164307.132500", "164308.622500", "164310.112500", "164311.602500", "164313.092500", "164314.582500", "164316.072500", "164317.562500", "164319.052500", "164320.542500", "164322.032500", "164323.522500", "164325.012500", "164326.502500", "164327.992500", "164329.482500", "164330.972500", "164332.462500", "164333.952500", "164335.442500", "164336.932500", "164338.422500", "164339.912500", "164341.402500", "164342.892500", "164344.382500", "164345.872500", "164347.362500", "164348.852500", "164350.342500", "164351.832500", "164353.322500", "164354.812500", "164356.302500", "164357.792500", "164359.282500", "164400.772500", "164402.262500", "164403.752500", "164405.242500", "164406.732500", "164408.222500", "164409.712500", "164411.202500", "164412.692500", "164414.182500", "164415.672500", "164417.162500", "164418.652500", "164420.142500", "164421.632500", "164423.122500", "164424.612500", "164426.102500", "164427.592500", "164429.082500", "164430.572500", "164432.062500", "164433.552500", "164435.042500", "164436.532500", "164438.022500", "164439.512500", "164441.002500", "164442.492500", "164443.982500", "164445.472500", "164446.962500", "164448.452500", "164449.942500", "164451.432500", "164452.922500", "164454.412500", "164455.902500", "164457.392500", "164458.882500", "164500.372500", "164501.862500", "164503.352500", "164504.842500", "164506.332500", "164507.822500", "164509.312500", "164510.802500", "164512.292500", "164513.782500", "164515.272500", "164516.762500", "164518.252500", "164519.742500", "164521.232500", "164522.722500", "164524.212500", "164525.702500", "164527.192500", "164528.682500", "164530.172500", "164531.662500", "164533.152500", "164534.642500", "164536.132500", "164537.622500", "164539.112500", "164540.602500", "164542.092500", "164543.582500", "164545.072500", "164546.562500", "164548.052500", "164549.542500", "164551.032500", "164552.522500", "164554.012500", "164555.502500", "164556.992500", "164558.482500", "164559.972500", "164601.462500", "164602.952500", "164604.442500", "164605.932500", "164607.422500", "164608.912500", "164610.402500", "164611.892500", "164613.382500", "164614.872500", "164616.362500", "164617.852500", "164619.342500", "164620.832500", "164622.322500", "164623.812500", "164625.302500", "164626.792500", "164628.282500", "164629.772500", "164631.262500", "164632.752500", "164634.242500", "164635.732500", "164637.222500", "164638.712500", "164640.202500", "164641.692500", "164643.182500", "164644.672500", "164646.162500", "164647.652500", "164649.142500", "164650.632500", "164652.122500", "164653.612500", "164655.102500", "164656.592500", "164658.082500", "164659.572500", "164701.062500", "164702.552500", "164704.042500", "164705.532500", "164707.022500", "164708.512500", "164710.002500", "164711.492500", "164712.982500", "164714.472500", "164715.962500", "164717.452500", "164718.942500", "164720.432500", "164721.922500", "164723.412500", "164724.902500", "164726.392500", "164727.882500", "164729.372500", "164730.862500", "164732.352500", "164733.842500", "164735.332500", "164736.822500", "164738.312500", "164739.802500", "164741.292500", "164742.782500", "164744.272500", "164745.762500", "164747.252500", "164748.742500", "164750.232500", "164751.722500", "164753.212500", "164754.702500", "164756.192500", "164757.682500", "164759.172500", "164800.662500", "164802.152500", "164803.642500", "164805.132500", "164806.622500", "164808.112500", "164809.602500", "164811.092500", "164812.582500", "164814.072500", "164815.562500", "164817.052500", "164818.542500", "164820.032500", "164821.522500", "164823.012500", "164824.502500", "164825.992500", "164827.482500", "164828.972500", "164830.462500", "164831.952500", "164833.442500", "164834.932500", "164836.422500", "164837.912500", "164839.402500", "164840.892500", "164842.382500", "164843.872500", "164845.362500", "164846.852500", "164848.342500", "164849.832500", "164851.322500", "164852.812500", "164854.302500", "164855.792500", "164857.282500", "164858.772500", "164900.262500", "164901.752500", "164903.242500", "164904.732500", "164906.222500", "164907.712500", "164909.202500", "164910.692500", "164912.182500", "164913.672500", "164915.162500", "164916.652500", "164918.142500", "164919.632500", "164921.122500", "164922.612500", "164924.102500", "164925.592500", "164927.082500", "164928.572500", "164930.062500", "164931.552500", "164933.042500", "164934.532500", "164936.022500", "164937.512500", "164939.002500", "164940.492500", "164941.982500", "164943.472500", "164944.962500", "164946.452500", "164947.942500", "164949.432500", "164950.922500", "164952.412500", "164953.902500", "164955.392500", "164956.882500", "164958.372500", "164959.862500", "165001.352500", "165002.842500", "165004.332500", "165005.822500", "165007.312500", "165008.802500", "165010.292500", "165011.782500", "165013.272500", "165014.762500", "165016.252500", "165017.742500", "165019.232500", "165020.722500", "165022.212500", "165023.702500", "165025.192500", "165026.682500", "165028.172500", "165029.662500", "165031.152500", "165032.642500"],
      "ContentTime": ["163926.677000", "163926.680000", "163926.683000", "163926.685000", "163926.688000", "163946.704000", "163946.707000", "163946.710000", "163946.712000", "163946.715000", "163946.718000", "163946.720000", "163946.723000", "163946.725000", "163946.728000", "163946.731000", "163946.733000", "163946.736000", "163946.738000", "163946.741000", "163946.743000", "163946.746000", "163946.749000", "163946.751000", "163946.754000", "164006.709000", "164006.712000", "164006.715000", "164006.717000", "164006.720000", "164006.722000", "164006.725000", "164006.728000", "164006.730000", "164006.733000", "164006.735000", "164006.737000", "164006.740000", "164006.742000", "164006.745000", "164006.747000", "164006.750000", "164006.753000", "164006.755000", "164006.757000", "164026.697000", "164026.700000", "164026.702000", "164026.705000", "164026.707000", "164026.710000", "164026.717000", "164026.720000", "164026.722000", "164026.725000", "164026.728000", "164026.730000", "164026.733000", "164026.735000", "164026.738000", "164026.740000", "164026.743000", "164026.745000", "164026.748000", "164026.750000", "164026.753000", "164046.724000", "164046.727000", "164046.730000", "164046.732000", "164046.735000", "164046.737000", "164046.740000", "164046.742000", "164046.745000", "164046.747000", "164046.750000", "164046.752000", "164046.755000", "164046.757000", "164046.760000", "164046.762000", "164046.765000", "164046.767000", "164046.770000", "164046.772000", "164126.755000", "164126.758000", "164126.761000", "164126.763000", "164126.766000", "164126.768000", "164126.771000", "164126.773000", "164126.776000", "164126.778000", "164126.781000", "164126.783000", "164126.786000", "164126.788000", "164126.791000", "164126.793000", "164126.796000", "164126.798000", "164126.801000", "164126.803000", "164126.806000", "164126.808000", "164126.811000", "164126.813000", "164126.816000", "164126.818000", "164126.821000", "164126.823000", "164126.826000", "164206.734000", "164206.737000", "164206.739000", "164206.742000", "164206.744000", "164206.747000", "164206.749000", "164206.753000", "164206.756000", "164206.758000", "164206.761000", "164206.763000", "164206.766000", "164206.768000", "164206.771000", "164206.773000", "164206.776000", "164206.778000", "164206.797000", "164206.799000", "164206.802000", "164206.804000", "164206.807000", "164206.809000", "164206.812000", "164206.814000", "164206.817000", "164246.735000", "164246.738000", "164246.741000", "164246.743000", "164246.746000", "164246.748000", "164246.751000", "164246.753000", "164246.756000", "164246.758000", "164246.761000", "164246.763000", "164246.766000", "164246.768000", "164246.771000", "164246.773000", "164246.776000", "164246.778000", "164246.781000", "164246.783000", "164246.786000", "164246.789000", "164246.791000", "164246.793000", "164246.796000", "164246.799000", "164246.801000", "164326.743000", "164326.746000", "164326.748000", "164326.751000", "164326.753000", "164326.756000", "164326.758000", "164326.761000", "164326.763000", "164326.766000", "164326.768000", "164326.771000", "164326.774000", "164326.777000", "164326.779000", "164326.782000", "164326.784000", "164326.787000", "164326.789000", "164326.792000", "164326.795000", "164326.797000", "164326.799000", "164326.802000", "164326.804000", "164326.807000", "164326.809000", "164406.727000", "164406.730000", "164406.733000", "164406.735000", "164406.738000", "164406.740000", "164406.743000", "164406.745000", "164406.748000", "164406.750000", "164406.753000", "164406.755000", "164406.758000", "164406.760000", "164406.763000", "164406.765000", "164406.768000", "164406.770000", "164406.773000", "164406.775000", "164406.778000", "164406.780000", "164406.783000", "164406.785000", "164406.788000", "164406.790000", "164406.793000", "164446.748000", "164446.750000", "164446.753000", "164446.755000", "164446.758000", "164446.760000", "164446.763000", "164446.766000", "164446.768000", "164446.771000", "164446.773000", "164446.776000", "164446.778000", "164446.781000", "164446.783000", "164446.786000", "164446.789000", "164446.791000", "164446.794000", "164446.796000", "164446.799000", "164446.801000", "164446.803000", "164446.806000", "164446.809000", "164446.811000", "164446.814000", "164526.750000", "164526.752000", "164526.755000", "164526.757000", "164526.760000", "164526.763000", "164526.765000", "164526.768000", "164526.770000", "164526.773000", "164526.775000", "164526.778000", "164526.780000", "164526.783000", "164526.785000", "164526.788000", "164526.790000", "164526.793000", "164526.795000", "164526.798000", "164526.800000", "164526.803000", "164526.805000", "164526.808000", "164526.810000", "164526.813000", "164526.815000", "164606.729000", "164606.732000", "164606.734000", "164606.737000", "164606.739000", "164606.742000", "164606.744000", "164606.747000", "164606.749000", "164606.752000", "164606.754000", "164606.757000", "164606.759000", "164606.762000", "164606.765000", "164606.767000", "164606.770000", "164606.772000", "164606.775000", "164606.778000", "164606.780000", "164606.783000", "164606.785000", "164606.788000", "164606.791000", "164606.793000", "164646.742000", "164646.745000", "164646.748000", "164646.750000", "164646.753000", "164646.755000", "164646.763000", "164646.766000", "164646.768000", "164646.771000", "164646.774000", "164646.776000", "164646.779000", "164646.781000", "164646.784000", "164646.786000", "164646.789000", "164646.791000", "164646.794000", "164646.796000", "164646.799000", "164646.801000", "164646.804000", "164646.806000", "164646.809000", "164646.811000", "164646.814000", "164726.728000", "164726.731000", "164726.734000", "164726.736000", "164726.739000", "164726.741000", "164726.744000", "164726.746000", "164726.749000", "164726.751000", "164726.754000", "164726.756000", "164726.759000", "164726.761000", "164726.764000", "164726.766000", "164726.769000", "164726.771000", "164726.774000", "164726.776000", "164726.779000", "164726.781000", "164726.784000", "164726.787000", "164726.789000", "164726.792000", "164726.794000", "164806.742000", "164806.745000", "164806.747000", "164806.750000", "164806.752000", "164806.755000", "164806.758000", "164806.760000", "164806.763000", "164806.765000", "164806.768000", "164806.771000", "164806.773000", "164806.776000", "164806.778000", "164806.781000", "164806.784000", "164806.786000", "164806.789000", "164806.791000", "164806.794000", "164806.796000", "164806.799000", "164806.801000", "164806.804000", "164806.806000", "164806.809000", "164826.683000", "164826.686000", "164826.689000", "164826.691000", "164826.694000", "164826.697000", "164826.700000", "164826.702000", "164826.705000", "164826.708000", "164826.710000", "164826.713000", "164826.715000", "164906.738000", "164906.741000", "164906.743000", "164906.746000", "164906.748000", "164906.751000", "164906.753000", "164906.756000", "164906.758000", "164906.776000", "164906.779000", "164906.781000", "164906.784000", "164906.786000", "164906.789000", "164906.791000", "164906.794000", "164906.796000", "164906.799000", "164906.801000", "164906.804000", "164906.806000", "164906.809000", "164906.811000", "164906.813000", "164906.816000", "164906.819000", "164947.140000", "164947.143000", "164947.146000", "164947.148000", "164947.151000", "164947.153000", "164947.156000", "164947.158000", "164947.161000", "164947.164000", "164947.167000", "164947.170000", "164947.172000", "164947.175000", "164947.177000", "164947.180000", "164947.182000", "164947.185000", "164947.187000", "164947.190000", "164947.192000", "164947.195000", "164947.197000", "164947.200000", "164947.202000", "164947.205000", "164947.208000", "165026.744000", "165026.752000", "165026.754000", "165026.757000", "165026.759000", "165026.762000", "165026.764000", "165026.767000", "165026.769000", "165026.772000", "165026.774000", "165026.777000", "165026.779000", "165026.782000", "165026.784000", "165026.787000", "165026.789000", "165026.792000", "165026.794000", "165026.797000", "165026.799000", "165026.802000", "165026.805000", "165026.807000", "165026.809000", "165026.812000", "165026.814000", "165036.143000", "165036.146000", "165036.149000", "165036.151000", "165036.154000", "165036.156000"],
