{
  "AcquisitionMatrixPE": 104,
  "AcquisitionNumber": 1,
  "AcquisitionTime": "16:53:26.307500",
  "BandwidthPerPixelPhaseEncode": 17.17,
  "BaseResolution": 104,
  "BodyPartExamined": "BRAIN",
  "CoilCombinationMethod": "Sum of Squares",
  "ConsistencyInfo": "N4_VE11C_LATEST_20160120",
  "ConversionSoftware": "dcm2niix",
  "ConversionSoftwareVersion": "v1.0.20211006",
  "DerivedVendorReportedEchoSpacing": 0.000560011,
  "DeviceSerialNumber": "167006",
  "DwellTime": 2.1e-06,
  "EchoTime": 0.037,
  "EchoTrainLength": 104,
  "EffectiveEchoSpacing": 0.000560011,
  "FlipAngle": 52,
  "HeudiconvVersion": "0.11.3.post9+gc939bf8",
  "ImageComments": "Unaliased MB4/PE3/LB",
  "ImageOrientationPatientDICOM": [0.999711, -0.0196277, 0.0138691, 0.023385, 0.927564, -0.372932],
  "ImageOrientationText": "Tra>Cor(-21.9)>Sag(0.3)",
  "ImageType": [
    "ORIGINAL",
    "PRIMARY",
    "M",
    "MB",
    "ND",
    "MOSAIC"
],
  "ImagingFrequency": 123.259,
  "InPlanePhaseEncodingDirectionDICOM": "COL",
  "InstitutionAddress": "Chemin Queen-Mary 4565,Montreal,District,CA,H3W 1W5",
  "InstitutionName": "IUGM",
  "InstitutionalDepartmentName": "Department",
  "MRAcquisitionType": "2D",
  "MagneticFieldStrength": 3,
  "Manufacturer": "Siemens",
  "ManufacturersModelName": "Prisma_fit",
  "MatrixCoilMode": "SENSE",
  "Modality": "MR",
  "MultibandAccelerationFactor": 4,
  "PartialFourier": 1,
  "PatientPosition": "HFS",
  "PercentPhaseFOV": 100,
  "PercentSampling": 100,
  "PhaseEncodingDirection": "j",
  "PhaseEncodingSteps": 104,
  "PhaseResolution": 1,
  "PixelBandwidth": 2290,
  "ProcedureStepDescription": "games^mario",
  "ProtocolName": "func_task-mario_run-03",
  "PulseSequenceDetails": "%CustomerSeq%\\cmrr_mbep2d_bold",
  "ReceiveCoilActiveElements": "HC1-7;NC1,2",
  "ReceiveCoilName": "HeadNeck_64",
  "ReconMatrixPE": 104,
  "RepetitionTime": 1.49,
  "SAR": 0.0905097,
  "ScanOptions": "FS",
  "ScanningSequence": "EP",
  "SequenceName": "epfid2d1_104",
  "SequenceVariant": "SK\\SS",
  "SeriesDescription": "func_task-mario_run-03",
  "SeriesNumber": 16,
  "ShimSetting": [612, -7245, -8834, 362, 11, -336, 27, 12],
  "SliceThickness": 2,
  "SliceTiming": [0, 0.785, 0.0975, 0.8825, 0.195, 0.98, 0.295, 1.0775, 0.3925, 1.175, 0.49, 1.275, 0.5875, 1.3725, 0.685, 0, 0.785, 0.0975, 0.8825, 0.195, 0.98, 0.295, 1.0775, 0.3925, 1.175, 0.49, 1.275, 0.5875, 1.3725, 0.685, 0, 0.785, 0.0975, 0.8825, 0.195, 0.98, 0.295, 1.0775, 0.3925, 1.175, 0.49, 1.275, 0.5875, 1.3725, 0.685, 0, 0.785, 0.0975, 0.8825, 0.195, 0.98, 0.295, 1.0775, 0.3925, 1.175, 0.49, 1.275, 0.5875, 1.3725, 0.685],
  "SoftwareVersions": "syngo MR E11",
  "SpacingBetweenSlices": 2,
  "StationName": "MRC35049",
  "TaskName": "mario",
  "TotalReadoutTime": 0.0576811,
  "TxRefAmp": 308.036,
  "WipMemBlock": "699771eb-771f-406a-a8a6-caa84d042854||Sequence: R017 ve11c/master r/75a17815+; Jun 28 2022 16:32:11 by eja",
  "dcmmeta_affine": [
    [-1.999422311782837, 0.046769946813583374, 0.011089339852333069, 100.86538696289062],
    [0.039255496114492416, 1.855128288269043, -0.7462963461875916, -63.496559143066406],
    [0.027738193050026894, 0.7458630800247192, 1.8555104732513428, -70.25985717773438],
    [0.0, 0.0, 0.0, 1.0]
],
  "dcmmeta_reorient_transform": [
    [0.0, -1.0, 0.0, 103.0],
    [1.0, 0.0, 0.0, 0.0],
    [0.0, 0.0, 1.0, 0.0],
    [0.0, 0.0, 0.0, 1.0]
],
  "dcmmeta_shape": [104, 104, 60, 484],
  "dcmmeta_slice_dim": 2,
  "dcmmeta_version": 0.6,
  "global": {
    "const": {
      "AcquisitionMatrix": [104, 0, 0, 104],
      "AngioFlag": "N",
      "BitsAllocated": 16,
      "BitsStored": 16,
      "BodyPartExamined": "BRAIN",
      "Columns": 832,
      "EchoNumbers": 1,
      "EchoTime": 37.0,
      "EchoTrainLength": 104,
      "FlipAngle": 52.0,
      "HighBit": 15,
      "ImageOrientationPatient": [0.99971115813354, -0.0196277474161, 0.0138690963895, 0.02338497250444, 0.9275641218587, -0.3729315525689],
      "ImagePositionPatient": [-850.49667148002, -788.55932879504, 267.96151162172],
      "ImageType": [
        "ORIGINAL",
        "PRIMARY",
        "M",
        "MB",
        "ND",
        "MOSAIC"
],
      "ImagedNucleus": "1H",
      "ImagingFrequency": 123.258788,
      "InPlanePhaseEncodingDirection": "COL",
      "MRAcquisitionType": "2D",
      "MagneticFieldStrength": 3.0,
      "Manufacturer": "SIEMENS",
      "ManufacturerModelName": "Prisma_fit",
      "Modality": "MR",
      "NumberOfAverages": 1.0,
      "NumberOfPhaseEncodingSteps": 104,
      "PercentPhaseFieldOfView": 100.0,
      "PercentSampling": 100.0,
      "PerformedProcedureStepStartTime": "161345.182000",
      "PhotometricInterpretation": "MONOCHROME2",
      "PixelBandwidth": 2290.0,
      "PixelRepresentation": 0,
      "PixelSpacing": [2.0, 2.0],
      "ProtocolName": "func_task-mario_run-03",
      "RepetitionTime": 1490.0,
      "Rows": 832,
      "SAR": 0.09050973428704,
      "SamplesPerPixel": 1,
      "ScanOptions": "FS",
      "ScanningSequence": "EP",
      "SequenceName": "epfid2d1_104",
      "SequenceVariant": [
        "SK",
        "SS"
],
      "SeriesDescription": "func_task-mario_run-03",
      "SeriesNumber": 16,
      "SeriesTime": "165446.374000",
      "SliceLocation": -40.931056516521,
      "SliceThickness": 2.0,
      "SmallestImagePixelValue": 0,
      "SoftwareVersions": "syngo MR E11",
      "SpacingBetweenSlices": 2.0000000460136,
      "SpecificCharacterSet": "ISO_IR 100",
      "StudyID": "1",
      "StudyTime": "161345.114000",
      "TransmitCoilName": "Body",
      "VariableFlipAngleFlag": "N",
      "WindowCenterWidthExplanation": "Algo1",
      "dBdt": 0.0},
    "slices": {}
  },
  "time": {
    "samples": {
      "AcquisitionNumber": [1, 2, 3, 4, 5, 6, 7, 8, 9, 10, 11, 12, 13, 14, 15, 16, 17, 18, 19, 20, 21, 22, 23, 24, 25, 26, 27, 28, 29, 30, 31, 32, 33, 34, 35, 36, 37, 38, 39, 40, 41, 42, 43, 44, 45, 46, 47, 48, 49, 50, 51, 52, 53, 54, 55, 56, 57, 58, 59, 60, 61, 62, 63, 64, 65, 66, 67, 68, 69, 70, 71, 72, 73, 74, 75, 76, 77, 78, 79, 80, 81, 82, 83, 84, 85, 86, 87, 88, 89, 90, 91, 92, 93, 94, 95, 96, 97, 98, 99, 100, 101, 102, 103, 104, 105, 106, 107, 108, 109, 110, 111, 112, 113, 114, 115, 116, 117, 118, 119, 120, 121, 122, 123, 124, 125, 126, 127, 128, 129, 130, 131, 132, 133, 134, 135, 136, 137, 138, 139, 140, 141, 142, 143, 144, 145, 146, 147, 148, 149, 150, 151, 152, 153, 154, 155, 156, 157, 158, 159, 160, 161, 162, 163, 164, 165, 166, 167, 168, 169, 170, 171, 172, 173, 174, 175, 176, 177, 178, 179, 180, 181, 182, 183, 184, 185, 186, 187, 188, 189, 190, 191, 192, 193, 194, 195, 196, 197, 198, 199, 200, 201, 202, 203, 204, 205, 206, 207, 208, 209, 210, 211, 212, 213, 214, 215, 216, 217, 218, 219, 220, 221, 222, 223, 224, 225, 226, 227, 228, 229, 230, 231, 232, 233, 234, 235, 236, 237, 238, 239, 240, 241, 242, 243, 244, 245, 246, 247, 248, 249, 250, 251, 252, 253, 254, 255, 256, 257, 258, 259, 260, 261, 262, 263, 264, 265, 266, 267, 268, 269, 270, 271, 272, 273, 274, 275, 276, 277, 278, 279, 280, 281, 282, 283, 284, 285, 286, 287, 288, 289, 290, 291, 292, 293, 294, 295, 296, 297, 298, 299, 300, 301, 302, 303, 304, 305, 306, 307, 308, 309, 310, 311, 312, 313, 314, 315, 316, 317, 318, 319, 320, 321, 322, 323, 324, 325, 326, 327, 328, 329, 330, 331, 332, 333, 334, 335, 336, 337, 338, 339, 340, 341, 342, 343, 344, 345, 346, 347, 348, 349, 350, 351, 352, 353, 354, 355, 356, 357, 358, 359, 360, 361, 362, 363, 364, 365, 366, 367, 368, 369, 370, 371, 372, 373, 374, 375, 376, 377, 378, 379, 380, 381, 382, 383, 384, 385, 386, 387, 388, 389, 390, 391, 392, 393, 394, 395, 396, 397, 398, 399, 400, 401, 402, 403, 404, 405, 406, 407, 408, 409, 410, 411, 412, 413, 414, 415, 416, 417, 418, 419, 420, 421, 422, 423, 424, 425, 426, 427, 428, 429, 430, 431, 432, 433, 434, 435, 436, 437, 438, 439, 440, 441, 442, 443, 444, 445, 446, 447, 448, 449, 450, 451, 452, 453, 454, 455, 456, 457, 458, 459, 460, 461, 462, 463, 464, 465, 466, 467, 468, 469, 470, 471, 472, 473, 474, 475, 476, 477, 478, 479, 480, 481, 482, 483, 484],
      "AcquisitionTime": ["165326.307500", "165327.797500", "165329.287500", "165330.777500", "165332.267500", "165333.757500", "165335.247500", "165336.737500", "165338.227500", "165339.717500", "165341.207500", "165342.697500", "165344.187500", "165345.677500", "165347.167500", "165348.657500", "165350.147500", "165351.637500", "165353.127500", "165354.617500", "165356.107500", "165357.597500", "165359.087500", "165400.577500", "165402.067500", "165403.557500", "165405.047500", "165406.537500", "165408.027500", "165409.517500", "165411.007500", "165412.497500", "165413.987500", "165415.477500", "165416.967500", "165418.457500", "165419.947500", "165421.437500", "165422.927500", "165424.417500", "165425.907500", "165427.397500", "165428.887500", "165430.377500", "165431.867500", "165433.357500", "165434.847500", "165436.337500", "165437.827500", "165439.317500", "165440.807500", "165442.297500", "165443.787500", "165445.277500", "165446.767500", "165448.257500", "165449.747500", "165451.237500", "165452.727500", "165454.217500", "165455.707500", "165457.197500", "165458.687500", "165500.177500", "165501.667500", "165503.157500", "165504.647500", "165506.137500", "165507.627500", "165509.117500", "165510.607500", "165512.097500", "165513.587500", "165515.077500", "165516.567500", "165518.057500", "165519.547500", "165521.037500", "165522.527500", "165524.017500", "165525.507500", "165526.997500", "165528.487500", "165529.977500", "165531.467500", "165532.957500", "165534.447500", "165535.937500", "165537.427500", "165538.917500", "165540.407500", "165541.897500", "165543.387500", "165544.877500", "165546.367500", "165547.857500", "165549.347500", "165550.837500", "165552.327500", "165553.817500", "165555.307500", "165556.797500", "165558.287500", "165559.777500", "165601.267500", "165602.757500", "165604.247500", "165605.737500", "165607.227500", "165608.717500", "165610.207500", "165611.697500", "165613.187500", "165614.677500", "165616.167500", "165617.657500", "165619.147500", "165620.637500", "165622.127500", "165623.617500", "165625.107500", "165626.597500", "165628.087500", "165629.577500", "165631.067500", "165632.557500", "165634.047500", "165635.537500", "165637.027500", "165638.517500", "165640.007500", "165641.497500", "165642.987500", "165644.477500", "165645.967500", "165647.457500", "165648.947500", "165650.437500", "165651.927500", "165653.417500", "165654.907500", "165656.397500", "165657.887500", "165659.377500", "165700.867500", "165702.357500", "165703.847500", "165705.337500", "165706.827500", "165708.317500", "165709.807500", "165711.297500", "165712.787500", "165714.277500", "165715.767500", "165717.257500", "165718.747500", "165720.237500", "165721.727500", "165723.217500", "165724.707500", "165726.197500", "165727.687500", "165729.177500", "165730.667500", "165732.157500", "165733.647500", "165735.137500", "165736.627500", "165738.117500", "165739.607500", "165741.097500", "165742.587500", "165744.077500", "165745.567500", "165747.057500", "165748.547500", "165750.037500", "165751.527500", "165753.017500", "165754.507500", "165755.997500", "165757.487500", "165758.977500", "165800.467500", "165801.957500", "165803.447500", "165804.937500", "165806.427500", "165807.917500", "165809.407500", "165810.897500", "165812.387500", "165813.877500", "165815.367500", "165816.857500", "165818.347500", "165819.837500", "165821.327500", "165822.817500", "165824.307500", "165825.797500", "165827.287500", "165828.777500", "165830.267500", "165831.757500", "165833.247500", "165834.737500", "165836.227500", "165837.717500", "165839.207500", "165840.697500", "165842.187500", "165843.677500", "165845.167500", "165846.657500", "165848.147500", "165849.637500", "165851.127500", "165852.617500", "165854.107500", "165855.597500", "165857.087500", "165858.577500", "165900.067500", "165901.557500", "165903.047500", "165904.537500", "165906.027500", "165907.517500", "165909.007500", "165910.497500", "165911.987500", "165913.477500", "165914.967500", "165916.457500", "165917.947500", "165919.437500", "165920.927500", "165922.417500", "165923.907500", "165925.397500", "165926.887500", "165928.377500", "165929.867500", "165931.357500", "165932.847500", "165934.337500", "165935.827500", "165937.317500", "165938.807500", "165940.297500", "165941.787500", "165943.277500", "165944.767500", "165946.257500", "165947.747500", "165949.237500", "165950.727500", "165952.217500", "165953.707500", "165955.197500", "165956.687500", "165958.177500", "165959.667500", "170001.157500", "170002.647500", "170004.137500", "170005.627500", "170007.117500", "170008.607500", "170010.097500", "170011.587500", "170013.077500", "170014.567500", "170016.057500", "170017.547500", "170019.037500", "170020.527500", "170022.017500", "170023.507500", "170024.997500", "170026.487500", "170027.977500", "170029.467500", "170030.957500", "170032.447500", "170033.937500", "170035.427500", "170036.917500", "170038.407500", "170039.897500", "170041.387500", "170042.877500", "170044.367500", "170045.857500", "170047.347500", "170048.837500", "170050.327500", "170051.817500", "170053.307500", "170054.797500", "170056.287500", "170057.777500", "170059.267500", "170100.757500", "170102.247500", "170103.737500", "170105.227500", "170106.717500", "170108.207500", "170109.697500", "170111.187500", "170112.677500", "170114.167500", "170115.657500", "170117.147500", "170118.637500", "170120.127500", "170121.617500", "170123.107500", "170124.597500", "170126.087500", "170127.577500", "170129.067500", "170130.557500", "170132.047500", "170133.537500", "170135.027500", "170136.517500", "170138.007500", "170139.497500", "170140.987500", "170142.477500", "170143.967500", "170145.457500", "170146.947500", "170148.437500", "170149.927500", "170151.417500", "170152.907500", "170154.397500", "170155.887500", "170157.377500", "170158.867500", "170200.357500", "170201.847500", "170203.337500", "170204.827500", "170206.317500", "170207.807500", "170209.297500", "170210.787500", "170212.277500", "170213.767500", "170215.257500", "170216.747500", "170218.237500", "170219.727500", "170221.217500", "170222.707500", "170224.197500", "170225.687500", "170227.177500", "170228.667500", "170230.157500", "170231.647500", "170233.137500", "170234.627500", "170236.117500", "170237.607500", "170239.097500", "170240.587500", "170242.077500", "170243.567500", "170245.057500", "170246.547500", "170248.037500", "170249.527500", "170251.017500", "170252.507500", "170253.997500", "170255.487500", "170256.977500", "170258.467500", "170259.957500", "170301.447500", "170302.937500", "170304.427500", "170305.917500", "170307.407500", "170308.897500", "170310.387500", "170311.877500", "170313.367500", "170314.857500", "170316.347500", "170317.837500", "170319.327500", "170320.817500", "170322.307500", "170323.797500", "170325.287500", "170326.777500", "170328.267500", "170329.757500", "170331.247500", "170332.737500", "170334.227500", "170335.717500", "170337.207500", "170338.697500", "170340.187500", "170341.677500", "170343.167500", "170344.657500", "170346.147500", "170347.637500", "170349.127500", "170350.617500", "170352.107500", "170353.597500", "170355.087500", "170356.577500", "170358.067500", "170359.557500", "170401.047500", "170402.537500", "170404.027500", "170405.517500", "170407.007500", "170408.497500", "170409.987500", "170411.477500", "170412.967500", "170414.457500", "170415.947500", "170417.437500", "170418.927500", "170420.417500", "170421.907500", "170423.397500", "170424.887500", "170426.377500", "170427.867500", "170429.357500", "170430.847500", "170432.337500", "170433.827500", "170435.317500", "170436.807500", "170438.297500", "170439.787500", "170441.277500", "170442.767500", "170444.257500", "170445.747500", "170447.237500", "170448.727500", "170450.217500", "170451.707500", "170453.197500", "170454.687500", "170456.177500", "170457.667500", "170459.157500", "170500.647500", "170502.137500", "170503.627500", "170505.117500", "170506.607500", "170508.097500", "170509.587500", "170511.077500", "170512.567500", "170514.057500", "170515.547500", "170517.037500", "170518.527500", "170520.017500", "170521.507500", "170522.997500", "170524.487500", "170525.977500"],
      "ContentTime": ["165446.378000", "165446.381000", "165446.385000", "165446.388000", "165446.392000", "165446.395000", "165446.406000", "165446.409000", "165446.412000", "165446.416000", "165446.419000", "165446.422000", "165446.425000", "165446.429000", "165446.432000", "165446.435000", "165446.439000", "165446.442000", "165446.445000", "165446.449000", "165446.452000", "165446.455000", "165446.459000", "165446.462000", "165446.465000", "165446.469000", "165446.472000", "165446.476000", "165446.479000", "165446.482000", "165446.486000", "165506.343000", "165506.347000", "165506.350000", "165506.354000", "165506.357000", "165506.360000", "165506.364000", "165506.368000", "165506.371000", "165506.374000", "165506.378000", "165506.381000", "165506.384000", "165506.388000", "165506.391000", "165506.394000", "165506.398000", "165506.401000", "165506.404000", "165506.408000", "165506.411000", "165526.343000", "165526.347000", "165526.350000", "165526.354000", "165526.357000", "165526.360000", "165526.364000", "165526.382000", "165526.386000", "165526.389000", "165526.392000", "165526.396000", "165526.399000", "165526.402000", "165526.405000", "165526.409000", "165526.412000", "165526.415000", "165526.419000", "165526.422000", "165546.343000", "165546.347000", "165546.350000", "165546.354000", "165546.357000", "165546.360000", "165546.364000", "165546.367000", "165546.370000", "165546.374000", "165546.377000", "165546.380000", "165546.384000", "165546.387000", "165546.390000", "165546.394000", "165546.397000", "165546.400000", "165546.404000", "165546.407000", "165626.343000", "165626.347000", "165626.350000", "165626.354000", "165626.357000", "165626.360000", "165626.364000", "165626.367000", "165626.371000", "165626.374000", "165626.377000", "165626.381000", "165626.384000", "165626.387000", "165626.391000", "165626.394000", "165626.397000", "165626.401000", "165626.404000", "165626.407000", "165626.411000", "165626.414000", "165626.418000", "165626.421000", "165626.424000", "165626.428000", "165626.431000", "165626.434000", "165706.343000", "165706.347000", "165706.350000", "165706.354000", "165706.357000", "165706.361000", "165706.364000", "165706.367000", "165706.371000", "165706.374000", "165706.377000", "165706.381000", "165706.384000", "165706.387000", "165706.391000", "165706.394000", "165706.397000", "165706.401000", "165706.404000", "165706.407000", "165706.411000", "165706.414000", "165706.418000", "165706.421000", "165706.424000", "165706.427000", "165706.431000", "165746.343000", "165746.347000", "165746.351000", "165746.355000", "165746.359000", "165746.363000", "165746.366000", "165746.369000", "165746.373000", "165746.376000", "165746.396000", "165746.399000", "165746.403000", "165746.431000", "165746.434000", "165746.437000", "165746.441000", "165746.444000", "165746.447000", "165746.451000", "165746.454000", "165746.457000", "165746.461000", "165746.464000", "165746.467000", "165746.471000", "165826.342000", "165826.346000", "165826.349000", "165826.353000", "165826.356000", "165826.359000", "165826.363000", "165826.366000", "165826.369000", "165826.373000", "165826.376000", "165826.379000", "165826.383000", "165826.386000", "165826.390000", "165826.393000", "165826.396000", "165826.400000", "165826.403000", "165826.407000", "165826.410000", "165826.413000", "165826.417000", "165826.420000", "165826.423000", "165826.427000", "165826.430000", "165906.343000", "165906.347000", "165906.350000", "165906.354000", "165906.357000", "165906.361000", "165906.364000", "165906.367000", "165906.371000", "165906.374000", "165906.377000", "165906.381000", "165906.384000", "165906.388000", "165906.391000", "165906.394000", "165906.398000", "165906.401000", "165906.405000", "165906.408000", "165906.412000", "165906.415000", "165906.418000", "165906.422000", "165906.425000", "165906.428000", "165906.432000", "165946.343000", "165946.347000", "165946.350000", "165946.354000", "165946.357000", "165946.360000", "165946.364000", "165946.367000", "165946.371000", "165946.374000", "165946.377000", "165946.381000", "165946.384000", "165946.387000", "165946.391000", "165946.394000", "165946.398000", "165946.401000", "165946.405000", "165946.408000", "165946.411000", "165946.415000", "165946.418000", "165946.421000", "165946.425000", "165946.428000", "165946.431000", "170026.342000", "170026.346000", "170026.349000", "170026.353000", "170026.356000", "170026.360000", "170026.371000", "170026.374000", "170026.378000", "170026.381000", "170026.385000", "170026.388000", "170026.391000", "170026.395000", "170026.398000", "170026.401000", "170026.405000", "170026.408000", "170026.411000", "170026.415000", "170026.418000", "170026.421000", "170026.425000", "170026.428000", "170026.432000", "170026.435000", "170026.438000", "170106.343000", "170106.347000", "170106.350000", "170106.354000", "170106.357000", "170106.361000", "170106.364000", "170106.367000", "170106.371000", "170106.374000", "170106.377000", "170106.381000", "170106.384000", "170106.388000", "170106.391000", "170106.394000", "170106.398000", "170106.401000", "170106.404000", "170106.408000", "170106.411000", "170106.415000", "170106.418000", "170106.421000", "170106.425000", "170106.428000", "170106.431000", "170146.343000", "170146.347000", "170146.350000", "170146.354000", "170146.357000", "170146.361000", "170146.364000", "170146.367000", "170146.371000", "170146.374000", "170146.378000", "170146.381000", "170146.384000", "170146.388000", "170146.391000", "170146.394000", "170146.398000", "170146.401000", "170146.404000", "170146.408000", "170146.411000", "170146.414000", "170146.418000", "170146.421000", "170146.425000", "170146.428000", "170146.431000", "170226.344000", "170226.347000", "170226.351000", "170226.354000", "170226.358000", "170226.361000", "170226.364000", "170226.368000", "170226.371000", "170226.375000", "170226.378000", "170226.381000", "170226.385000", "170226.388000", "170226.391000", "170226.395000", "170226.398000", "170226.402000", "170226.405000", "170226.408000", "170226.424000", "170226.427000", "170226.431000", "170226.434000", "170226.437000", "170226.441000", "170306.342000", "170306.346000", "170306.350000", "170306.353000", "170306.356000", "170306.360000", "170306.363000", "170306.367000", "170306.370000", "170306.374000", "170306.377000", "170306.382000", "170306.385000", "170306.389000", "170306.392000", "170306.396000", "170306.399000", "170306.402000", "170306.406000", "170306.409000", "170306.412000", "170306.416000", "170306.419000", "170306.422000", "170306.426000", "170306.429000", "170306.432000", "170346.344000", "170346.347000", "170346.351000", "170346.354000", "170346.357000", "170346.361000", "170346.365000", "170346.368000", "170346.371000", "170346.375000", "170346.378000", "170346.382000", "170346.385000", "170346.389000", "170346.392000", "170346.395000", "170346.399000", "170346.402000", "170346.406000", "170346.409000", "170346.413000", "170346.416000", "170346.419000", "170346.423000", "170346.426000", "170346.430000", "170346.433000", "170426.343000", "170426.347000", "170426.350000", "170426.354000", "170426.357000", "170426.360000", "170426.364000", "170426.367000", "170426.371000", "170426.374000", "170426.377000", "170426.381000", "170426.384000", "170426.388000", "170426.391000", "170426.394000", "170426.398000", "170426.401000", "170426.405000", "170426.408000", "170426.412000", "170426.415000", "170426.418000", "170426.422000", "170426.425000", "170426.429000", "170426.432000", "170506.342000", "170506.346000", "170506.349000", "170506.353000", "170506.356000", "170506.359000", "170506.363000", "170506.366000", "170506.370000", "170506.373000", "170506.376000", "170506.380000", "170506.383000", "170506.387000", "170506.390000", "170506.393000", "170506.397000", "170506.400000", "170506.403000", "170506.407000", "170506.410000", "170506.413000", "170506.417000", "170506.420000", "170506.424000", "170506.427000", "170506.430000", "170529.263000", "170529.267000", "170529.270000", "170529.273000", "170529.277000", "170529.280000", "170529.284000", "170529.287000", "170529.291000", "170529.294000", "170529.297000", "170529.301000", "170529.304000", "170529.307000", "170529.311000"],
