{
  "AcquisitionMatrixPE": 104,
  "AcquisitionNumber": 1,
  "AcquisitionTime": "17:20:43.275000",
  "BandwidthPerPixelPhaseEncode": 17.17,
  "BaseResolution": 104,
  "BodyPartExamined": "BRAIN",
  "CoilCombinationMethod": "Sum of Squares",
  "ConsistencyInfo": "N4_VE11C_LATEST_20160120",
  "ConversionSoftware": "dcm2niix",
  "ConversionSoftwareVersion": "v1.0.20211006",
  "DerivedVendorReportedEchoSpacing": 0.000560011,
  "DeviceSerialNumber": "167006",
  "DwellTime": 2.1e-06,
  "EchoTime": 0.037,
  "EchoTime1": 0.037,
  "EchoTime2": 0.001,
  "EchoTrainLength": 104,
  "EffectiveEchoSpacing": 0.000560011,
  "FlipAngle": 52,
  "HeudiconvVersion": "0.11.3.post9+gc939bf8",
  "ImageComments": "Unaliased MB4/PE3/LB",
  "ImageOrientationPatientDICOM": [0.999711, -0.0196277, 0.0138691, 0.023385, 0.927564, -0.372932],
  "ImageOrientationText": "Tra>Cor(-21.9)>Sag(0.3)",
  "ImageType": [
    "ORIGINAL",
    "PRIMARY",
    "P",
    "MB",
    "ND",
    "MOSAIC",
    "PHASE"
],
  "ImagingFrequency": 123.259,
  "InPlanePhaseEncodingDirectionDICOM": "COL",
  "InstitutionAddress": "Chemin Queen-Mary 4565,Montreal,District,CA,H3W 1W5",
  "InstitutionName": "IUGM",
  "InstitutionalDepartmentName": "Department",
  "MRAcquisitionType": "2D",
  "MagneticFieldStrength": 3,
  "Manufacturer": "Siemens",
  "ManufacturersModelName": "Prisma_fit",
  "MatrixCoilMode": "SENSE",
  "Modality": "MR",
  "MultibandAccelerationFactor": 4,
  "PartialFourier": 1,
  "PatientPosition": "HFS",
  "PercentPhaseFOV": 100,
  "PercentSampling": 100,
  "PhaseEncodingDirection": "j",
  "PhaseEncodingSteps": 104,
  "PhaseResolution": 1,
  "PixelBandwidth": 2290,
  "ProcedureStepDescription": "games^mario",
  "ProtocolName": "func_task-mario_run-05",
  "PulseSequenceDetails": "%CustomerSeq%\\cmrr_mbep2d_bold",
  "ReceiveCoilActiveElements": "HC1-7;NC1,2",
  "ReceiveCoilName": "HeadNeck_64",
  "ReconMatrixPE": 104,
  "RepetitionTime": 1.49,
  "SAR": 0.0905097,
  "ScanOptions": "FS",
  "ScanningSequence": "EP",
  "SequenceName": "epfid2d1_104",
  "SequenceVariant": "SK\\SS",
  "SeriesDescription": "func_task-mario_run-05",
  "SeriesNumber": 23,
  "ShimSetting": [612, -7245, -8834, 362, 11, -336, 27, 12],
  "SliceThickness": 2,
  "SliceTiming": [0, 0.785, 0.0975, 0.8825, 0.195, 0.98, 0.295, 1.0775, 0.3925, 1.175, 0.49, 1.275, 0.5875, 1.3725, 0.685, 0, 0.785, 0.0975, 0.8825, 0.195, 0.98, 0.295, 1.0775, 0.3925, 1.175, 0.49, 1.275, 0.5875, 1.3725, 0.685, 0, 0.785, 0.0975, 0.8825, 0.195, 0.98, 0.295, 1.0775, 0.3925, 1.175, 0.49, 1.275, 0.5875, 1.3725, 0.685, 0, 0.785, 0.0975, 0.8825, 0.195, 0.98, 0.295, 1.0775, 0.3925, 1.175, 0.49, 1.275, 0.5875, 1.3725, 0.685],
  "SoftwareVersions": "syngo MR E11",
  "SpacingBetweenSlices": 2,
  "StationName": "MRC35049",
  "TaskName": "mario",
  "TotalReadoutTime": 0.0576811,
  "TxRefAmp": 308.036,
  "WipMemBlock": "1e0cc4ac-214a-48c0-bc46-a749f030cfb0||Sequence: R017 ve11c/master r/75a17815+; Jun 28 2022 16:32:11 by eja",
  "dcmmeta_affine": [
    [-1.999422311782837, 0.046769946813583374, 0.011089339852333069, 100.86538696289062],
    [0.039255496114492416, 1.855128288269043, -0.7462963461875916, -63.496559143066406],
    [0.027738193050026894, 0.7458630800247192, 1.8555104732513428, -70.25985717773438],
    [0.0, 0.0, 0.0, 1.0]
],
  "dcmmeta_reorient_transform": [
    [0.0, -1.0, 0.0, 103.0],
    [1.0, 0.0, 0.0, 0.0],
    [0.0, 0.0, 1.0, 0.0],
    [0.0, 0.0, 0.0, 1.0]
],
  "dcmmeta_shape": [104, 104, 60, 457],
  "dcmmeta_slice_dim": 2,
  "dcmmeta_version": 0.6,
  "global": {
    "const": {
      "AcquisitionMatrix": [104, 0, 0, 104],
      "AngioFlag": "N",
      "BitsAllocated": 16,
      "BitsStored": 16,
      "BodyPartExamined": "BRAIN",
      "Columns": 832,
      "EchoNumbers": 1,
      "EchoTime": 37.0,
      "EchoTrainLength": 104,
      "FlipAngle": 52.0,
      "HighBit": 15,
      "ImageOrientationPatient": [0.99971115813354, -0.0196277474161, 0.0138690963895, 0.02338497250444, 0.9275641218587, -0.3729315525689],
      "ImagePositionPatient": [-850.49667148002, -788.55932879504, 267.96151162172],
      "ImageType": [
        "ORIGINAL",
        "PRIMARY",
        "P",
        "MB",
        "ND",
        "MOSAIC"
],
      "ImagedNucleus": "1H",
      "ImagingFrequency": 123.258794,
      "InPlanePhaseEncodingDirection": "COL",
      "LargestImagePixelValue": 4095,
      "MRAcquisitionType": "2D",
      "MagneticFieldStrength": 3.0,
      "Manufacturer": "SIEMENS",
      "ManufacturerModelName": "Prisma_fit",
      "Modality": "MR",
      "NumberOfAverages": 1.0,
      "NumberOfPhaseEncodingSteps": 104,
      "PercentPhaseFieldOfView": 100.0,
      "PercentSampling": 100.0,
      "PerformedProcedureStepStartTime": "161345.182000",
      "PhotometricInterpretation": "MONOCHROME2",
      "PixelBandwidth": 2290.0,
      "PixelRepresentation": 0,
      "PixelSpacing": [2.0, 2.0],
      "ProtocolName": "func_task-mario_run-05",
      "RepetitionTime": 1490.0,
      "RescaleIntercept": -4096.0,
      "RescaleSlope": 2.0,
      "RescaleType": "US",
      "Rows": 832,
      "SAR": 0.09050973428704,
      "SamplesPerPixel": 1,
      "ScanOptions": "FS",
      "ScanningSequence": "EP",
      "SequenceName": "epfid2d1_104",
      "SequenceVariant": [
        "SK",
        "SS"
],
      "SeriesDescription": "func_task-mario_run-05",
      "SeriesNumber": 23,
      "SeriesTime": "172206.806000",
      "SliceLocation": -40.931056516521,
      "SliceThickness": 2.0,
      "SmallestImagePixelValue": 0,
      "SoftwareVersions": "syngo MR E11",
      "SpacingBetweenSlices": 2.0000000460136,
      "SpecificCharacterSet": "ISO_IR 100",
      "StudyID": "1",
      "StudyTime": "161345.114000",
      "TransmitCoilName": "Body",
      "VariableFlipAngleFlag": "N",
      "WindowCenterWidthExplanation": "Algo1",
      "dBdt": 0.0},
    "slices": {}
  },
  "time": {
    "samples": {
      "AcquisitionNumber": [1, 2, 3, 4, 5, 6, 7, 8, 9, 10, 11, 12, 13, 14, 15, 16, 17, 18, 19, 20, 21, 22, 23, 24, 25, 26, 27, 28, 29, 30, 31, 32, 33, 34, 35, 36, 37, 38, 39, 40, 41, 42, 43, 44, 45, 46, 47, 48, 49, 50, 51, 52, 53, 54, 55, 56, 57, 58, 59, 60, 61, 62, 63, 64, 65, 66, 67, 68, 69, 70, 71, 72, 73, 74, 75, 76, 77, 78, 79, 80, 81, 82, 83, 84, 85, 86, 87, 88, 89, 90, 91, 92, 93, 94, 95, 96, 97, 98, 99, 100, 101, 102, 103, 104, 105, 106, 107, 108, 109, 110, 111, 112, 113, 114, 115, 116, 117, 118, 119, 120, 121, 122, 123, 124, 125, 126, 127, 128, 129, 130, 131, 132, 133, 134, 135, 136, 137, 138, 139, 140, 141, 142, 143, 144, 145, 146, 147, 148, 149, 150, 151, 152, 153, 154, 155, 156, 157, 158, 159, 160, 161, 162, 163, 164, 165, 166, 167, 168, 169, 170, 171, 172, 173, 174, 175, 176, 177, 178, 179, 180, 181, 182, 183, 184, 185, 186, 187, 188, 189, 190, 191, 192, 193, 194, 195, 196, 197, 198, 199, 200, 201, 202, 203, 204, 205, 206, 207, 208, 209, 210, 211, 212, 213, 214, 215, 216, 217, 218, 219, 220, 221, 222, 223, 224, 225, 226, 227, 228, 229, 230, 231, 232, 233, 234, 235, 236, 237, 238, 239, 240, 241, 242, 243, 244, 245, 246, 247, 248, 249, 250, 251, 252, 253, 254, 255, 256, 257, 258, 259, 260, 261, 262, 263, 264, 265, 266, 267, 268, 269, 270, 271, 272, 273, 274, 275, 276, 277, 278, 279, 280, 281, 282, 283, 284, 285, 286, 287, 288, 289, 290, 291, 292, 293, 294, 295, 296, 297, 298, 299, 300, 301, 302, 303, 304, 305, 306, 307, 308, 309, 310, 311, 312, 313, 314, 315, 316, 317, 318, 319, 320, 321, 322, 323, 324, 325, 326, 327, 328, 329, 330, 331, 332, 333, 334, 335, 336, 337, 338, 339, 340, 341, 342, 343, 344, 345, 346, 347, 348, 349, 350, 351, 352, 353, 354, 355, 356, 357, 358, 359, 360, 361, 362, 363, 364, 365, 366, 367, 368, 369, 370, 371, 372, 373, 374, 375, 376, 377, 378, 379, 380, 381, 382, 383, 384, 385, 386, 387, 388, 389, 390, 391, 392, 393, 394, 395, 396, 397, 398, 399, 400, 401, 402, 403, 404, 405, 406, 407, 408, 409, 410, 411, 412, 413, 414, 415, 416, 417, 418, 419, 420, 421, 422, 423, 424, 425, 426, 427, 428, 429, 430, 431, 432, 433, 434, 435, 436, 437, 438, 439, 440, 441, 442, 443, 444, 445, 446, 447, 448, 449, 450, 451, 452, 453, 454, 455, 456, 457],
      "AcquisitionTime": ["172043.275000", "172044.765000", "172046.255000", "172047.745000", "172049.235000", "172050.725000", "172052.215000", "172053.705000", "172055.195000", "172056.685000", "172058.175000", "172059.665000", "172101.155000", "172102.645000", "172104.135000", "172105.625000", "172107.115000", "172108.605000", "172110.095000", "172111.585000", "172113.075000", "172114.565000", "172116.055000", "172117.545000", "172119.035000", "172120.525000", "172122.015000", "172123.505000", "172124.995000", "172126.485000", "172127.975000", "172129.465000", "172130.955000", "172132.445000", "172133.935000", "172135.425000", "172136.915000", "172138.405000", "172139.895000", "172141.385000", "172142.875000", "172144.365000", "172145.855000", "172147.345000", "172148.835000", "172150.325000", "172151.815000", "172153.305000", "172154.795000", "172156.285000", "172157.775000", "172159.265000", "172200.755000", "172202.245000", "172203.735000", "172205.225000", "172206.715000", "172208.205000", "172209.695000", "172211.185000", "172212.675000", "172214.165000", "172215.655000", "172217.145000", "172218.635000", "172220.125000", "172221.615000", "172223.105000", "172224.595000", "172226.085000", "172227.575000", "172229.065000", "172230.555000", "172232.045000", "172233.535000", "172235.025000", "172236.515000", "172238.005000", "172239.495000", "172240.985000", "172242.475000", "172243.965000", "172245.455000", "172246.945000", "172248.435000", "172249.925000", "172251.415000", "172252.905000", "172254.395000", "172255.885000", "172257.375000", "172258.865000", "172300.355000", "172301.845000", "172303.335000", "172304.825000", "172306.315000", "172307.805000", "172309.295000", "172310.785000", "172312.275000", "172313.765000", "172315.255000", "172316.745000", "172318.235000", "172319.725000", "172321.215000", "172322.705000", "172324.195000", "172325.685000", "172327.175000", "172328.665000", "172330.155000", "172331.645000", "172333.135000", "172334.625000", "172336.115000", "172337.605000", "172339.095000", "172340.585000", "172342.075000", "172343.565000", "172345.055000", "172346.545000", "172348.035000", "172349.525000", "172351.015000", "172352.505000", "172353.995000", "172355.485000", "172356.975000", "172358.465000", "172359.955000", "172401.445000", "172402.935000", "172404.425000", "172405.915000", "172407.405000", "172408.895000", "172410.385000", "172411.875000", "172413.365000", "172414.855000", "172416.345000", "172417.835000", "172419.325000", "172420.815000", "172422.305000", "172423.795000", "172425.285000", "172426.775000", "172428.265000", "172429.755000", "172431.245000", "172432.735000", "172434.225000", "172435.715000", "172437.205000", "172438.695000", "172440.185000", "172441.675000", "172443.165000", "172444.655000", "172446.145000", "172447.635000", "172449.125000", "172450.615000", "172452.105000", "172453.595000", "172455.085000", "172456.575000", "172458.065000", "172459.555000", "172501.045000", "172502.535000", "172504.025000", "172505.515000", "172507.005000", "172508.495000", "172509.985000", "172511.475000", "172512.965000", "172514.455000", "172515.945000", "172517.435000", "172518.925000", "172520.415000", "172521.905000", "172523.395000", "172524.885000", "172526.375000", "172527.865000", "172529.355000", "172530.845000", "172532.335000", "172533.825000", "172535.315000", "172536.805000", "172538.295000", "172539.785000", "172541.275000", "172542.765000", "172544.255000", "172545.745000", "172547.235000", "172548.725000", "172550.215000", "172551.705000", "172553.195000", "172554.685000", "172556.175000", "172557.665000", "172559.155000", "172600.645000", "172602.135000", "172603.625000", "172605.115000", "172606.605000", "172608.095000", "172609.585000", "172611.075000", "172612.565000", "172614.055000", "172615.545000", "172617.035000", "172618.525000", "172620.015000", "172621.505000", "172622.995000", "172624.485000", "172625.975000", "172627.465000", "172628.955000", "172630.445000", "172631.935000", "172633.425000", "172634.915000", "172636.405000", "172637.895000", "172639.385000", "172640.875000", "172642.365000", "172643.855000", "172645.345000", "172646.835000", "172648.325000", "172649.815000", "172651.305000", "172652.795000", "172654.285000", "172655.775000", "172657.265000", "172658.755000", "172700.245000", "172701.735000", "172703.225000", "172704.715000", "172706.205000", "172707.695000", "172709.185000", "172710.675000", "172712.165000", "172713.655000", "172715.145000", "172716.635000", "172718.125000", "172719.615000", "172721.105000", "172722.595000", "172724.085000", "172725.575000", "172727.065000", "172728.555000", "172730.045000", "172731.535000", "172733.025000", "172734.515000", "172736.005000", "172737.495000", "172738.985000", "172740.475000", "172741.965000", "172743.455000", "172744.945000", "172746.435000", "172747.925000", "172749.415000", "172750.905000", "172752.395000", "172753.885000", "172755.375000", "172756.865000", "172758.355000", "172759.845000", "172801.335000", "172802.825000", "172804.315000", "172805.805000", "172807.295000", "172808.785000", "172810.275000", "172811.765000", "172813.255000", "172814.745000", "172816.235000", "172817.725000", "172819.215000", "172820.705000", "172822.195000", "172823.685000", "172825.175000", "172826.665000", "172828.155000", "172829.645000", "172831.135000", "172832.625000", "172834.115000", "172835.605000", "172837.095000", "172838.585000", "172840.075000", "172841.565000", "172843.055000", "172844.545000", "172846.035000", "172847.525000", "172849.015000", "172850.505000", "172851.995000", "172853.485000", "172854.975000", "172856.465000", "172857.955000", "172859.445000", "172900.935000", "172902.425000", "172903.915000", "172905.405000", "172906.895000", "172908.385000", "172909.875000", "172911.365000", "172912.855000", "172914.345000", "172915.835000", "172917.325000", "172918.815000", "172920.305000", "172921.795000", "172923.285000", "172924.775000", "172926.265000", "172927.755000", "172929.245000", "172930.735000", "172932.225000", "172933.715000", "172935.205000", "172936.695000", "172938.185000", "172939.675000", "172941.165000", "172942.655000", "172944.145000", "172945.635000", "172947.125000", "172948.615000", "172950.105000", "172951.595000", "172953.085000", "172954.575000", "172956.065000", "172957.555000", "172959.045000", "173000.535000", "173002.025000", "173003.515000", "173005.005000", "173006.495000", "173007.985000", "173009.475000", "173010.965000", "173012.455000", "173013.945000", "173015.435000", "173016.925000", "173018.415000", "173019.905000", "173021.395000", "173022.885000", "173024.375000", "173025.865000", "173027.355000", "173028.845000", "173030.335000", "173031.825000", "173033.315000", "173034.805000", "173036.295000", "173037.785000", "173039.275000", "173040.765000", "173042.255000", "173043.745000", "173045.235000", "173046.725000", "173048.215000", "173049.705000", "173051.195000", "173052.685000", "173054.175000", "173055.665000", "173057.155000", "173058.645000", "173100.135000", "173101.625000", "173103.115000", "173104.605000", "173106.095000", "173107.585000", "173109.075000", "173110.565000", "173112.055000", "173113.545000", "173115.035000", "173116.525000", "173118.015000", "173119.505000", "173120.995000", "173122.485000", "173123.975000", "173125.465000", "173126.955000", "173128.445000", "173129.935000", "173131.425000", "173132.915000", "173134.405000", "173135.895000", "173137.385000", "173138.875000", "173140.365000", "173141.855000", "173143.345000", "173144.835000", "173146.325000", "173147.815000", "173149.305000", "173150.795000", "173152.285000", "173153.775000", "173155.265000", "173156.755000", "173158.245000", "173159.735000", "173201.225000", "173202.715000"],
      "ContentTime": ["172206.808000", "172206.811000", "172206.813000", "172206.816000", "172206.819000", "172206.821000", "172206.824000", "172206.826000", "172206.829000", "172206.831000", "172206.834000", "172206.836000", "172206.839000", "172206.841000", "172206.844000", "172206.846000", "172206.849000", "172206.851000", "172206.854000", "172206.856000", "172206.859000", "172206.861000", "172206.864000", "172206.866000", "172206.869000", "172206.871000", "172206.874000", "172206.876000", "172206.879000", "172206.881000", "172206.884000", "172206.891000", "172206.893000", "172206.896000", "172226.708000", "172226.711000", "172226.713000", "172226.716000", "172226.718000", "172226.721000", "172226.723000", "172226.726000", "172226.728000", "172226.731000", "172226.734000", "172226.740000", "172226.743000", "172226.745000", "172226.748000", "172226.750000", "172226.753000", "172226.765000", "172226.767000", "172226.769000", "172246.717000", "172246.720000", "172246.722000", "172246.725000", "172246.727000", "172246.730000", "172246.732000", "172246.735000", "172246.737000", "172246.740000", "172246.742000", "172246.745000", "172246.747000", "172246.750000", "172246.752000", "172246.755000", "172246.757000", "172246.760000", "172246.762000", "172246.765000", "172246.767000", "172306.699000", "172306.702000", "172306.704000", "172306.707000", "172306.709000", "172306.712000", "172306.714000", "172306.717000", "172306.719000", "172306.722000", "172306.724000", "172306.727000", "172306.729000", "172306.732000", "172306.734000", "172306.737000", "172306.739000", "172306.742000", "172306.744000", "172306.747000", "172346.740000", "172346.743000", "172346.746000", "172346.748000", "172346.751000", "172346.753000", "172346.756000", "172346.758000", "172346.761000", "172346.763000", "172346.766000", "172346.768000", "172346.771000", "172346.773000", "172346.776000", "172346.779000", "172346.781000", "172346.784000", "172346.786000", "172346.789000", "172346.791000", "172346.794000", "172346.796000", "172346.799000", "172346.801000", "172346.804000", "172346.806000", "172426.726000", "172426.729000", "172426.731000", "172426.734000", "172426.737000", "172426.739000", "172426.742000", "172426.744000", "172426.747000", "172426.749000", "172426.752000", "172426.754000", "172426.757000", "172426.759000", "172426.762000", "172426.764000", "172426.767000", "172426.769000", "172426.772000", "172426.774000", "172426.777000", "172426.779000", "172426.782000", "172426.784000", "172426.787000", "172426.789000", "172426.792000", "172506.745000", "172506.748000", "172506.750000", "172506.753000", "172506.755000", "172506.758000", "172506.761000", "172506.763000", "172506.766000", "172506.768000", "172506.770000", "172506.773000", "172506.775000", "172506.778000", "172506.780000", "172506.783000", "172506.785000", "172506.788000", "172506.791000", "172506.793000", "172506.796000", "172506.798000", "172506.801000", "172506.803000", "172506.806000", "172506.808000", "172506.811000", "172546.730000", "172546.732000", "172546.735000", "172546.737000", "172546.740000", "172546.743000", "172546.745000", "172546.748000", "172546.750000", "172546.753000", "172546.755000", "172546.758000", "172546.760000", "172546.763000", "172546.766000", "172546.768000", "172546.771000", "172546.773000", "172546.776000", "172546.778000", "172546.781000", "172546.783000", "172546.786000", "172546.789000", "172546.791000", "172546.794000", "172546.796000", "172626.727000", "172626.729000", "172626.732000", "172626.734000", "172626.737000", "172626.739000", "172626.742000", "172626.744000", "172626.761000", "172626.763000", "172626.766000", "172626.768000", "172626.771000", "172626.773000", "172626.776000", "172626.779000", "172626.781000", "172626.784000", "172626.786000", "172626.789000", "172626.791000", "172626.794000", "172626.796000", "172626.799000", "172626.801000", "172626.804000", "172626.806000", "172706.746000", "172706.748000", "172706.751000", "172706.754000", "172706.756000", "172706.759000", "172706.761000", "172706.764000", "172706.766000", "172706.769000", "172706.771000", "172706.774000", "172706.776000", "172706.779000", "172706.781000", "172706.784000", "172706.786000", "172706.789000", "172706.792000", "172706.794000", "172706.797000", "172706.799000", "172706.801000", "172706.804000", "172706.807000", "172706.809000", "172746.736000", "172746.739000", "172746.741000", "172746.745000", "172746.748000", "172746.751000", "172746.753000", "172746.756000", "172746.758000", "172746.761000", "172746.763000", "172746.766000", "172746.768000", "172746.771000", "172746.773000", "172746.776000", "172746.778000", "172746.781000", "172746.783000", "172746.786000", "172746.789000", "172746.791000", "172746.794000", "172746.796000", "172746.799000", "172746.801000", "172746.804000", "172826.739000", "172826.741000", "172826.744000", "172826.746000", "172826.749000", "172826.751000", "172826.754000", "172826.756000", "172826.759000", "172826.761000", "172826.764000", "172826.766000", "172826.769000", "172826.771000", "172826.774000", "172826.777000", "172826.779000", "172826.782000", "172826.784000", "172826.787000", "172826.789000", "172826.792000", "172826.794000", "172826.797000", "172826.799000", "172826.802000", "172826.804000", "172906.742000", "172906.745000", "172906.747000", "172906.750000", "172906.752000", "172906.755000", "172906.757000", "172906.760000", "172906.762000", "172906.765000", "172906.768000", "172906.770000", "172906.773000", "172906.776000", "172906.778000", "172906.781000", "172906.783000", "172906.786000", "172906.788000", "172906.791000", "172906.793000", "172906.796000", "172906.798000", "172906.801000", "172906.803000", "172906.806000", "172906.808000", "172946.744000", "172946.747000", "172946.749000", "172946.752000", "172946.754000", "172946.757000", "172946.759000", "172946.762000", "172946.764000", "172946.767000", "172946.769000", "172946.772000", "172946.774000", "172946.777000", "172946.780000", "172946.782000", "172946.785000", "172946.787000", "172946.790000", "172946.792000", "172946.795000", "172946.797000", "172946.800000", "172946.802000", "172946.805000", "172946.807000", "172946.810000", "173026.758000", "173026.760000", "173026.763000", "173026.766000", "173026.768000", "173026.771000", "173026.773000", "173026.776000", "173026.779000", "173026.781000", "173026.784000", "173026.786000", "173026.789000", "173026.791000", "173026.794000", "173026.796000", "173026.799000", "173026.802000", "173026.804000", "173026.807000", "173026.809000", "173026.812000", "173026.814000", "173026.817000", "173026.819000", "173026.822000", "173026.824000", "173106.732000", "173106.735000", "173106.738000", "173106.740000", "173106.743000", "173106.745000", "173106.748000", "173106.750000", "173106.753000", "173106.756000", "173106.758000", "173106.761000", "173106.763000", "173106.766000", "173106.768000", "173106.771000", "173106.773000", "173106.776000", "173106.778000", "173106.781000", "173106.783000", "173106.786000", "173106.788000", "173106.791000", "173106.794000", "173106.796000", "173106.799000", "173146.729000", "173146.732000", "173146.735000", "173146.737000", "173146.740000", "173146.742000", "173146.745000", "173146.748000", "173146.750000", "173146.753000", "173146.755000", "173146.758000", "173146.761000", "173146.763000", "173146.766000", "173146.769000", "173146.772000", "173146.775000", "173146.778000", "173146.781000", "173146.784000", "173146.787000", "173146.790000", "173146.793000", "173146.795000", "173146.798000", "173206.169000", "173206.172000", "173206.174000", "173206.177000", "173206.179000", "173206.182000", "173206.185000", "173206.187000", "173206.190000", "173206.192000", "173206.195000", "173206.197000", "173206.200000"],
