{
  "AcquisitionMatrixPE": 104,
  "AcquisitionNumber": 1,
  "AcquisitionTime": "17:07:10.142500",
  "BandwidthPerPixelPhaseEncode": 17.17,
  "BaseResolution": 104,
  "BodyPartExamined": "BRAIN",
  "CoilCombinationMethod": "Sum of Squares",
  "ConsistencyInfo": "N4_VE11C_LATEST_20160120",
  "ConversionSoftware": "dcm2niix",
  "ConversionSoftwareVersion": "v1.0.20211006",
  "DerivedVendorReportedEchoSpacing": 0.000560011,
  "DeviceSerialNumber": "167006",
  "DwellTime": 2.1e-06,
  "EchoTime": 0.037,
  "EchoTrainLength": 104,
  "EffectiveEchoSpacing": 0.000560011,
  "FlipAngle": 52,
  "HeudiconvVersion": "0.11.3.post9+gc939bf8",
  "ImageComments": "Unaliased MB4/PE3/LB",
  "ImageOrientationPatientDICOM": [0.999711, -0.0196277, 0.0138691, 0.023385, 0.927564, -0.372932],
  "ImageOrientationText": "Tra>Cor(-21.9)>Sag(0.3)",
  "ImageType": [
    "ORIGINAL",
    "PRIMARY",
    "M",
    "MB",
    "ND",
    "MOSAIC"
],
  "ImagingFrequency": 123.259,
  "InPlanePhaseEncodingDirectionDICOM": "COL",
  "InstitutionAddress": "Chemin Queen-Mary 4565,Montreal,District,CA,H3W 1W5",
  "InstitutionName": "IUGM",
  "InstitutionalDepartmentName": "Department",
  "MRAcquisitionType": "2D",
  "MagneticFieldStrength": 3,
  "Manufacturer": "Siemens",
  "ManufacturersModelName": "Prisma_fit",
  "MatrixCoilMode": "SENSE",
  "Modality": "MR",
  "MultibandAccelerationFactor": 4,
  "PartialFourier": 1,
  "PatientPosition": "HFS",
  "PercentPhaseFOV": 100,
  "PercentSampling": 100,
  "PhaseEncodingDirection": "j",
  "PhaseEncodingSteps": 104,
  "PhaseResolution": 1,
  "PixelBandwidth": 2290,
  "ProcedureStepDescription": "games^mario",
  "ProtocolName": "func_task-mario_run-04",
  "PulseSequenceDetails": "%CustomerSeq%\\cmrr_mbep2d_bold",
  "ReceiveCoilActiveElements": "HC1-7;NC1,2",
  "ReceiveCoilName": "HeadNeck_64",
  "ReconMatrixPE": 104,
  "RepetitionTime": 1.49,
  "SAR": 0.0905097,
  "ScanOptions": "FS",
  "ScanningSequence": "EP",
  "SequenceName": "epfid2d1_104",
  "SequenceVariant": "SK\\SS",
  "SeriesDescription": "func_task-mario_run-04",
  "SeriesNumber": 19,
  "ShimSetting": [612, -7245, -8834, 362, 11, -336, 27, 12],
  "SliceThickness": 2,
  "SliceTiming": [0, 0.785, 0.1, 0.8825, 0.1975, 0.98, 0.295, 1.08, 0.3925, 1.1775, 0.49, 1.275, 0.59, 1.3725, 0.6875, 0, 0.785, 0.1, 0.8825, 0.1975, 0.98, 0.295, 1.08, 0.3925, 1.1775, 0.49, 1.275, 0.59, 1.3725, 0.6875, 0, 0.785, 0.1, 0.8825, 0.1975, 0.98, 0.295, 1.08, 0.3925, 1.1775, 0.49, 1.275, 0.59, 1.3725, 0.6875, 0, 0.785, 0.1, 0.8825, 0.1975, 0.98, 0.295, 1.08, 0.3925, 1.1775, 0.49, 1.275, 0.59, 1.3725, 0.6875],
  "SoftwareVersions": "syngo MR E11",
  "SpacingBetweenSlices": 2,
  "StationName": "MRC35049",
  "TaskName": "mario",
  "TotalReadoutTime": 0.0576811,
  "TxRefAmp": 308.036,
  "WipMemBlock": "c8513400-c1ca-4dc7-8aaa-e519d9aced3e||Sequence: R017 ve11c/master r/75a17815+; Jun 28 2022 16:32:11 by eja",
  "dcmmeta_affine": [
    [-1.999422311782837, 0.046769946813583374, 0.011089339852333069, 100.86538696289062],
    [0.039255496114492416, 1.855128288269043, -0.7462963461875916, -63.496559143066406],
    [0.027738193050026894, 0.7458630800247192, 1.8555104732513428, -70.25985717773438],
    [0.0, 0.0, 0.0, 1.0]
],
  "dcmmeta_reorient_transform": [
    [0.0, -1.0, 0.0, 103.0],
    [1.0, 0.0, 0.0, 0.0],
    [0.0, 0.0, 1.0, 0.0],
    [0.0, 0.0, 0.0, 1.0]
],
  "dcmmeta_shape": [104, 104, 60, 438],
  "dcmmeta_slice_dim": 2,
  "dcmmeta_version": 0.6,
  "global": {
    "const": {
      "AcquisitionMatrix": [104, 0, 0, 104],
      "AngioFlag": "N",
      "BitsAllocated": 16,
      "BitsStored": 16,
      "BodyPartExamined": "BRAIN",
      "Columns": 832,
      "EchoNumbers": 1,
      "EchoTime": 37.0,
      "EchoTrainLength": 104,
      "FlipAngle": 52.0,
      "HighBit": 15,
      "ImageOrientationPatient": [0.99971115813354, -0.0196277474161, 0.0138690963895, 0.02338497250444, 0.9275641218587, -0.3729315525689],
      "ImagePositionPatient": [-850.49667148002, -788.55932879504, 267.96151162172],
      "ImageType": [
        "ORIGINAL",
        "PRIMARY",
        "M",
        "MB",
        "ND",
        "MOSAIC"
],
      "ImagedNucleus": "1H",
      "ImagingFrequency": 123.258792,
      "InPlanePhaseEncodingDirection": "COL",
      "MRAcquisitionType": "2D",
      "MagneticFieldStrength": 3.0,
      "Manufacturer": "SIEMENS",
      "ManufacturerModelName": "Prisma_fit",
      "Modality": "MR",
      "NumberOfAverages": 1.0,
      "NumberOfPhaseEncodingSteps": 104,
      "PercentPhaseFieldOfView": 100.0,
      "PercentSampling": 100.0,
      "PerformedProcedureStepStartTime": "161345.182000",
      "PhotometricInterpretation": "MONOCHROME2",
      "PixelBandwidth": 2290.0,
      "PixelRepresentation": 0,
      "PixelSpacing": [2.0, 2.0],
      "ProtocolName": "func_task-mario_run-04",
      "RepetitionTime": 1490.0,
      "Rows": 832,
      "SAR": 0.09050973428704,
      "SamplesPerPixel": 1,
      "ScanOptions": "FS",
      "ScanningSequence": "EP",
      "SequenceName": "epfid2d1_104",
      "SequenceVariant": [
        "SK",
        "SS"
],
      "SeriesDescription": "func_task-mario_run-04",
      "SeriesNumber": 19,
      "SeriesTime": "170814.374000",
      "SliceLocation": -40.931056516521,
      "SliceThickness": 2.0,
      "SmallestImagePixelValue": 0,
      "SoftwareVersions": "syngo MR E11",
      "SpacingBetweenSlices": 2.0000000460136,
      "SpecificCharacterSet": "ISO_IR 100",
      "StudyID": "1",
      "StudyTime": "161345.114000",
      "TransmitCoilName": "Body",
      "VariableFlipAngleFlag": "N",
      "WindowCenterWidthExplanation": "Algo1",
      "dBdt": 0.0},
    "slices": {}
  },
  "time": {
    "samples": {
      "AcquisitionNumber": [1, 2, 3, 4, 5, 6, 7, 8, 9, 10, 11, 12, 13, 14, 15, 16, 17, 18, 19, 20, 21, 22, 23, 24, 25, 26, 27, 28, 29, 30, 31, 32, 33, 34, 35, 36, 37, 38, 39, 40, 41, 42, 43, 44, 45, 46, 47, 48, 49, 50, 51, 52, 53, 54, 55, 56, 57, 58, 59, 60, 61, 62, 63, 64, 65, 66, 67, 68, 69, 70, 71, 72, 73, 74, 75, 76, 77, 78, 79, 80, 81, 82, 83, 84, 85, 86, 87, 88, 89, 90, 91, 92, 93, 94, 95, 96, 97, 98, 99, 100, 101, 102, 103, 104, 105, 106, 107, 108, 109, 110, 111, 112, 113, 114, 115, 116, 117, 118, 119, 120, 121, 122, 123, 124, 125, 126, 127, 128, 129, 130, 131, 132, 133, 134, 135, 136, 137, 138, 139, 140, 141, 142, 143, 144, 145, 146, 147, 148, 149, 150, 151, 152, 153, 154, 155, 156, 157, 158, 159, 160, 161, 162, 163, 164, 165, 166, 167, 168, 169, 170, 171, 172, 173, 174, 175, 176, 177, 178, 179, 180, 181, 182, 183, 184, 185, 186, 187, 188, 189, 190, 191, 192, 193, 194, 195, 196, 197, 198, 199, 200, 201, 202, 203, 204, 205, 206, 207, 208, 209, 210, 211, 212, 213, 214, 215, 216, 217, 218, 219, 220, 221, 222, 223, 224, 225, 226, 227, 228, 229, 230, 231, 232, 233, 234, 235, 236, 237, 238, 239, 240, 241, 242, 243, 244, 245, 246, 247, 248, 249, 250, 251, 252, 253, 254, 255, 256, 257, 258, 259, 260, 261, 262, 263, 264, 265, 266, 267, 268, 269, 270, 271, 272, 273, 274, 275, 276, 277, 278, 279, 280, 281, 282, 283, 284, 285, 286, 287, 288, 289, 290, 291, 292, 293, 294, 295, 296, 297, 298, 299, 300, 301, 302, 303, 304, 305, 306, 307, 308, 309, 310, 311, 312, 313, 314, 315, 316, 317, 318, 319, 320, 321, 322, 323, 324, 325, 326, 327, 328, 329, 330, 331, 332, 333, 334, 335, 336, 337, 338, 339, 340, 341, 342, 343, 344, 345, 346, 347, 348, 349, 350, 351, 352, 353, 354, 355, 356, 357, 358, 359, 360, 361, 362, 363, 364, 365, 366, 367, 368, 369, 370, 371, 372, 373, 374, 375, 376, 377, 378, 379, 380, 381, 382, 383, 384, 385, 386, 387, 388, 389, 390, 391, 392, 393, 394, 395, 396, 397, 398, 399, 400, 401, 402, 403, 404, 405, 406, 407, 408, 409, 410, 411, 412, 413, 414, 415, 416, 417, 418, 419, 420, 421, 422, 423, 424, 425, 426, 427, 428, 429, 430, 431, 432, 433, 434, 435, 436, 437, 438],
      "AcquisitionTime": ["170710.142500", "170711.632500", "170713.122500", "170714.612500", "170716.102500", "170717.592500", "170719.082500", "170720.572500", "170722.062500", "170723.552500", "170725.042500", "170726.532500", "170728.022500", "170729.512500", "170731.002500", "170732.492500", "170733.982500", "170735.472500", "170736.962500", "170738.452500", "170739.942500", "170741.432500", "170742.922500", "170744.412500", "170745.902500", "170747.392500", "170748.882500", "170750.372500", "170751.862500", "170753.352500", "170754.842500", "170756.332500", "170757.822500", "170759.312500", "170800.802500", "170802.292500", "170803.782500", "170805.272500", "170806.762500", "170808.252500", "170809.742500", "170811.232500", "170812.722500", "170814.212500", "170815.702500", "170817.192500", "170818.682500", "170820.172500", "170821.662500", "170823.152500", "170824.642500", "170826.132500", "170827.622500", "170829.112500", "170830.602500", "170832.092500", "170833.582500", "170835.072500", "170836.562500", "170838.052500", "170839.542500", "170841.032500", "170842.522500", "170844.012500", "170845.502500", "170846.992500", "170848.482500", "170849.972500", "170851.462500", "170852.952500", "170854.442500", "170855.932500", "170857.422500", "170858.912500", "170900.402500", "170901.892500", "170903.382500", "170904.872500", "170906.362500", "170907.852500", "170909.342500", "170910.832500", "170912.322500", "170913.812500", "170915.302500", "170916.792500", "170918.282500", "170919.772500", "170921.262500", "170922.752500", "170924.242500", "170925.732500", "170927.222500", "170928.712500", "170930.202500", "170931.692500", "170933.182500", "170934.672500", "170936.162500", "170937.652500", "170939.142500", "170940.632500", "170942.122500", "170943.612500", "170945.102500", "170946.592500", "170948.082500", "170949.572500", "170951.062500", "170952.552500", "170954.042500", "170955.532500", "170957.022500", "170958.512500", "171000.002500", "171001.492500", "171002.982500", "171004.472500", "171005.962500", "171007.452500", "171008.942500", "171010.432500", "171011.922500", "171013.412500", "171014.902500", "171016.392500", "171017.882500", "171019.372500", "171020.862500", "171022.352500", "171023.842500", "171025.332500", "171026.822500", "171028.312500", "171029.802500", "171031.292500", "171032.782500", "171034.272500", "171035.762500", "171037.252500", "171038.742500", "171040.232500", "171041.722500", "171043.212500", "171044.702500", "171046.192500", "171047.682500", "171049.172500", "171050.662500", "171052.152500", "171053.642500", "171055.132500", "171056.622500", "171058.112500", "171059.602500", "171101.092500", "171102.582500", "171104.072500", "171105.562500", "171107.052500", "171108.542500", "171110.032500", "171111.522500", "171113.012500", "171114.502500", "171115.992500", "171117.482500", "171118.972500", "171120.462500", "171121.952500", "171123.442500", "171124.932500", "171126.422500", "171127.912500", "171129.402500", "171130.892500", "171132.382500", "171133.872500", "171135.362500", "171136.852500", "171138.342500", "171139.832500", "171141.322500", "171142.812500", "171144.302500", "171145.792500", "171147.282500", "171148.772500", "171150.262500", "171151.752500", "171153.242500", "171154.732500", "171156.222500", "171157.712500", "171159.202500", "171200.692500", "171202.182500", "171203.672500", "171205.162500", "171206.652500", "171208.142500", "171209.632500", "171211.122500", "171212.612500", "171214.102500", "171215.592500", "171217.082500", "171218.572500", "171220.062500", "171221.552500", "171223.042500", "171224.532500", "171226.022500", "171227.512500", "171229.002500", "171230.492500", "171231.982500", "171233.472500", "171234.962500", "171236.452500", "171237.942500", "171239.432500", "171240.922500", "171242.412500", "171243.902500", "171245.392500", "171246.882500", "171248.372500", "171249.862500", "171251.352500", "171252.842500", "171254.332500", "171255.822500", "171257.312500", "171258.802500", "171300.292500", "171301.782500", "171303.272500", "171304.762500", "171306.252500", "171307.742500", "171309.232500", "171310.722500", "171312.212500", "171313.702500", "171315.192500", "171316.682500", "171318.172500", "171319.662500", "171321.152500", "171322.642500", "171324.132500", "171325.622500", "171327.112500", "171328.602500", "171330.092500", "171331.582500", "171333.072500", "171334.562500", "171336.052500", "171337.542500", "171339.032500", "171340.522500", "171342.012500", "171343.502500", "171344.992500", "171346.482500", "171347.972500", "171349.462500", "171350.952500", "171352.442500", "171353.932500", "171355.422500", "171356.912500", "171358.402500", "171359.892500", "171401.382500", "171402.872500", "171404.362500", "171405.852500", "171407.342500", "171408.832500", "171410.322500", "171411.812500", "171413.302500", "171414.792500", "171416.282500", "171417.772500", "171419.262500", "171420.752500", "171422.242500", "171423.732500", "171425.222500", "171426.712500", "171428.202500", "171429.692500", "171431.182500", "171432.672500", "171434.162500", "171435.652500", "171437.142500", "171438.632500", "171440.122500", "171441.612500", "171443.102500", "171444.592500", "171446.082500", "171447.572500", "171449.062500", "171450.552500", "171452.042500", "171453.532500", "171455.022500", "171456.512500", "171458.002500", "171459.492500", "171500.982500", "171502.472500", "171503.962500", "171505.452500", "171506.942500", "171508.432500", "171509.922500", "171511.412500", "171512.902500", "171514.392500", "171515.882500", "171517.372500", "171518.862500", "171520.352500", "171521.842500", "171523.332500", "171524.822500", "171526.312500", "171527.802500", "171529.292500", "171530.782500", "171532.272500", "171533.762500", "171535.252500", "171536.742500", "171538.232500", "171539.722500", "171541.212500", "171542.702500", "171544.192500", "171545.682500", "171547.172500", "171548.662500", "171550.152500", "171551.642500", "171553.132500", "171554.622500", "171556.112500", "171557.602500", "171559.092500", "171600.582500", "171602.072500", "171603.562500", "171605.052500", "171606.542500", "171608.032500", "171609.522500", "171611.012500", "171612.502500", "171613.992500", "171615.482500", "171616.972500", "171618.462500", "171619.952500", "171621.442500", "171622.932500", "171624.422500", "171625.912500", "171627.402500", "171628.892500", "171630.382500", "171631.872500", "171633.362500", "171634.852500", "171636.342500", "171637.832500", "171639.322500", "171640.812500", "171642.302500", "171643.792500", "171645.282500", "171646.772500", "171648.262500", "171649.752500", "171651.242500", "171652.732500", "171654.222500", "171655.712500", "171657.202500", "171658.692500", "171700.182500", "171701.672500", "171703.162500", "171704.652500", "171706.142500", "171707.632500", "171709.122500", "171710.612500", "171712.102500", "171713.592500", "171715.082500", "171716.572500", "171718.062500", "171719.552500", "171721.042500", "171722.532500", "171724.022500", "171725.512500", "171727.002500", "171728.492500", "171729.982500", "171731.472500", "171732.962500", "171734.452500", "171735.942500", "171737.432500", "171738.922500", "171740.412500", "171741.902500", "171743.392500", "171744.882500", "171746.372500", "171747.862500", "171749.352500", "171750.842500", "171752.332500", "171753.822500", "171755.312500", "171756.802500", "171758.292500", "171759.782500", "171801.272500"],
      "ContentTime": ["170814.377000", "170814.381000", "170814.384000", "170814.387000", "170814.391000", "170814.394000", "170814.398000", "170814.401000", "170814.404000", "170814.408000", "170814.411000", "170814.414000", "170814.418000", "170814.421000", "170834.338000", "170834.342000", "170834.346000", "170834.349000", "170834.352000", "170834.356000", "170834.359000", "170834.362000", "170834.366000", "170834.369000", "170834.373000", "170834.376000", "170834.379000", "170834.383000", "170834.386000", "170834.389000", "170834.393000", "170834.396000", "170834.399000", "170834.402000", "170854.338000", "170854.342000", "170854.345000", "170854.355000", "170854.358000", "170854.372000", "170854.375000", "170854.379000", "170854.382000", "170854.386000", "170854.389000", "170854.392000", "170854.396000", "170854.399000", "170854.403000", "170854.406000", "170854.409000", "170854.413000", "170854.416000", "170854.420000", "170914.339000", "170914.343000", "170914.346000", "170914.349000", "170914.353000", "170914.356000", "170914.360000", "170914.363000", "170914.367000", "170914.370000", "170914.373000", "170914.376000", "170914.380000", "170914.383000", "170914.386000", "170914.390000", "170914.393000", "170914.396000", "170914.400000", "170914.403000", "170914.407000", "170934.339000", "170934.343000", "170934.346000", "170934.350000", "170934.353000", "170934.356000", "170934.360000", "170934.363000", "170934.367000", "170934.370000", "170934.373000", "170934.377000", "170934.380000", "170934.384000", "170934.387000", "170934.390000", "170934.394000", "170934.397000", "170934.400000", "170934.404000", "171014.339000", "171014.343000", "171014.346000", "171014.350000", "171014.353000", "171014.356000", "171014.360000", "171014.363000", "171014.366000", "171014.370000", "171014.373000", "171014.376000", "171014.380000", "171014.383000", "171014.387000", "171014.390000", "171014.393000", "171014.397000", "171014.400000", "171014.403000", "171014.407000", "171014.410000", "171014.413000", "171014.417000", "171014.420000", "171014.424000", "171014.427000", "171014.430000", "171054.338000", "171054.342000", "171054.346000", "171054.349000", "171054.352000", "171054.356000", "171054.359000", "171054.363000", "171054.366000", "171054.370000", "171054.374000", "171054.377000", "171054.381000", "171054.384000", "171054.387000", "171054.391000", "171054.394000", "171054.397000", "171054.401000", "171054.404000", "171054.407000", "171054.411000", "171054.414000", "171054.417000", "171054.421000", "171054.435000", "171134.339000", "171134.343000", "171134.346000", "171134.350000", "171134.353000", "171134.357000", "171134.360000", "171134.364000", "171134.367000", "171134.371000", "171134.374000", "171134.377000", "171134.381000", "171134.384000", "171134.388000", "171134.391000", "171134.394000", "171134.398000", "171134.401000", "171134.405000", "171134.408000", "171134.411000", "171134.414000", "171134.418000", "171134.421000", "171134.425000", "171134.428000", "171214.339000", "171214.343000", "171214.347000", "171214.350000", "171214.353000", "171214.357000", "171214.360000", "171214.364000", "171214.367000", "171214.370000", "171214.374000", "171214.377000", "171214.381000", "171214.384000", "171214.387000", "171214.391000", "171214.395000", "171214.398000", "171214.401000", "171214.405000", "171214.408000", "171214.412000", "171214.415000", "171214.418000", "171214.422000", "171214.425000", "171214.428000", "171254.339000", "171254.343000", "171254.346000", "171254.350000", "171254.353000", "171254.357000", "171254.360000", "171254.363000", "171254.367000", "171254.370000", "171254.374000", "171254.377000", "171254.380000", "171254.384000", "171254.387000", "171254.391000", "171254.394000", "171254.397000", "171254.401000", "171254.404000", "171254.407000", "171254.411000", "171254.414000", "171254.417000", "171254.421000", "171254.424000", "171254.427000", "171334.338000", "171334.342000", "171334.346000", "171334.349000", "171334.352000", "171334.356000", "171334.359000", "171334.362000", "171334.366000", "171334.369000", "171334.386000", "171334.390000", "171334.393000", "171334.396000", "171334.400000", "171334.403000", "171334.406000", "171334.410000", "171334.413000", "171334.416000", "171334.420000", "171334.423000", "171334.426000", "171334.430000", "171334.433000", "171334.436000", "171334.440000", "171414.339000", "171414.343000", "171414.347000", "171414.350000", "171414.353000", "171414.357000", "171414.360000", "171414.364000", "171414.367000", "171414.370000", "171414.374000", "171414.377000", "171414.381000", "171414.384000", "171414.387000", "171414.391000", "171414.394000", "171414.397000", "171414.401000", "171414.404000", "171414.407000", "171414.411000", "171414.414000", "171414.418000", "171414.421000", "171414.424000", "171414.428000", "171454.339000", "171454.343000", "171454.347000", "171454.350000", "171454.353000", "171454.357000", "171454.360000", "171454.363000", "171454.367000", "171454.370000", "171454.374000", "171454.377000", "171454.381000", "171454.384000", "171454.388000", "171454.391000", "171454.395000", "171454.398000", "171454.402000", "171454.405000", "171454.409000", "171454.412000", "171454.415000", "171454.419000", "171454.422000", "171454.425000", "171534.338000", "171534.342000", "171534.345000", "171534.349000", "171534.352000", "171534.356000", "171534.359000", "171534.362000", "171534.366000", "171534.369000", "171534.373000", "171534.376000", "171534.379000", "171534.383000", "171534.386000", "171534.390000", "171534.393000", "171534.396000", "171534.400000", "171534.403000", "171534.407000", "171534.410000", "171534.413000", "171534.417000", "171534.420000", "171534.438000", "171534.442000", "171614.339000", "171614.343000", "171614.347000", "171614.350000", "171614.353000", "171614.357000", "171614.360000", "171614.364000", "171614.367000", "171614.370000", "171614.374000", "171614.377000", "171614.380000", "171614.384000", "171614.387000", "171614.391000", "171614.394000", "171614.397000", "171614.401000", "171614.404000", "171614.407000", "171614.411000", "171614.414000", "171614.417000", "171614.421000", "171614.424000", "171614.428000", "171654.339000", "171654.343000", "171654.347000", "171654.350000", "171654.353000", "171654.357000", "171654.360000", "171654.363000", "171654.367000", "171654.370000", "171654.373000", "171654.377000", "171654.380000", "171654.384000", "171654.387000", "171654.390000", "171654.394000", "171654.397000", "171654.400000", "171654.404000", "171654.407000", "171654.410000", "171654.414000", "171654.417000", "171654.420000", "171654.424000", "171654.427000", "171734.339000", "171734.343000", "171734.347000", "171734.350000", "171734.353000", "171734.357000", "171734.360000", "171734.363000", "171734.367000", "171734.370000", "171734.373000", "171734.377000", "171734.380000", "171734.384000", "171734.387000", "171734.390000", "171734.394000", "171734.397000", "171734.400000", "171734.404000", "171734.407000", "171734.411000", "171734.414000", "171734.417000", "171734.421000", "171734.424000", "171734.427000", "171805.014000", "171805.027000", "171805.031000", "171805.034000", "171805.037000", "171805.041000", "171805.044000", "171805.047000", "171805.051000", "171805.054000", "171805.058000", "171805.061000", "171805.064000", "171805.068000", "171805.071000", "171805.074000", "171805.078000", "171805.081000", "171805.085000", "171805.088000"],
