{
  "AcquisitionMatrixPE": 104,
  "AcquisitionNumber": 1,
  "AcquisitionTime": "16:38:32.972500",
  "BandwidthPerPixelPhaseEncode": 17.17,
  "BaseResolution": 104,
  "BodyPartExamined": "BRAIN",
  "CoilCombinationMethod": "Sum of Squares",
  "ConsistencyInfo": "N4_VE11C_LATEST_20160120",
  "ConversionSoftware": "dcm2niix",
  "ConversionSoftwareVersion": "v1.0.20211006",
  "DerivedVendorReportedEchoSpacing": 0.000560011,
  "DeviceSerialNumber": "167006",
  "DwellTime": 2.1e-06,
  "EchoTime": 0.037,
  "EchoTrainLength": 104,
  "EffectiveEchoSpacing": 0.000560011,
  "FlipAngle": 52,
  "HeudiconvVersion": "0.11.3.post9+gc939bf8",
  "ImageComments": "Unaliased MB4/PE3/LB",
  "ImageOrientationPatientDICOM": [0.999711, -0.0196277, 0.0138691, 0.023385, 0.927564, -0.372932],
  "ImageOrientationText": "Tra>Cor(-21.9)>Sag(0.3)",
  "ImageType": [
    "ORIGINAL",
    "PRIMARY",
    "M",
    "MB",
    "ND",
    "MOSAIC"
],
  "ImagingFrequency": 123.259,
  "InPlanePhaseEncodingDirectionDICOM": "COL",
  "InstitutionAddress": "Chemin Queen-Mary 4565,Montreal,District,CA,H3W 1W5",
  "InstitutionName": "IUGM",
  "InstitutionalDepartmentName": "Department",
  "MRAcquisitionType": "2D",
  "MagneticFieldStrength": 3,
  "Manufacturer": "Siemens",
  "ManufacturersModelName": "Prisma_fit",
  "MatrixCoilMode": "SENSE",
  "Modality": "MR",
  "MultibandAccelerationFactor": 4,
  "PartialFourier": 1,
  "PatientPosition": "HFS",
  "PercentPhaseFOV": 100,
  "PercentSampling": 100,
  "PhaseEncodingDirection": "j",
  "PhaseEncodingSteps": 104,
  "PhaseResolution": 1,
  "PixelBandwidth": 2290,
  "ProcedureStepDescription": "games^mario",
  "ProtocolName": "func_task-mario_run-02",
  "PulseSequenceDetails": "%CustomerSeq%\\cmrr_mbep2d_bold",
  "ReceiveCoilActiveElements": "HC1-7;NC1,2",
  "ReceiveCoilName": "HeadNeck_64",
  "ReconMatrixPE": 104,
  "RepetitionTime": 1.49,
  "SAR": 0.0905097,
  "ScanOptions": "FS",
  "ScanningSequence": "EP",
  "SequenceName": "epfid2d1_104",
  "SequenceVariant": "SK\\SS",
  "SeriesDescription": "func_task-mario_run-02",
  "SeriesNumber": 13,
  "ShimSetting": [612, -7245, -8834, 362, 11, -336, 27, 12],
  "SliceThickness": 2,
  "SliceTiming": [0, 0.7825, 0.0975, 0.8825, 0.195, 0.98, 0.2925, 1.0775, 0.3925, 1.175, 0.49, 1.2725, 0.5875, 1.3725, 0.685, 0, 0.7825, 0.0975, 0.8825, 0.195, 0.98, 0.2925, 1.0775, 0.3925, 1.175, 0.49, 1.2725, 0.5875, 1.3725, 0.685, 0, 0.7825, 0.0975, 0.8825, 0.195, 0.98, 0.2925, 1.0775, 0.3925, 1.175, 0.49, 1.2725, 0.5875, 1.3725, 0.685, 0, 0.7825, 0.0975, 0.8825, 0.195, 0.98, 0.2925, 1.0775, 0.3925, 1.175, 0.49, 1.2725, 0.5875, 1.3725, 0.685],
  "SoftwareVersions": "syngo MR E11",
  "SpacingBetweenSlices": 2,
  "StationName": "MRC35049",
  "TaskName": "mario",
  "TotalReadoutTime": 0.0576811,
  "TxRefAmp": 308.036,
  "WipMemBlock": "18e9199d-114d-47e6-8d99-a399b5d4ba7a||Sequence: R017 ve11c/master r/75a17815+; Jun 28 2022 16:32:11 by eja",
  "dcmmeta_affine": [
    [-1.999422311782837, 0.046769946813583374, 0.011089339852333069, 100.86538696289062],
    [0.039255496114492416, 1.855128288269043, -0.7462963461875916, -63.496559143066406],
    [0.027738193050026894, 0.7458630800247192, 1.8555104732513428, -70.25985717773438],
    [0.0, 0.0, 0.0, 1.0]
],
  "dcmmeta_reorient_transform": [
    [0.0, -1.0, 0.0, 103.0],
    [1.0, 0.0, 0.0, 0.0],
    [0.0, 0.0, 1.0, 0.0],
    [0.0, 0.0, 0.0, 1.0]
],
  "dcmmeta_shape": [104, 104, 60, 484],
  "dcmmeta_slice_dim": 2,
  "dcmmeta_version": 0.6,
  "global": {
    "const": {
      "AcquisitionMatrix": [104, 0, 0, 104],
      "AngioFlag": "N",
      "BitsAllocated": 16,
      "BitsStored": 16,
      "BodyPartExamined": "BRAIN",
      "Columns": 832,
      "EchoNumbers": 1,
      "EchoTime": 37.0,
      "EchoTrainLength": 104,
      "FlipAngle": 52.0,
      "HighBit": 15,
      "ImageOrientationPatient": [0.99971115813354, -0.0196277474161, 0.0138690963895, 0.02338497250444, 0.9275641218587, -0.3729315525689],
      "ImagePositionPatient": [-850.49667148002, -788.55932879504, 267.96151162172],
      "ImageType": [
        "ORIGINAL",
        "PRIMARY",
        "M",
        "MB",
        "ND",
        "MOSAIC"
],
      "ImagedNucleus": "1H",
      "ImagingFrequency": 123.258784,
      "InPlanePhaseEncodingDirection": "COL",
      "MRAcquisitionType": "2D",
      "MagneticFieldStrength": 3.0,
      "Manufacturer": "SIEMENS",
      "ManufacturerModelName": "Prisma_fit",
      "Modality": "MR",
      "NumberOfAverages": 1.0,
      "NumberOfPhaseEncodingSteps": 104,
      "PercentPhaseFieldOfView": 100.0,
      "PercentSampling": 100.0,
      "PerformedProcedureStepStartTime": "161345.182000",
      "PhotometricInterpretation": "MONOCHROME2",
      "PixelBandwidth": 2290.0,
      "PixelRepresentation": 0,
      "PixelSpacing": [2.0, 2.0],
      "ProtocolName": "func_task-mario_run-02",
      "RepetitionTime": 1490.0,
      "Rows": 832,
      "SAR": 0.09050973428704,
      "SamplesPerPixel": 1,
      "ScanOptions": "FS",
      "ScanningSequence": "EP",
      "SequenceName": "epfid2d1_104",
      "SequenceVariant": [
        "SK",
        "SS"
],
      "SeriesDescription": "func_task-mario_run-02",
      "SeriesNumber": 13,
      "SeriesTime": "163926.624000",
      "SliceLocation": -40.931056516521,
      "SliceThickness": 2.0,
      "SmallestImagePixelValue": 0,
      "SoftwareVersions": "syngo MR E11",
      "SpacingBetweenSlices": 2.0000000460136,
      "SpecificCharacterSet": "ISO_IR 100",
      "StudyID": "1",
      "StudyTime": "161345.114000",
      "TransmitCoilName": "Body",
      "VariableFlipAngleFlag": "N",
      "WindowCenterWidthExplanation": "Algo1",
      "dBdt": 0.0},
    "slices": {}
  },
  "time": {
    "samples": {
      "AcquisitionNumber": [1, 2, 3, 4, 5, 6, 7, 8, 9, 10, 11, 12, 13, 14, 15, 16, 17, 18, 19, 20, 21, 22, 23, 24, 25, 26, 27, 28, 29, 30, 31, 32, 33, 34, 35, 36, 37, 38, 39, 40, 41, 42, 43, 44, 45, 46, 47, 48, 49, 50, 51, 52, 53, 54, 55, 56, 57, 58, 59, 60, 61, 62, 63, 64, 65, 66, 67, 68, 69, 70, 71, 72, 73, 74, 75, 76, 77, 78, 79, 80, 81, 82, 83, 84, 85, 86, 87, 88, 89, 90, 91, 92, 93, 94, 95, 96, 97, 98, 99, 100, 101, 102, 103, 104, 105, 106, 107, 108, 109, 110, 111, 112, 113, 114, 115, 116, 117, 118, 119, 120, 121, 122, 123, 124, 125, 126, 127, 128, 129, 130, 131, 132, 133, 134, 135, 136, 137, 138, 139, 140, 141, 142, 143, 144, 145, 146, 147, 148, 149, 150, 151, 152, 153, 154, 155, 156, 157, 158, 159, 160, 161, 162, 163, 164, 165, 166, 167, 168, 169, 170, 171, 172, 173, 174, 175, 176, 177, 178, 179, 180, 181, 182, 183, 184, 185, 186, 187, 188, 189, 190, 191, 192, 193, 194, 195, 196, 197, 198, 199, 200, 201, 202, 203, 204, 205, 206, 207, 208, 209, 210, 211, 212, 213, 214, 215, 216, 217, 218, 219, 220, 221, 222, 223, 224, 225, 226, 227, 228, 229, 230, 231, 232, 233, 234, 235, 236, 237, 238, 239, 240, 241, 242, 243, 244, 245, 246, 247, 248, 249, 250, 251, 252, 253, 254, 255, 256, 257, 258, 259, 260, 261, 262, 263, 264, 265, 266, 267, 268, 269, 270, 271, 272, 273, 274, 275, 276, 277, 278, 279, 280, 281, 282, 283, 284, 285, 286, 287, 288, 289, 290, 291, 292, 293, 294, 295, 296, 297, 298, 299, 300, 301, 302, 303, 304, 305, 306, 307, 308, 309, 310, 311, 312, 313, 314, 315, 316, 317, 318, 319, 320, 321, 322, 323, 324, 325, 326, 327, 328, 329, 330, 331, 332, 333, 334, 335, 336, 337, 338, 339, 340, 341, 342, 343, 344, 345, 346, 347, 348, 349, 350, 351, 352, 353, 354, 355, 356, 357, 358, 359, 360, 361, 362, 363, 364, 365, 366, 367, 368, 369, 370, 371, 372, 373, 374, 375, 376, 377, 378, 379, 380, 381, 382, 383, 384, 385, 386, 387, 388, 389, 390, 391, 392, 393, 394, 395, 396, 397, 398, 399, 400, 401, 402, 403, 404, 405, 406, 407, 408, 409, 410, 411, 412, 413, 414, 415, 416, 417, 418, 419, 420, 421, 422, 423, 424, 425, 426, 427, 428, 429, 430, 431, 432, 433, 434, 435, 436, 437, 438, 439, 440, 441, 442, 443, 444, 445, 446, 447, 448, 449, 450, 451, 452, 453, 454, 455, 456, 457, 458, 459, 460, 461, 462, 463, 464, 465, 466, 467, 468, 469, 470, 471, 472, 473, 474, 475, 476, 477, 478, 479, 480, 481, 482, 483, 484],
      "AcquisitionTime": ["163832.972500", "163834.462500", "163835.952500", "163837.442500", "163838.932500", "163840.422500", "163841.912500", "163843.402500", "163844.892500", "163846.382500", "163847.872500", "163849.362500", "163850.852500", "163852.342500", "163853.832500", "163855.322500", "163856.812500", "163858.302500", "163859.792500", "163901.282500", "163902.772500", "163904.262500", "163905.752500", "163907.242500", "163908.732500", "163910.222500", "163911.712500", "163913.202500", "163914.692500", "163916.182500", "163917.672500", "163919.162500", "163920.652500", "163922.142500", "163923.632500", "163925.122500", "163926.612500", "163928.102500", "163929.592500", "163931.082500", "163932.572500", "163934.062500", "163935.552500", "163937.042500", "163938.532500", "163940.022500", "163941.512500", "163943.002500", "163944.492500", "163945.982500", "163947.472500", "163948.962500", "163950.452500", "163951.942500", "163953.432500", "163954.922500", "163956.412500", "163957.902500", "163959.392500", "164000.882500", "164002.372500", "164003.862500", "164005.352500", "164006.842500", "164008.332500", "164009.822500", "164011.312500", "164012.802500", "164014.292500", "164015.782500", "164017.272500", "164018.762500", "164020.252500", "164021.742500", "164023.232500", "164024.722500", "164026.212500", "164027.702500", "164029.192500", "164030.682500", "164032.172500", "164033.662500", "164035.152500", "164036.642500", "164038.132500", "164039.622500", "164041.112500", "164042.602500", "164044.092500", "164045.582500", "164047.072500", "164048.562500", "164050.052500", "164051.542500", "164053.032500", "164054.522500", "164056.012500", "164057.502500", "164058.992500", "164100.482500", "164101.972500", "164103.462500", "164104.952500", "164106.442500", "164107.932500", "164109.422500", "164110.912500", "164112.402500", "164113.892500", "164115.382500", "164116.872500", "164118.362500", "164119.852500", "164121.342500", "164122.832500", "164124.322500", "164125.812500", "164127.302500", "164128.792500", "164130.282500", "164131.772500", "164133.262500", "164134.752500", "164136.242500", "164137.732500", "164139.222500", "164140.712500", "164142.202500", "164143.692500", "164145.182500", "164146.672500", "164148.162500", "164149.652500", "164151.142500", "164152.632500", "164154.122500", "164155.612500", "164157.102500", "164158.592500", "164200.082500", "164201.572500", "164203.062500", "164204.552500", "164206.042500", "164207.532500", "164209.022500", "164210.512500", "164212.002500", "164213.492500", "164214.982500", "164216.472500", "164217.962500", "164219.452500", "164220.942500", "164222.432500", "164223.922500", "164225.412500", "164226.902500", "164228.392500", "164229.882500", "164231.372500", "164232.862500", "164234.352500", "164235.842500", "164237.332500", "164238.822500", "164240.312500", "164241.802500", "164243.292500", "164244.782500", "164246.272500", "164247.762500", "164249.252500", "164250.742500", "164252.232500", "164253.722500", "164255.212500", "164256.702500", "164258.192500", "164259.682500", "164301.172500", "164302.662500", "164304.152500", "164305.642500", "164307.132500", "164308.622500", "164310.112500", "164311.602500", "164313.092500", "164314.582500", "164316.072500", "164317.562500", "164319.052500", "164320.542500", "164322.032500", "164323.522500", "164325.012500", "164326.502500", "164327.992500", "164329.482500", "164330.972500", "164332.462500", "164333.952500", "164335.442500", "164336.932500", "164338.422500", "164339.912500", "164341.402500", "164342.892500", "164344.382500", "164345.872500", "164347.362500", "164348.852500", "164350.342500", "164351.832500", "164353.322500", "164354.812500", "164356.302500", "164357.792500", "164359.282500", "164400.772500", "164402.262500", "164403.752500", "164405.242500", "164406.732500", "164408.222500", "164409.712500", "164411.202500", "164412.692500", "164414.182500", "164415.672500", "164417.162500", "164418.652500", "164420.142500", "164421.632500", "164423.122500", "164424.612500", "164426.102500", "164427.592500", "164429.082500", "164430.572500", "164432.062500", "164433.552500", "164435.042500", "164436.532500", "164438.022500", "164439.512500", "164441.002500", "164442.492500", "164443.982500", "164445.472500", "164446.962500", "164448.452500", "164449.942500", "164451.432500", "164452.922500", "164454.412500", "164455.902500", "164457.392500", "164458.882500", "164500.372500", "164501.862500", "164503.352500", "164504.842500", "164506.332500", "164507.822500", "164509.312500", "164510.802500", "164512.292500", "164513.782500", "164515.272500", "164516.762500", "164518.252500", "164519.742500", "164521.232500", "164522.722500", "164524.212500", "164525.702500", "164527.192500", "164528.682500", "164530.172500", "164531.662500", "164533.152500", "164534.642500", "164536.132500", "164537.622500", "164539.112500", "164540.602500", "164542.092500", "164543.582500", "164545.072500", "164546.562500", "164548.052500", "164549.542500", "164551.032500", "164552.522500", "164554.012500", "164555.502500", "164556.992500", "164558.482500", "164559.972500", "164601.462500", "164602.952500", "164604.442500", "164605.932500", "164607.422500", "164608.912500", "164610.402500", "164611.892500", "164613.382500", "164614.872500", "164616.362500", "164617.852500", "164619.342500", "164620.832500", "164622.322500", "164623.812500", "164625.302500", "164626.792500", "164628.282500", "164629.772500", "164631.262500", "164632.752500", "164634.242500", "164635.732500", "164637.222500", "164638.712500", "164640.202500", "164641.692500", "164643.182500", "164644.672500", "164646.162500", "164647.652500", "164649.142500", "164650.632500", "164652.122500", "164653.612500", "164655.102500", "164656.592500", "164658.082500", "164659.572500", "164701.062500", "164702.552500", "164704.042500", "164705.532500", "164707.022500", "164708.512500", "164710.002500", "164711.492500", "164712.982500", "164714.472500", "164715.962500", "164717.452500", "164718.942500", "164720.432500", "164721.922500", "164723.412500", "164724.902500", "164726.392500", "164727.882500", "164729.372500", "164730.862500", "164732.352500", "164733.842500", "164735.332500", "164736.822500", "164738.312500", "164739.802500", "164741.292500", "164742.782500", "164744.272500", "164745.762500", "164747.252500", "164748.742500", "164750.232500", "164751.722500", "164753.212500", "164754.702500", "164756.192500", "164757.682500", "164759.172500", "164800.662500", "164802.152500", "164803.642500", "164805.132500", "164806.622500", "164808.112500", "164809.602500", "164811.092500", "164812.582500", "164814.072500", "164815.562500", "164817.052500", "164818.542500", "164820.032500", "164821.522500", "164823.012500", "164824.502500", "164825.992500", "164827.482500", "164828.972500", "164830.462500", "164831.952500", "164833.442500", "164834.932500", "164836.422500", "164837.912500", "164839.402500", "164840.892500", "164842.382500", "164843.872500", "164845.362500", "164846.852500", "164848.342500", "164849.832500", "164851.322500", "164852.812500", "164854.302500", "164855.792500", "164857.282500", "164858.772500", "164900.262500", "164901.752500", "164903.242500", "164904.732500", "164906.222500", "164907.712500", "164909.202500", "164910.692500", "164912.182500", "164913.672500", "164915.162500", "164916.652500", "164918.142500", "164919.632500", "164921.122500", "164922.612500", "164924.102500", "164925.592500", "164927.082500", "164928.572500", "164930.062500", "164931.552500", "164933.042500", "164934.532500", "164936.022500", "164937.512500", "164939.002500", "164940.492500", "164941.982500", "164943.472500", "164944.962500", "164946.452500", "164947.942500", "164949.432500", "164950.922500", "164952.412500", "164953.902500", "164955.392500", "164956.882500", "164958.372500", "164959.862500", "165001.352500", "165002.842500", "165004.332500", "165005.822500", "165007.312500", "165008.802500", "165010.292500", "165011.782500", "165013.272500", "165014.762500", "165016.252500", "165017.742500", "165019.232500", "165020.722500", "165022.212500", "165023.702500", "165025.192500", "165026.682500", "165028.172500", "165029.662500", "165031.152500", "165032.642500"],
      "ContentTime": ["163926.628000", "163926.632000", "163926.635000", "163926.639000", "163926.653000", "163946.594000", "163946.598000", "163946.601000", "163946.605000", "163946.608000", "163946.611000", "163946.615000", "163946.618000", "163946.629000", "163946.633000", "163946.636000", "163946.639000", "163946.643000", "163946.646000", "163946.649000", "163946.653000", "163946.656000", "163946.660000", "163946.663000", "163946.666000", "164006.595000", "164006.599000", "164006.602000", "164006.605000", "164006.609000", "164006.612000", "164006.615000", "164006.619000", "164006.622000", "164006.625000", "164006.629000", "164006.632000", "164006.635000", "164006.639000", "164006.642000", "164006.645000", "164006.649000", "164006.652000", "164006.655000", "164006.659000", "164006.662000", "164026.594000", "164026.598000", "164026.601000", "164026.604000", "164026.608000", "164026.611000", "164026.615000", "164026.618000", "164026.622000", "164026.625000", "164026.628000", "164026.632000", "164026.635000", "164026.638000", "164026.642000", "164026.645000", "164026.648000", "164026.652000", "164026.655000", "164026.658000", "164046.594000", "164046.598000", "164046.601000", "164046.605000", "164046.608000", "164046.611000", "164046.615000", "164046.618000", "164046.621000", "164046.625000", "164046.628000", "164046.631000", "164046.634000", "164046.643000", "164046.661000", "164046.665000", "164046.668000", "164046.671000", "164046.675000", "164046.678000", "164126.594000", "164126.598000", "164126.601000", "164126.610000", "164126.614000", "164126.617000", "164126.620000", "164126.624000", "164126.627000", "164126.630000", "164126.634000", "164126.637000", "164126.640000", "164126.644000", "164126.647000", "164126.650000", "164126.655000", "164126.658000", "164126.662000", "164126.665000", "164126.668000", "164126.672000", "164126.675000", "164126.679000", "164126.682000", "164126.686000", "164126.689000", "164126.692000", "164126.696000", "164206.594000", "164206.598000", "164206.601000", "164206.605000", "164206.608000", "164206.611000", "164206.624000", "164206.627000", "164206.631000", "164206.634000", "164206.637000", "164206.641000", "164206.644000", "164206.647000", "164206.651000", "164206.654000", "164206.657000", "164206.661000", "164206.664000", "164206.667000", "164206.671000", "164206.674000", "164206.677000", "164206.681000", "164206.684000", "164206.688000", "164206.691000", "164246.594000", "164246.598000", "164246.601000", "164246.605000", "164246.608000", "164246.612000", "164246.615000", "164246.619000", "164246.622000", "164246.626000", "164246.629000", "164246.632000", "164246.636000", "164246.639000", "164246.642000", "164246.646000", "164246.660000", "164246.663000", "164246.666000", "164246.670000", "164246.673000", "164246.676000", "164246.680000", "164246.683000", "164246.686000", "164246.690000", "164246.693000", "164326.594000", "164326.598000", "164326.601000", "164326.605000", "164326.608000", "164326.612000", "164326.615000", "164326.618000", "164326.622000", "164326.625000", "164326.628000", "164326.644000", "164326.648000", "164326.651000", "164326.654000", "164326.657000", "164326.661000", "164326.664000", "164326.667000", "164326.671000", "164326.674000", "164326.677000", "164326.681000", "164326.684000", "164326.687000", "164326.691000", "164326.694000", "164406.594000", "164406.598000", "164406.601000", "164406.605000", "164406.608000", "164406.612000", "164406.615000", "164406.618000", "164406.622000", "164406.625000", "164406.629000", "164406.632000", "164406.635000", "164406.639000", "164406.642000", "164406.645000", "164406.649000", "164406.652000", "164406.655000", "164406.659000", "164406.662000", "164406.666000", "164406.669000", "164406.672000", "164406.675000", "164406.679000", "164406.682000", "164446.595000", "164446.599000", "164446.602000", "164446.606000", "164446.609000", "164446.612000", "164446.616000", "164446.619000", "164446.622000", "164446.626000", "164446.629000", "164446.633000", "164446.636000", "164446.639000", "164446.643000", "164446.646000", "164446.649000", "164446.653000", "164446.656000", "164446.659000", "164446.663000", "164446.676000", "164446.680000", "164446.683000", "164446.686000", "164446.690000", "164446.693000", "164526.594000", "164526.598000", "164526.601000", "164526.605000", "164526.608000", "164526.611000", "164526.615000", "164526.618000", "164526.621000", "164526.625000", "164526.628000", "164526.632000", "164526.635000", "164526.638000", "164526.642000", "164526.645000", "164526.648000", "164526.652000", "164526.655000", "164526.658000", "164526.662000", "164526.665000", "164526.668000", "164526.672000", "164526.675000", "164526.691000", "164526.694000", "164606.594000", "164606.598000", "164606.601000", "164606.605000", "164606.608000", "164606.611000", "164606.615000", "164606.618000", "164606.622000", "164606.625000", "164606.629000", "164606.632000", "164606.635000", "164606.640000", "164606.643000", "164606.647000", "164606.650000", "164606.653000", "164606.657000", "164606.660000", "164606.663000", "164606.667000", "164606.670000", "164606.673000", "164606.677000", "164606.680000", "164646.594000", "164646.598000", "164646.601000", "164646.605000", "164646.608000", "164646.611000", "164646.615000", "164646.618000", "164646.622000", "164646.625000", "164646.628000", "164646.632000", "164646.635000", "164646.639000", "164646.642000", "164646.645000", "164646.648000", "164646.652000", "164646.655000", "164646.658000", "164646.662000", "164646.665000", "164646.669000", "164646.672000", "164646.675000", "164646.679000", "164646.682000", "164726.594000", "164726.598000", "164726.602000", "164726.605000", "164726.608000", "164726.612000", "164726.615000", "164726.618000", "164726.622000", "164726.625000", "164726.629000", "164726.632000", "164726.635000", "164726.639000", "164726.642000", "164726.645000", "164726.649000", "164726.652000", "164726.655000", "164726.659000", "164726.662000", "164726.666000", "164726.669000", "164726.672000", "164726.676000", "164726.679000", "164726.683000", "164806.594000", "164806.598000", "164806.602000", "164806.605000", "164806.608000", "164806.612000", "164806.615000", "164806.619000", "164806.622000", "164806.626000", "164806.643000", "164806.647000", "164806.650000", "164806.654000", "164806.657000", "164806.660000", "164806.664000", "164806.667000", "164806.670000", "164806.674000", "164806.677000", "164806.680000", "164806.684000", "164806.688000", "164806.692000", "164806.695000", "164806.698000", "164826.595000", "164826.598000", "164826.602000", "164826.605000", "164826.608000", "164826.612000", "164826.615000", "164826.618000", "164826.622000", "164826.625000", "164826.629000", "164826.632000", "164826.635000", "164906.594000", "164906.598000", "164906.601000", "164906.605000", "164906.608000", "164906.612000", "164906.615000", "164906.618000", "164906.622000", "164906.625000", "164906.628000", "164906.632000", "164906.635000", "164906.638000", "164906.642000", "164906.645000", "164906.649000", "164906.652000", "164906.655000", "164906.659000", "164906.662000", "164906.665000", "164906.669000", "164906.672000", "164906.675000", "164906.679000", "164906.682000", "164946.594000", "164946.598000", "164946.601000", "164946.605000", "164946.618000", "164946.621000", "164946.624000", "164946.627000", "164946.631000", "164946.634000", "164946.638000", "164946.641000", "164946.644000", "164946.648000", "164946.651000", "164946.654000", "164946.658000", "164946.661000", "164946.665000", "164946.668000", "164946.671000", "164946.675000", "164946.678000", "164946.681000", "164946.684000", "164946.688000", "164946.691000", "165026.595000", "165026.598000", "165026.611000", "165026.615000", "165026.618000", "165026.621000", "165026.625000", "165026.628000", "165026.631000", "165026.635000", "165026.638000", "165026.642000", "165026.645000", "165026.648000", "165026.652000", "165026.655000", "165026.658000", "165026.662000", "165026.665000", "165026.668000", "165026.672000", "165026.675000", "165026.678000", "165026.682000", "165026.685000", "165026.688000", "165026.692000", "165036.086000", "165036.090000", "165036.094000", "165036.097000", "165036.100000", "165036.104000"],
