{
  "AcquisitionMatrixPE": 104,
  "AcquisitionNumber": 1,
  "AcquisitionTime": "13:22:51.682500",
  "BandwidthPerPixelPhaseEncode": 17.17,
  "BaseResolution": 104,
  "BodyPartExamined": "BRAIN",
  "CoilCombinationMethod": "Sum of Squares",
  "ConsistencyInfo": "N4_VE11C_LATEST_20160120",
  "ConversionSoftware": "dcm2niix",
  "ConversionSoftwareVersion": "v1.0.20211006",
  "DerivedVendorReportedEchoSpacing": 0.000560011,
  "DeviceSerialNumber": "167006",
  "DwellTime": 2.1e-06,
  "EchoTime": 0.037,
  "EchoTime1": 0.037,
  "EchoTime2": 0.001,
  "EchoTrainLength": 104,
  "EffectiveEchoSpacing": 0.000560011,
  "FlipAngle": 52,
  "HeudiconvVersion": "0.10.0",
  "ImageComments": "Unaliased MB4/PE3/LB",
  "ImageOrientationPatientDICOM": [0.999345, 0.0193943, 0.0305488, -0.0115121, 0.970775, -0.239714],
  "ImageOrientationText": "Tra>Cor(-13.8)>Sag(2.0)",
  "ImageType": [
    "ORIGINAL",
    "PRIMARY",
    "P",
    "MB",
    "ND",
    "MOSAIC",
    "PHASE"
],
  "ImagingFrequency": 123.259,
  "InPlanePhaseEncodingDirectionDICOM": "COL",
  "InstitutionAddress": "Chemin Queen-Mary 4565,Montreal,District,CA,H3W 1W5",
  "InstitutionName": "IUGM",
  "InstitutionalDepartmentName": "Department",
  "MRAcquisitionType": "2D",
  "MagneticFieldStrength": 3,
  "Manufacturer": "Siemens",
  "ManufacturersModelName": "Prisma_fit",
  "MatrixCoilMode": "SENSE",
  "Modality": "MR",
  "MultibandAccelerationFactor": 4,
  "PartialFourier": 1,
  "PatientPosition": "HFS",
  "PercentPhaseFOV": 100,
  "PercentSampling": 100,
  "PhaseEncodingDirection": "j",
  "PhaseEncodingSteps": 104,
  "PhaseResolution": 1,
  "PixelBandwidth": 2290,
  "ProcedureStepDescription": "games^mario",
  "ProtocolName": "func_task-mario_run-01",
  "PulseSequenceDetails": "%CustomerSeq%\\cmrr_mbep2d_bold",
  "ReceiveCoilActiveElements": "HC1-7;NC1,2",
  "ReceiveCoilName": "HeadNeck_64",
  "ReconMatrixPE": 104,
  "RepetitionTime": 1.49,
  "SAR": 0.0485799,
  "ScanOptions": "FS",
  "ScanningSequence": "EP",
  "SequenceName": "epfid2d1_104",
  "SequenceVariant": "SK\\SS",
  "SeriesDescription": "func_task-mario_run-01",
  "SeriesNumber": 11,
  "ShimSetting": [633, -7205, -8805, 703, 39, 3, 83, -11],
  "SliceThickness": 2,
  "SliceTiming": [0, 0.7825, 0.0975, 0.8825, 0.195, 0.98, 0.295, 1.0775, 0.3925, 1.175, 0.49, 1.2725, 0.5875, 1.3725, 0.685, 0, 0.7825, 0.0975, 0.8825, 0.195, 0.98, 0.295, 1.0775, 0.3925, 1.175, 0.49, 1.2725, 0.5875, 1.3725, 0.685, 0, 0.7825, 0.0975, 0.8825, 0.195, 0.98, 0.295, 1.0775, 0.3925, 1.175, 0.49, 1.2725, 0.5875, 1.3725, 0.685, 0, 0.7825, 0.0975, 0.8825, 0.195, 0.98, 0.295, 1.0775, 0.3925, 1.175, 0.49, 1.2725, 0.5875, 1.3725, 0.685],
  "SoftwareVersions": "syngo MR E11",
  "SpacingBetweenSlices": 2,
  "StationName": "MRC35049",
  "TaskName": "mario",
  "TotalReadoutTime": 0.0576811,
  "TxRefAmp": 235.627,
  "WipMemBlock": "b6eb4539-ccce-424b-a448-3c243486f1b3||Sequence: R016 ve11c/master r/e634e98; Dec 19 2017 11:00:25 by eja",
  "dcmmeta_affine": [
    [-1.9986902475357056, -0.023024167865514755, 0.0686103105545044, 108.17460632324219],
    [-0.03878864273428917, 1.941550612449646, -0.47841042280197144, -72.67463684082031],
    [0.06109769642353058, 0.4794277548789978, 1.9407256841659546, -66.2822494506836],
    [0.0, 0.0, 0.0, 1.0]
],
  "dcmmeta_reorient_transform": [
    [0.0, -1.0, 0.0, 103.0],
    [1.0, 0.0, 0.0, 0.0],
    [0.0, 0.0, 1.0, 0.0],
    [0.0, 0.0, 0.0, 1.0]
],
  "dcmmeta_shape": [104, 104, 60, 544],
  "dcmmeta_slice_dim": 2,
  "dcmmeta_version": 0.6,
  "global": {
    "const": {
      "AcquisitionMatrix": [104, 0, 0, 104],
      "AngioFlag": "N",
      "BitsAllocated": 16,
      "BitsStored": 16,
      "BodyPartExamined": "BRAIN",
      "Columns": 832,
      "EchoNumbers": 1,
      "EchoTime": 37.0,
      "EchoTrainLength": 104,
      "FlipAngle": 52.0,
      "HighBit": 15,
      "ImageOrientationPatient": [0.99934509962763, 0.01939432097377, 0.03054884881987, -0.0115120842382, 0.97077532185677, -0.2397138844339],
      "ImagePositionPatient": [-824.94555573298, -848.14857928215, 135.37095935009],
      "ImageType": [
        "ORIGINAL",
        "PRIMARY",
        "P",
        "MB",
        "ND",
        "MOSAIC"
],
      "ImagedNucleus": "1H",
      "ImagingFrequency": 123.258871,
      "InPlanePhaseEncodingDirection": "COL",
      "LargestImagePixelValue": 4095,
      "MRAcquisitionType": "2D",
      "MagneticFieldStrength": 3.0,
      "Manufacturer": "SIEMENS",
      "ManufacturerModelName": "Prisma_fit",
      "Modality": "MR",
      "NumberOfAverages": 1.0,
      "NumberOfPhaseEncodingSteps": 104,
      "PercentPhaseFieldOfView": 100.0,
      "PercentSampling": 100.0,
      "PerformedProcedureStepStartTime": "115539.037000",
      "PhotometricInterpretation": "MONOCHROME2",
      "PixelBandwidth": 2290.0,
      "PixelRepresentation": 0,
      "PixelSpacing": [2.0, 2.0],
      "ProtocolName": "func_task-mario_run-01",
      "RepetitionTime": 1490.0,
      "RescaleIntercept": -4096.0,
      "RescaleSlope": 2.0,
      "RescaleType": "US",
      "Rows": 832,
      "SAR": 0.04857994976562,
      "SamplesPerPixel": 1,
      "ScanOptions": "FS",
      "ScanningSequence": "EP",
      "SequenceName": "epfid2d1_104",
      "SequenceVariant": [
        "SK",
        "SS"
],
      "SeriesDescription": "func_task-mario_run-01",
      "SeriesNumber": 11,
      "SeriesTime": "132352.987000",
      "SliceLocation": -43.222729458664,
      "SliceThickness": 2.0,
      "SmallestImagePixelValue": 0,
      "SoftwareVersions": "syngo MR E11",
      "SpacingBetweenSlices": 2.0000000223515,
      "SpecificCharacterSet": "ISO_IR 100",
      "StudyID": "1",
      "StudyTime": "115538.959000",
      "TransmitCoilName": "Body",
      "VariableFlipAngleFlag": "N",
      "WindowCenterWidthExplanation": "Algo1",
      "dBdt": 0.0},
    "slices": {}
  },
  "time": {
    "samples": {
      "AcquisitionNumber": [1, 2, 3, 4, 5, 6, 7, 8, 9, 10, 11, 12, 13, 14, 15, 16, 17, 18, 19, 20, 21, 22, 23, 24, 25, 26, 27, 28, 29, 30, 31, 32, 33, 34, 35, 36, 37, 38, 39, 40, 41, 42, 43, 44, 45, 46, 47, 48, 49, 50, 51, 52, 53, 54, 55, 56, 57, 58, 59, 60, 61, 62, 63, 64, 65, 66, 67, 68, 69, 70, 71, 72, 73, 74, 75, 76, 77, 78, 79, 80, 81, 82, 83, 84, 85, 86, 87, 88, 89, 90, 91, 92, 93, 94, 95, 96, 97, 98, 99, 100, 101, 102, 103, 104, 105, 106, 107, 108, 109, 110, 111, 112, 113, 114, 115, 116, 117, 118, 119, 120, 121, 122, 123, 124, 125, 126, 127, 128, 129, 130, 131, 132, 133, 134, 135, 136, 137, 138, 139, 140, 141, 142, 143, 144, 145, 146, 147, 148, 149, 150, 151, 152, 153, 154, 155, 156, 157, 158, 159, 160, 161, 162, 163, 164, 165, 166, 167, 168, 169, 170, 171, 172, 173, 174, 175, 176, 177, 178, 179, 180, 181, 182, 183, 184, 185, 186, 187, 188, 189, 190, 191, 192, 193, 194, 195, 196, 197, 198, 199, 200, 201, 202, 203, 204, 205, 206, 207, 208, 209, 210, 211, 212, 213, 214, 215, 216, 217, 218, 219, 220, 221, 222, 223, 224, 225, 226, 227, 228, 229, 230, 231, 232, 233, 234, 235, 236, 237, 238, 239, 240, 241, 242, 243, 244, 245, 246, 247, 248, 249, 250, 251, 252, 253, 254, 255, 256, 257, 258, 259, 260, 261, 262, 263, 264, 265, 266, 267, 268, 269, 270, 271, 272, 273, 274, 275, 276, 277, 278, 279, 280, 281, 282, 283, 284, 285, 286, 287, 288, 289, 290, 291, 292, 293, 294, 295, 296, 297, 298, 299, 300, 301, 302, 303, 304, 305, 306, 307, 308, 309, 310, 311, 312, 313, 314, 315, 316, 317, 318, 319, 320, 321, 322, 323, 324, 325, 326, 327, 328, 329, 330, 331, 332, 333, 334, 335, 336, 337, 338, 339, 340, 341, 342, 343, 344, 345, 346, 347, 348, 349, 350, 351, 352, 353, 354, 355, 356, 357, 358, 359, 360, 361, 362, 363, 364, 365, 366, 367, 368, 369, 370, 371, 372, 373, 374, 375, 376, 377, 378, 379, 380, 381, 382, 383, 384, 385, 386, 387, 388, 389, 390, 391, 392, 393, 394, 395, 396, 397, 398, 399, 400, 401, 402, 403, 404, 405, 406, 407, 408, 409, 410, 411, 412, 413, 414, 415, 416, 417, 418, 419, 420, 421, 422, 423, 424, 425, 426, 427, 428, 429, 430, 431, 432, 433, 434, 435, 436, 437, 438, 439, 440, 441, 442, 443, 444, 445, 446, 447, 448, 449, 450, 451, 452, 453, 454, 455, 456, 457, 458, 459, 460, 461, 462, 463, 464, 465, 466, 467, 468, 469, 470, 471, 472, 473, 474, 475, 476, 477, 478, 479, 480, 481, 482, 483, 484, 485, 486, 487, 488, 489, 490, 491, 492, 493, 494, 495, 496, 497, 498, 499, 500, 501, 502, 503, 504, 505, 506, 507, 508, 509, 510, 511, 512, 513, 514, 515, 516, 517, 518, 519, 520, 521, 522, 523, 524, 525, 526, 527, 528, 529, 530, 531, 532, 533, 534, 535, 536, 537, 538, 539, 540, 541, 542, 543, 544],
      "AcquisitionTime": ["132251.682500", "132253.172500", "132254.662500", "132256.152500", "132257.642500", "132259.132500", "132300.622500", "132302.112500", "132303.602500", "132305.092500", "132306.582500", "132308.072500", "132309.562500", "132311.052500", "132312.542500", "132314.032500", "132315.522500", "132317.012500", "132318.502500", "132319.992500", "132321.482500", "132322.972500", "132324.462500", "132325.952500", "132327.442500", "132328.932500", "132330.422500", "132331.912500", "132333.402500", "132334.892500", "132336.382500", "132337.872500", "132339.362500", "132340.852500", "132342.342500", "132343.832500", "132345.322500", "132346.812500", "132348.302500", "132349.792500", "132351.282500", "132352.772500", "132354.262500", "132355.752500", "132357.242500", "132358.732500", "132400.222500", "132401.712500", "132403.202500", "132404.692500", "132406.182500", "132407.672500", "132409.162500", "132410.652500", "132412.142500", "132413.632500", "132415.122500", "132416.612500", "132418.102500", "132419.592500", "132421.082500", "132422.572500", "132424.062500", "132425.552500", "132427.042500", "132428.532500", "132430.022500", "132431.512500", "132433.002500", "132434.492500", "132435.982500", "132437.472500", "132438.962500", "132440.452500", "132441.942500", "132443.432500", "132444.922500", "132446.412500", "132447.902500", "132449.392500", "132450.882500", "132452.372500", "132453.862500", "132455.352500", "132456.842500", "132458.332500", "132459.822500", "132501.312500", "132502.802500", "132504.292500", "132505.782500", "132507.272500", "132508.762500", "132510.252500", "132511.742500", "132513.232500", "132514.722500", "132516.212500", "132517.702500", "132519.192500", "132520.682500", "132522.172500", "132523.662500", "132525.152500", "132526.642500", "132528.132500", "132529.622500", "132531.112500", "132532.602500", "132534.092500", "132535.582500", "132537.072500", "132538.562500", "132540.052500", "132541.542500", "132543.032500", "132544.522500", "132546.012500", "132547.502500", "132548.992500", "132550.482500", "132551.972500", "132553.462500", "132554.952500", "132556.442500", "132557.932500", "132559.422500", "132600.912500", "132602.402500", "132603.892500", "132605.382500", "132606.872500", "132608.362500", "132609.852500", "132611.342500", "132612.832500", "132614.322500", "132615.812500", "132617.302500", "132618.792500", "132620.282500", "132621.772500", "132623.262500", "132624.752500", "132626.242500", "132627.732500", "132629.222500", "132630.712500", "132632.202500", "132633.692500", "132635.182500", "132636.672500", "132638.162500", "132639.652500", "132641.142500", "132642.632500", "132644.122500", "132645.612500", "132647.102500", "132648.592500", "132650.082500", "132651.572500", "132653.062500", "132654.552500", "132656.042500", "132657.532500", "132659.022500", "132700.512500", "132702.002500", "132703.492500", "132704.982500", "132706.472500", "132707.962500", "132709.452500", "132710.942500", "132712.432500", "132713.922500", "132715.412500", "132716.902500", "132718.392500", "132719.882500", "132721.372500", "132722.862500", "132724.352500", "132725.842500", "132727.332500", "132728.822500", "132730.312500", "132731.802500", "132733.292500", "132734.782500", "132736.272500", "132737.762500", "132739.252500", "132740.742500", "132742.232500", "132743.722500", "132745.212500", "132746.702500", "132748.192500", "132749.682500", "132751.172500", "132752.662500", "132754.152500", "132755.642500", "132757.132500", "132758.622500", "132800.112500", "132801.602500", "132803.092500", "132804.582500", "132806.072500", "132807.562500", "132809.052500", "132810.542500", "132812.032500", "132813.522500", "132815.012500", "132816.502500", "132817.992500", "132819.482500", "132820.972500", "132822.462500", "132823.952500", "132825.442500", "132826.932500", "132828.422500", "132829.912500", "132831.402500", "132832.892500", "132834.382500", "132835.872500", "132837.362500", "132838.852500", "132840.342500", "132841.832500", "132843.322500", "132844.812500", "132846.302500", "132847.792500", "132849.282500", "132850.772500", "132852.262500", "132853.752500", "132855.242500", "132856.732500", "132858.222500", "132859.712500", "132901.202500", "132902.692500", "132904.182500", "132905.672500", "132907.162500", "132908.652500", "132910.142500", "132911.632500", "132913.122500", "132914.612500", "132916.102500", "132917.592500", "132919.082500", "132920.572500", "132922.062500", "132923.552500", "132925.042500", "132926.532500", "132928.022500", "132929.512500", "132931.002500", "132932.492500", "132933.982500", "132935.472500", "132936.962500", "132938.452500", "132939.942500", "132941.432500", "132942.922500", "132944.412500", "132945.902500", "132947.392500", "132948.882500", "132950.372500", "132951.862500", "132953.352500", "132954.842500", "132956.332500", "132957.822500", "132959.312500", "133000.802500", "133002.292500", "133003.782500", "133005.272500", "133006.762500", "133008.252500", "133009.742500", "133011.232500", "133012.722500", "133014.212500", "133015.702500", "133017.192500", "133018.682500", "133020.172500", "133021.662500", "133023.152500", "133024.642500", "133026.132500", "133027.622500", "133029.112500", "133030.602500", "133032.092500", "133033.582500", "133035.072500", "133036.562500", "133038.052500", "133039.542500", "133041.032500", "133042.522500", "133044.012500", "133045.502500", "133046.992500", "133048.482500", "133049.972500", "133051.462500", "133052.952500", "133054.442500", "133055.932500", "133057.422500", "133058.912500", "133100.402500", "133101.892500", "133103.382500", "133104.872500", "133106.362500", "133107.852500", "133109.342500", "133110.832500", "133112.322500", "133113.812500", "133115.302500", "133116.792500", "133118.282500", "133119.772500", "133121.262500", "133122.752500", "133124.242500", "133125.732500", "133127.222500", "133128.712500", "133130.202500", "133131.692500", "133133.182500", "133134.672500", "133136.162500", "133137.652500", "133139.142500", "133140.632500", "133142.122500", "133143.612500", "133145.102500", "133146.592500", "133148.082500", "133149.572500", "133151.062500", "133152.552500", "133154.042500", "133155.532500", "133157.022500", "133158.512500", "133200.002500", "133201.492500", "133202.982500", "133204.472500", "133205.962500", "133207.452500", "133208.942500", "133210.432500", "133211.922500", "133213.412500", "133214.902500", "133216.392500", "133217.882500", "133219.372500", "133220.862500", "133222.352500", "133223.842500", "133225.332500", "133226.822500", "133228.312500", "133229.802500", "133231.292500", "133232.782500", "133234.272500", "133235.762500", "133237.252500", "133238.742500", "133240.232500", "133241.722500", "133243.212500", "133244.702500", "133246.192500", "133247.682500", "133249.172500", "133250.662500", "133252.152500", "133253.642500", "133255.132500", "133256.622500", "133258.112500", "133259.602500", "133301.092500", "133302.582500", "133304.072500", "133305.562500", "133307.052500", "133308.542500", "133310.032500", "133311.522500", "133313.012500", "133314.502500", "133315.992500", "133317.482500", "133318.972500", "133320.462500", "133321.952500", "133323.442500", "133324.932500", "133326.422500", "133327.912500", "133329.402500", "133330.892500", "133332.382500", "133333.872500", "133335.362500", "133336.852500", "133338.342500", "133339.832500", "133341.322500", "133342.812500", "133344.302500", "133345.792500", "133347.282500", "133348.772500", "133350.262500", "133351.752500", "133353.242500", "133354.732500", "133356.222500", "133357.712500", "133359.202500", "133400.692500", "133402.182500", "133403.672500", "133405.162500", "133406.652500", "133408.142500", "133409.632500", "133411.122500", "133412.612500", "133414.102500", "133415.592500", "133417.082500", "133418.572500", "133420.062500", "133421.552500", "133423.042500", "133424.532500", "133426.022500", "133427.512500", "133429.002500", "133430.492500", "133431.982500", "133433.472500", "133434.962500", "133436.452500", "133437.942500", "133439.432500", "133440.922500", "133442.412500", "133443.902500", "133445.392500", "133446.882500", "133448.372500", "133449.862500", "133451.352500", "133452.842500", "133454.332500", "133455.822500", "133457.312500", "133458.802500", "133500.292500", "133501.782500", "133503.272500", "133504.762500", "133506.252500", "133507.742500", "133509.232500", "133510.722500", "133512.212500", "133513.702500", "133515.192500", "133516.682500", "133518.172500", "133519.662500", "133521.152500", "133522.642500", "133524.132500", "133525.622500", "133527.112500", "133528.602500", "133530.092500", "133531.582500", "133533.072500", "133534.562500", "133536.052500", "133537.542500", "133539.032500", "133540.522500", "133542.012500", "133543.502500", "133544.992500", "133546.482500", "133547.972500", "133549.462500", "133550.952500", "133552.442500", "133553.932500", "133555.422500", "133556.912500", "133558.402500", "133559.892500", "133601.382500", "133602.872500", "133604.362500", "133605.852500", "133607.342500", "133608.832500", "133610.322500", "133611.812500", "133613.302500", "133614.792500", "133616.282500", "133617.772500", "133619.262500", "133620.752500"],
      "ContentTime": ["132352.989000", "132352.992000", "132353.001000", "132353.004000", "132353.007000", "132353.009000", "132412.976000", "132412.978000", "132412.981000", "132412.983000", "132412.986000", "132412.988000", "132412.991000", "132412.993000", "132412.996000", "132412.998000", "132413.002000", "132413.005000", "132413.007000", "132413.010000", "132413.012000", "132413.015000", "132413.019000", "132413.022000", "132413.025000", "132413.028000", "132433.545000", "132433.548000", "132433.550000", "132433.553000", "132433.555000", "132433.558000", "132433.560000", "132433.563000", "132433.565000", "132433.568000", "132433.570000", "132433.573000", "132433.575000", "132433.578000", "132433.580000", "132433.583000", "132433.585000", "132433.588000", "132433.590000", "132433.593000", "132452.974000", "132452.977000", "132452.979000", "132452.982000", "132452.984000", "132452.987000", "132452.989000", "132452.992000", "132452.994000", "132452.997000", "132453.000000", "132453.003000", "132453.005000", "132453.008000", "132453.010000", "132453.013000", "132453.015000", "132453.018000", "132453.021000", "132453.030000", "132453.033000", "132512.956000", "132512.959000", "132512.961000", "132512.964000", "132512.967000", "132512.969000", "132512.972000", "132512.974000", "132512.977000", "132512.979000", "132512.982000", "132512.984000", "132512.987000", "132512.989000", "132512.992000", "132512.994000", "132512.997000", "132513.000000", "132513.003000", "132513.005000", "132532.973000", "132532.975000", "132532.978000", "132532.980000", "132532.983000", "132532.985000", "132532.988000", "132532.990000", "132532.993000", "132532.995000", "132532.998000", "132533.001000", "132533.004000", "132533.006000", "132533.009000", "132533.011000", "132533.014000", "132533.017000", "132533.019000", "132533.022000", "132613.020000", "132613.023000", "132613.025000", "132613.028000", "132613.037000", "132613.039000", "132613.042000", "132613.044000", "132613.047000", "132613.050000", "132613.052000", "132613.055000", "132613.057000", "132613.060000", "132613.062000", "132613.065000", "132613.067000", "132613.070000", "132613.072000", "132613.075000", "132613.078000", "132613.080000", "132613.082000", "132613.085000", "132613.088000", "132613.090000", "132613.093000", "132653.000000", "132653.003000", "132653.006000", "132653.008000", "132653.011000", "132653.013000", "132653.026000", "132653.028000", "132653.031000", "132653.033000", "132653.036000", "132653.038000", "132653.041000", "132653.043000", "132653.046000", "132653.048000", "132653.051000", "132653.053000", "132653.056000", "132653.058000", "132653.061000", "132653.063000", "132653.066000", "132653.068000", "132653.071000", "132653.073000", "132653.076000", "132732.996000", "132733.000000", "132733.002000", "132733.005000", "132733.007000", "132733.010000", "132733.012000", "132733.015000", "132733.017000", "132733.020000", "132733.022000", "132733.025000", "132733.027000", "132733.030000", "132733.032000", "132733.035000", "132733.038000", "132733.040000", "132733.043000", "132733.045000", "132733.048000", "132733.050000", "132733.053000", "132733.055000", "132733.058000", "132733.060000", "132733.063000", "132812.997000", "132813.001000", "132813.003000", "132813.006000", "132813.008000", "132813.011000", "132813.014000", "132813.016000", "132813.019000", "132813.021000", "132813.024000", "132813.026000", "132813.029000", "132813.031000", "132813.034000", "132813.037000", "132813.045000", "132813.047000", "132813.050000", "132813.052000", "132813.055000", "132813.058000", "132813.060000", "132813.063000", "132813.065000", "132813.068000", "132813.070000", "132853.005000", "132853.009000", "132853.011000", "132853.014000", "132853.016000", "132853.019000", "132853.022000", "132853.024000", "132853.027000", "132853.029000", "132853.032000", "132853.034000", "132853.037000", "132853.039000", "132853.042000", "132853.045000", "132853.047000", "132853.050000", "132853.052000", "132853.055000", "132853.057000", "132853.060000", "132853.062000", "132853.065000", "132853.067000", "132853.070000", "132932.989000", "132932.992000", "132932.994000", "132932.996000", "132933.005000", "132933.008000", "132933.010000", "132933.013000", "132933.016000", "132933.018000", "132933.021000", "132933.023000", "132933.026000", "132933.028000", "132933.031000", "132933.033000", "132933.036000", "132933.038000", "132933.041000", "132933.043000", "132933.046000", "132933.049000", "132933.051000", "132933.054000", "132933.056000", "132933.059000", "132933.061000", "133013.089000", "133013.092000", "133013.103000", "133013.105000", "133013.108000", "133013.110000", "133013.113000", "133013.115000", "133013.118000", "133013.120000", "133013.123000", "133013.125000", "133013.128000", "133013.130000", "133013.133000", "133013.135000", "133013.138000", "133013.140000", "133013.142000", "133013.145000", "133013.148000", "133013.150000", "133013.153000", "133013.155000", "133013.158000", "133013.160000", "133013.171000", "133053.001000", "133053.004000", "133053.006000", "133053.009000", "133053.011000", "133053.014000", "133053.016000", "133053.019000", "133053.022000", "133053.024000", "133053.027000", "133053.029000", "133053.032000", "133053.034000", "133053.037000", "133053.039000", "133053.042000", "133053.044000", "133053.047000", "133053.049000", "133053.052000", "133053.054000", "133053.057000", "133053.059000", "133053.062000", "133053.064000", "133053.067000", "133132.991000", "133132.994000", "133132.997000", "133133.000000", "133133.003000", "133133.005000", "133133.008000", "133133.010000", "133133.013000", "133133.015000", "133133.018000", "133133.021000", "133133.023000", "133133.026000", "133133.028000", "133133.031000", "133133.033000", "133133.036000", "133133.038000", "133133.041000", "133133.043000", "133133.046000", "133133.049000", "133133.051000", "133133.054000", "133133.056000", "133133.059000", "133212.989000", "133212.992000", "133212.994000", "133212.996000", "133213.000000", "133213.003000", "133213.005000", "133213.008000", "133213.011000", "133213.013000", "133213.016000", "133213.018000", "133213.021000", "133213.023000", "133213.026000", "133213.028000", "133213.031000", "133213.034000", "133213.036000", "133213.039000", "133213.041000", "133213.044000", "133213.046000", "133213.049000", "133213.052000", "133213.054000", "133213.057000", "133253.008000", "133253.011000", "133253.013000", "133253.016000", "133253.018000", "133253.021000", "133253.023000", "133253.026000", "133253.028000", "133253.031000", "133253.034000", "133253.037000", "133253.039000", "133253.042000", "133253.044000", "133253.047000", "133253.049000", "133253.052000", "133253.054000", "133253.057000", "133253.059000", "133253.062000", "133253.064000", "133253.067000", "133253.069000", "133253.072000", "133333.005000", "133333.008000", "133333.010000", "133333.013000", "133333.015000", "133333.018000", "133333.021000", "133333.023000", "133333.026000", "133333.028000", "133333.031000", "133333.034000", "133333.036000", "133333.038000", "133333.041000", "133333.044000", "133333.046000", "133333.049000", "133333.051000", "133333.054000", "133333.056000", "133333.059000", "133333.062000", "133333.064000", "133333.067000", "133333.069000", "133333.076000", "133352.934000", "133352.937000", "133352.939000", "133352.942000", "133352.944000", "133352.956000", "133352.958000", "133352.960000", "133352.963000", "133352.966000", "133352.968000", "133352.971000", "133352.984000", "133352.986000", "133433.378000", "133433.380000", "133433.383000", "133433.385000", "133433.388000", "133433.391000", "133433.393000", "133433.396000", "133433.398000", "133433.401000", "133433.403000", "133433.406000", "133433.409000", "133433.411000", "133433.414000", "133433.416000", "133433.419000", "133433.421000", "133433.424000", "133433.426000", "133433.429000", "133433.431000", "133433.434000", "133433.436000", "133433.439000", "133433.441000", "133433.444000", "133513.032000", "133513.035000", "133513.037000", "133513.040000", "133513.043000", "133513.045000", "133513.048000", "133513.050000", "133513.053000", "133513.055000", "133513.058000", "133513.060000", "133513.063000", "133513.065000", "133513.068000", "133513.070000", "133513.073000", "133513.075000", "133513.078000", "133513.081000", "133513.083000", "133513.086000", "133513.088000", "133513.091000", "133513.093000", "133513.096000", "133552.983000", "133552.986000", "133552.989000", "133552.991000", "133552.994000", "133552.996000", "133553.000000", "133553.003000", "133553.005000", "133553.008000", "133553.010000", "133553.013000", "133553.015000", "133553.018000", "133553.020000", "133553.023000", "133553.026000", "133553.029000", "133553.032000", "133553.034000", "133553.037000", "133553.039000", "133553.042000", "133553.044000", "133553.047000", "133553.049000", "133553.052000", "133624.220000", "133624.223000", "133624.225000", "133624.228000", "133624.230000", "133624.233000", "133624.236000", "133624.238000", "133624.241000", "133624.243000", "133624.246000", "133624.248000", "133624.251000", "133624.253000", "133624.256000", "133624.258000", "133624.261000", "133624.263000", "133624.266000", "133624.268000", "133624.271000"],
