{
  "AcquisitionMatrixPE": 104,
  "AcquisitionNumber": 1,
  "AcquisitionTime": "14:05:25.392500",
  "BandwidthPerPixelPhaseEncode": 17.17,
  "BaseResolution": 104,
  "BodyPartExamined": "BRAIN",
  "CoilCombinationMethod": "Sum of Squares",
  "ConsistencyInfo": "N4_VE11C_LATEST_20160120",
  "ConversionSoftware": "dcm2niix",
  "ConversionSoftwareVersion": "v1.0.20211006",
  "DerivedVendorReportedEchoSpacing": 0.000560011,
  "DeviceSerialNumber": "167006",
  "DwellTime": 2.1e-06,
  "EchoTime": 0.037,
  "EchoTrainLength": 104,
  "EffectiveEchoSpacing": 0.000560011,
  "FlipAngle": 52,
  "HeudiconvVersion": "0.10.0",
  "ImageComments": "Unaliased MB4/PE3/LB",
  "ImageOrientationPatientDICOM": [0.999345, 0.0193943, 0.0305488, -0.0115121, 0.970775, -0.239714],
  "ImageOrientationText": "Tra>Cor(-13.8)>Sag(2.0)",
  "ImageType": [
    "ORIGINAL",
    "PRIMARY",
    "M",
    "MB",
    "ND",
    "MOSAIC"
],
  "ImagingFrequency": 123.259,
  "InPlanePhaseEncodingDirectionDICOM": "COL",
  "InstitutionAddress": "Chemin Queen-Mary 4565,Montreal,District,CA,H3W 1W5",
  "InstitutionName": "IUGM",
  "InstitutionalDepartmentName": "Department",
  "MRAcquisitionType": "2D",
  "MagneticFieldStrength": 3,
  "Manufacturer": "Siemens",
  "ManufacturersModelName": "Prisma_fit",
  "MatrixCoilMode": "SENSE",
  "Modality": "MR",
  "MultibandAccelerationFactor": 4,
  "PartialFourier": 1,
  "PatientPosition": "HFS",
  "PercentPhaseFOV": 100,
  "PercentSampling": 100,
  "PhaseEncodingDirection": "j",
  "PhaseEncodingSteps": 104,
  "PhaseResolution": 1,
  "PixelBandwidth": 2290,
  "ProcedureStepDescription": "games^mario",
  "ProtocolName": "func_task-mario_run-04",
  "PulseSequenceDetails": "%CustomerSeq%\\cmrr_mbep2d_bold",
  "ReceiveCoilActiveElements": "HC1-7;NC1,2",
  "ReceiveCoilName": "HeadNeck_64",
  "ReconMatrixPE": 104,
  "RepetitionTime": 1.49,
  "SAR": 0.0485799,
  "ScanOptions": "FS",
  "ScanningSequence": "EP",
  "SequenceName": "epfid2d1_104",
  "SequenceVariant": "SK\\SS",
  "SeriesDescription": "func_task-mario_run-04",
  "SeriesNumber": 19,
  "ShimSetting": [633, -7205, -8805, 703, 39, 3, 83, -11],
  "SliceThickness": 2,
  "SliceTiming": [0, 0.7825, 0.0975, 0.88, 0.195, 0.98, 0.2925, 1.0775, 0.39, 1.175, 0.49, 1.2725, 0.5875, 1.37, 0.685, 0, 0.7825, 0.0975, 0.88, 0.195, 0.98, 0.2925, 1.0775, 0.39, 1.175, 0.49, 1.2725, 0.5875, 1.37, 0.685, 0, 0.7825, 0.0975, 0.88, 0.195, 0.98, 0.2925, 1.0775, 0.39, 1.175, 0.49, 1.2725, 0.5875, 1.37, 0.685, 0, 0.7825, 0.0975, 0.88, 0.195, 0.98, 0.2925, 1.0775, 0.39, 1.175, 0.49, 1.2725, 0.5875, 1.37, 0.685],
  "SoftwareVersions": "syngo MR E11",
  "SpacingBetweenSlices": 2,
  "StationName": "MRC35049",
  "TaskName": "mario",
  "TotalReadoutTime": 0.0576811,
  "TxRefAmp": 235.627,
  "WipMemBlock": "eb332da5-04a6-4f40-8c17-eb1501405739||Sequence: R016 ve11c/master r/e634e98; Dec 19 2017 11:00:25 by eja",
  "dcmmeta_affine": [
    [-1.9986902475357056, -0.023024167865514755, 0.0686103105545044, 108.17460632324219],
    [-0.03878864273428917, 1.941550612449646, -0.47841042280197144, -72.67463684082031],
    [0.06109769642353058, 0.4794277548789978, 1.9407256841659546, -66.2822494506836],
    [0.0, 0.0, 0.0, 1.0]
],
  "dcmmeta_reorient_transform": [
    [0.0, -1.0, 0.0, 103.0],
    [1.0, 0.0, 0.0, 0.0],
    [0.0, 0.0, 1.0, 0.0],
    [0.0, 0.0, 0.0, 1.0]
],
  "dcmmeta_shape": [104, 104, 60, 474],
  "dcmmeta_slice_dim": 2,
  "dcmmeta_version": 0.6,
  "global": {
    "const": {
      "AcquisitionMatrix": [104, 0, 0, 104],
      "AngioFlag": "N",
      "BitsAllocated": 16,
      "BitsStored": 16,
      "BodyPartExamined": "BRAIN",
      "Columns": 832,
      "EchoNumbers": 1,
      "EchoTime": 37.0,
      "EchoTrainLength": 104,
      "FlipAngle": 52.0,
      "HighBit": 15,
      "ImageOrientationPatient": [0.99934509962763, 0.01939432097377, 0.03054884881987, -0.0115120842382, 0.97077532185677, -0.2397138844339],
      "ImagePositionPatient": [-824.94555573298, -848.14857928215, 135.37095935009],
      "ImageType": [
        "ORIGINAL",
        "PRIMARY",
        "M",
        "MB",
        "ND",
        "MOSAIC"
],
      "ImagedNucleus": "1H",
      "ImagingFrequency": 123.258896,
      "InPlanePhaseEncodingDirection": "COL",
      "MRAcquisitionType": "2D",
      "MagneticFieldStrength": 3.0,
      "Manufacturer": "SIEMENS",
      "ManufacturerModelName": "Prisma_fit",
      "Modality": "MR",
      "NumberOfAverages": 1.0,
      "NumberOfPhaseEncodingSteps": 104,
      "PercentPhaseFieldOfView": 100.0,
      "PercentSampling": 100.0,
      "PerformedProcedureStepStartTime": "115539.037000",
      "PhotometricInterpretation": "MONOCHROME2",
      "PixelBandwidth": 2290.0,
      "PixelRepresentation": 0,
      "PixelSpacing": [2.0, 2.0],
      "ProtocolName": "func_task-mario_run-04",
      "RepetitionTime": 1490.0,
      "Rows": 832,
      "SAR": 0.04857994976562,
      "SamplesPerPixel": 1,
      "ScanOptions": "FS",
      "ScanningSequence": "EP",
      "SequenceName": "epfid2d1_104",
      "SequenceVariant": [
        "SK",
        "SS"
],
      "SeriesDescription": "func_task-mario_run-04",
      "SeriesNumber": 19,
      "SeriesTime": "140632.888000",
      "SliceLocation": -43.222729458664,
      "SliceThickness": 2.0,
      "SmallestImagePixelValue": 0,
      "SoftwareVersions": "syngo MR E11",
      "SpacingBetweenSlices": 2.0000000223515,
      "SpecificCharacterSet": "ISO_IR 100",
      "StudyID": "1",
      "StudyTime": "115538.959000",
      "TransmitCoilName": "Body",
      "VariableFlipAngleFlag": "N",
      "WindowCenterWidthExplanation": "Algo1",
      "dBdt": 0.0},
    "slices": {}
  },
  "time": {
    "samples": {
      "AcquisitionNumber": [1, 2, 3, 4, 5, 6, 7, 8, 9, 10, 11, 12, 13, 14, 15, 16, 17, 18, 19, 20, 21, 22, 23, 24, 25, 26, 27, 28, 29, 30, 31, 32, 33, 34, 35, 36, 37, 38, 39, 40, 41, 42, 43, 44, 45, 46, 47, 48, 49, 50, 51, 52, 53, 54, 55, 56, 57, 58, 59, 60, 61, 62, 63, 64, 65, 66, 67, 68, 69, 70, 71, 72, 73, 74, 75, 76, 77, 78, 79, 80, 81, 82, 83, 84, 85, 86, 87, 88, 89, 90, 91, 92, 93, 94, 95, 96, 97, 98, 99, 100, 101, 102, 103, 104, 105, 106, 107, 108, 109, 110, 111, 112, 113, 114, 115, 116, 117, 118, 119, 120, 121, 122, 123, 124, 125, 126, 127, 128, 129, 130, 131, 132, 133, 134, 135, 136, 137, 138, 139, 140, 141, 142, 143, 144, 145, 146, 147, 148, 149, 150, 151, 152, 153, 154, 155, 156, 157, 158, 159, 160, 161, 162, 163, 164, 165, 166, 167, 168, 169, 170, 171, 172, 173, 174, 175, 176, 177, 178, 179, 180, 181, 182, 183, 184, 185, 186, 187, 188, 189, 190, 191, 192, 193, 194, 195, 196, 197, 198, 199, 200, 201, 202, 203, 204, 205, 206, 207, 208, 209, 210, 211, 212, 213, 214, 215, 216, 217, 218, 219, 220, 221, 222, 223, 224, 225, 226, 227, 228, 229, 230, 231, 232, 233, 234, 235, 236, 237, 238, 239, 240, 241, 242, 243, 244, 245, 246, 247, 248, 249, 250, 251, 252, 253, 254, 255, 256, 257, 258, 259, 260, 261, 262, 263, 264, 265, 266, 267, 268, 269, 270, 271, 272, 273, 274, 275, 276, 277, 278, 279, 280, 281, 282, 283, 284, 285, 286, 287, 288, 289, 290, 291, 292, 293, 294, 295, 296, 297, 298, 299, 300, 301, 302, 303, 304, 305, 306, 307, 308, 309, 310, 311, 312, 313, 314, 315, 316, 317, 318, 319, 320, 321, 322, 323, 324, 325, 326, 327, 328, 329, 330, 331, 332, 333, 334, 335, 336, 337, 338, 339, 340, 341, 342, 343, 344, 345, 346, 347, 348, 349, 350, 351, 352, 353, 354, 355, 356, 357, 358, 359, 360, 361, 362, 363, 364, 365, 366, 367, 368, 369, 370, 371, 372, 373, 374, 375, 376, 377, 378, 379, 380, 381, 382, 383, 384, 385, 386, 387, 388, 389, 390, 391, 392, 393, 394, 395, 396, 397, 398, 399, 400, 401, 402, 403, 404, 405, 406, 407, 408, 409, 410, 411, 412, 413, 414, 415, 416, 417, 418, 419, 420, 421, 422, 423, 424, 425, 426, 427, 428, 429, 430, 431, 432, 433, 434, 435, 436, 437, 438, 439, 440, 441, 442, 443, 444, 445, 446, 447, 448, 449, 450, 451, 452, 453, 454, 455, 456, 457, 458, 459, 460, 461, 462, 463, 464, 465, 466, 467, 468, 469, 470, 471, 472, 473, 474],
      "AcquisitionTime": ["140525.392500", "140526.882500", "140528.372500", "140529.862500", "140531.352500", "140532.842500", "140534.332500", "140535.822500", "140537.312500", "140538.802500", "140540.292500", "140541.782500", "140543.272500", "140544.762500", "140546.252500", "140547.742500", "140549.232500", "140550.722500", "140552.212500", "140553.702500", "140555.192500", "140556.682500", "140558.172500", "140559.662500", "140601.152500", "140602.642500", "140604.132500", "140605.622500", "140607.112500", "140608.602500", "140610.092500", "140611.582500", "140613.072500", "140614.562500", "140616.052500", "140617.542500", "140619.032500", "140620.522500", "140622.012500", "140623.502500", "140624.992500", "140626.482500", "140627.972500", "140629.462500", "140630.952500", "140632.442500", "140633.932500", "140635.422500", "140636.912500", "140638.402500", "140639.892500", "140641.382500", "140642.872500", "140644.362500", "140645.852500", "140647.342500", "140648.832500", "140650.322500", "140651.812500", "140653.302500", "140654.792500", "140656.282500", "140657.772500", "140659.262500", "140700.752500", "140702.242500", "140703.732500", "140705.222500", "140706.712500", "140708.202500", "140709.692500", "140711.182500", "140712.672500", "140714.162500", "140715.652500", "140717.142500", "140718.632500", "140720.122500", "140721.612500", "140723.102500", "140724.592500", "140726.082500", "140727.572500", "140729.062500", "140730.552500", "140732.042500", "140733.532500", "140735.022500", "140736.512500", "140738.002500", "140739.492500", "140740.982500", "140742.472500", "140743.962500", "140745.452500", "140746.942500", "140748.432500", "140749.922500", "140751.412500", "140752.902500", "140754.392500", "140755.882500", "140757.372500", "140758.862500", "140800.352500", "140801.842500", "140803.332500", "140804.822500", "140806.312500", "140807.802500", "140809.292500", "140810.782500", "140812.272500", "140813.762500", "140815.252500", "140816.742500", "140818.232500", "140819.722500", "140821.212500", "140822.702500", "140824.192500", "140825.682500", "140827.172500", "140828.662500", "140830.152500", "140831.642500", "140833.132500", "140834.622500", "140836.112500", "140837.602500", "140839.092500", "140840.582500", "140842.072500", "140843.562500", "140845.052500", "140846.542500", "140848.032500", "140849.522500", "140851.012500", "140852.502500", "140853.992500", "140855.482500", "140856.972500", "140858.462500", "140859.952500", "140901.442500", "140902.932500", "140904.422500", "140905.912500", "140907.402500", "140908.892500", "140910.382500", "140911.872500", "140913.362500", "140914.852500", "140916.342500", "140917.832500", "140919.322500", "140920.812500", "140922.302500", "140923.792500", "140925.282500", "140926.772500", "140928.262500", "140929.752500", "140931.242500", "140932.732500", "140934.222500", "140935.712500", "140937.202500", "140938.692500", "140940.182500", "140941.672500", "140943.162500", "140944.652500", "140946.142500", "140947.632500", "140949.122500", "140950.612500", "140952.102500", "140953.592500", "140955.082500", "140956.572500", "140958.062500", "140959.552500", "141001.042500", "141002.532500", "141004.022500", "141005.512500", "141007.002500", "141008.492500", "141009.982500", "141011.472500", "141012.962500", "141014.452500", "141015.942500", "141017.432500", "141018.922500", "141020.412500", "141021.902500", "141023.392500", "141024.882500", "141026.372500", "141027.862500", "141029.352500", "141030.842500", "141032.332500", "141033.822500", "141035.312500", "141036.802500", "141038.292500", "141039.782500", "141041.272500", "141042.762500", "141044.252500", "141045.742500", "141047.232500", "141048.722500", "141050.212500", "141051.702500", "141053.192500", "141054.682500", "141056.172500", "141057.662500", "141059.152500", "141100.642500", "141102.132500", "141103.622500", "141105.112500", "141106.602500", "141108.092500", "141109.582500", "141111.072500", "141112.562500", "141114.052500", "141115.542500", "141117.032500", "141118.522500", "141120.012500", "141121.502500", "141122.992500", "141124.482500", "141125.972500", "141127.462500", "141128.952500", "141130.442500", "141131.932500", "141133.422500", "141134.912500", "141136.402500", "141137.892500", "141139.382500", "141140.872500", "141142.362500", "141143.852500", "141145.342500", "141146.832500", "141148.322500", "141149.812500", "141151.302500", "141152.792500", "141154.282500", "141155.772500", "141157.262500", "141158.752500", "141200.242500", "141201.732500", "141203.222500", "141204.712500", "141206.202500", "141207.692500", "141209.182500", "141210.672500", "141212.162500", "141213.652500", "141215.142500", "141216.632500", "141218.122500", "141219.612500", "141221.102500", "141222.592500", "141224.082500", "141225.572500", "141227.062500", "141228.552500", "141230.042500", "141231.532500", "141233.022500", "141234.512500", "141236.002500", "141237.492500", "141238.982500", "141240.472500", "141241.962500", "141243.452500", "141244.942500", "141246.432500", "141247.922500", "141249.412500", "141250.902500", "141252.392500", "141253.882500", "141255.372500", "141256.862500", "141258.352500", "141259.842500", "141301.332500", "141302.822500", "141304.312500", "141305.802500", "141307.292500", "141308.782500", "141310.272500", "141311.762500", "141313.252500", "141314.742500", "141316.232500", "141317.722500", "141319.212500", "141320.702500", "141322.192500", "141323.682500", "141325.172500", "141326.662500", "141328.152500", "141329.642500", "141331.132500", "141332.622500", "141334.112500", "141335.602500", "141337.092500", "141338.582500", "141340.072500", "141341.562500", "141343.052500", "141344.542500", "141346.032500", "141347.522500", "141349.012500", "141350.502500", "141351.992500", "141353.482500", "141354.972500", "141356.462500", "141357.952500", "141359.442500", "141400.932500", "141402.422500", "141403.912500", "141405.402500", "141406.892500", "141408.382500", "141409.872500", "141411.362500", "141412.852500", "141414.342500", "141415.832500", "141417.322500", "141418.812500", "141420.302500", "141421.792500", "141423.282500", "141424.772500", "141426.262500", "141427.752500", "141429.242500", "141430.732500", "141432.222500", "141433.712500", "141435.202500", "141436.692500", "141438.182500", "141439.672500", "141441.162500", "141442.652500", "141444.142500", "141445.632500", "141447.122500", "141448.612500", "141450.102500", "141451.592500", "141453.082500", "141454.572500", "141456.062500", "141457.552500", "141459.042500", "141500.532500", "141502.022500", "141503.512500", "141505.002500", "141506.492500", "141507.982500", "141509.472500", "141510.962500", "141512.452500", "141513.942500", "141515.432500", "141516.922500", "141518.412500", "141519.902500", "141521.392500", "141522.882500", "141524.372500", "141525.862500", "141527.352500", "141528.842500", "141530.332500", "141531.822500", "141533.312500", "141534.802500", "141536.292500", "141537.782500", "141539.272500", "141540.762500", "141542.252500", "141543.742500", "141545.232500", "141546.722500", "141548.212500", "141549.702500", "141551.192500", "141552.682500", "141554.172500", "141555.662500", "141557.152500", "141558.642500", "141600.132500", "141601.622500", "141603.112500", "141604.602500", "141606.092500", "141607.582500", "141609.072500", "141610.562500", "141612.052500", "141613.542500", "141615.032500", "141616.522500", "141618.012500", "141619.502500", "141620.992500", "141622.482500", "141623.972500", "141625.462500", "141626.952500", "141628.442500", "141629.932500", "141631.422500", "141632.912500", "141634.402500", "141635.892500", "141637.382500", "141638.872500", "141640.362500", "141641.852500", "141643.342500", "141644.832500", "141646.322500", "141647.812500", "141649.302500", "141650.792500", "141652.282500", "141653.772500", "141655.262500", "141656.752500", "141658.242500", "141659.732500", "141701.222500", "141702.712500", "141704.202500", "141705.692500", "141707.182500", "141708.672500", "141710.162500"],
      "ContentTime": ["140632.892000", "140632.895000", "140632.899000", "140632.902000", "140632.905000", "140632.918000", "140632.921000", "140632.924000", "140632.928000", "140632.931000", "140632.934000", "140632.938000", "140632.941000", "140632.947000", "140652.845000", "140652.849000", "140652.852000", "140652.855000", "140652.859000", "140652.862000", "140652.865000", "140652.868000", "140652.872000", "140652.875000", "140652.878000", "140652.881000", "140652.885000", "140652.888000", "140652.891000", "140652.895000", "140652.898000", "140652.901000", "140652.905000", "140652.918000", "140712.845000", "140712.849000", "140712.852000", "140712.855000", "140712.858000", "140712.862000", "140712.865000", "140712.868000", "140712.872000", "140712.875000", "140712.878000", "140712.881000", "140712.885000", "140712.888000", "140712.892000", "140712.895000", "140712.898000", "140712.901000", "140712.905000", "140712.908000", "140732.845000", "140732.849000", "140732.852000", "140732.855000", "140732.859000", "140732.862000", "140732.865000", "140732.869000", "140732.872000", "140732.875000", "140732.878000", "140732.882000", "140732.885000", "140732.888000", "140732.892000", "140732.895000", "140732.898000", "140732.902000", "140732.905000", "140732.908000", "140752.845000", "140752.849000", "140752.852000", "140752.855000", "140752.858000", "140752.862000", "140752.872000", "140752.876000", "140752.879000", "140752.882000", "140752.886000", "140752.889000", "140752.892000", "140752.895000", "140752.899000", "140752.902000", "140752.906000", "140752.909000", "140752.912000", "140752.916000", "140832.845000", "140832.849000", "140832.852000", "140832.855000", "140832.859000", "140832.862000", "140832.865000", "140832.869000", "140832.872000", "140832.875000", "140832.879000", "140832.882000", "140832.885000", "140832.889000", "140832.892000", "140832.895000", "140832.898000", "140832.902000", "140832.905000", "140832.908000", "140832.912000", "140832.915000", "140832.918000", "140832.922000", "140832.925000", "140832.928000", "140832.932000", "140832.935000", "140832.938000", "140832.942000", "140832.945000", "140912.845000", "140912.923000", "140912.927000", "140912.930000", "140912.933000", "140912.937000", "140912.940000", "140912.943000", "140912.947000", "140912.950000", "140912.953000", "140912.957000", "140912.978000", "140912.981000", "140912.985000", "140912.988000", "140912.991000", "140912.994000", "140912.998000", "140913.001000", "140913.005000", "140913.008000", "140913.011000", "140913.015000", "140913.018000", "140913.021000", "140913.024000", "140952.845000", "140952.849000", "140952.852000", "140952.856000", "140952.867000", "140952.870000", "140952.874000", "140952.877000", "140952.881000", "140952.884000", "140952.887000", "140952.891000", "140952.894000", "140952.897000", "140952.900000", "140952.904000", "140952.907000", "140952.910000", "140952.914000", "140952.917000", "140952.920000", "140952.924000", "140952.927000", "140952.930000", "140952.933000", "140952.937000", "140952.940000", "141032.845000", "141032.849000", "141032.852000", "141032.856000", "141032.859000", "141032.862000", "141032.865000", "141032.869000", "141032.872000", "141032.876000", "141032.879000", "141032.882000", "141032.886000", "141032.889000", "141032.893000", "141032.896000", "141032.900000", "141032.904000", "141032.908000", "141032.911000", "141032.915000", "141032.919000", "141032.923000", "141032.926000", "141032.930000", "141032.933000", "141112.844000", "141112.848000", "141112.851000", "141112.855000", "141112.858000", "141112.861000", "141112.865000", "141112.868000", "141112.872000", "141112.875000", "141112.878000", "141112.882000", "141112.885000", "141112.888000", "141112.892000", "141112.895000", "141112.899000", "141112.902000", "141112.905000", "141112.909000", "141112.912000", "141112.915000", "141112.919000", "141112.922000", "141112.926000", "141112.929000", "141112.932000", "141152.845000", "141152.849000", "141152.852000", "141152.855000", "141152.859000", "141152.862000", "141152.865000", "141152.869000", "141152.872000", "141152.876000", "141152.879000", "141152.882000", "141152.886000", "141152.889000", "141152.893000", "141152.896000", "141152.899000", "141152.903000", "141152.906000", "141152.909000", "141152.913000", "141152.916000", "141152.919000", "141152.923000", "141152.926000", "141152.930000", "141152.933000", "141232.845000", "141232.849000", "141232.852000", "141232.855000", "141232.859000", "141232.862000", "141232.866000", "141232.869000", "141232.872000", "141232.876000", "141232.879000", "141232.883000", "141232.886000", "141232.889000", "141232.893000", "141232.896000", "141232.899000", "141232.903000", "141232.906000", "141232.910000", "141232.913000", "141232.916000", "141232.920000", "141232.923000", "141232.926000", "141232.930000", "141232.933000", "141312.845000", "141312.849000", "141312.852000", "141312.855000", "141312.859000", "141312.863000", "141312.866000", "141312.869000", "141312.873000", "141312.876000", "141312.880000", "141312.883000", "141312.887000", "141312.890000", "141312.893000", "141312.897000", "141312.900000", "141312.904000", "141312.907000", "141312.910000", "141312.914000", "141312.917000", "141312.920000", "141312.924000", "141312.927000", "141312.930000", "141312.934000", "141352.845000", "141352.849000", "141352.852000", "141352.856000", "141352.859000", "141352.878000", "141352.882000", "141352.885000", "141352.888000", "141352.892000", "141352.895000", "141352.898000", "141352.902000", "141352.905000", "141352.908000", "141352.912000", "141352.915000", "141352.918000", "141352.922000", "141352.925000", "141352.929000", "141352.932000", "141352.936000", "141352.939000", "141352.942000", "141352.945000", "141352.949000", "141432.845000", "141432.849000", "141432.852000", "141432.856000", "141432.859000", "141432.863000", "141432.866000", "141432.870000", "141432.873000", "141432.876000", "141432.880000", "141432.883000", "141432.887000", "141432.890000", "141432.893000", "141432.897000", "141432.900000", "141432.903000", "141432.907000", "141432.910000", "141432.914000", "141432.919000", "141432.922000", "141432.925000", "141432.929000", "141432.932000", "141432.936000", "141512.845000", "141512.849000", "141512.852000", "141512.856000", "141512.859000", "141512.862000", "141512.866000", "141512.869000", "141512.872000", "141512.876000", "141512.879000", "141512.883000", "141512.886000", "141512.890000", "141512.893000", "141512.896000", "141512.900000", "141512.903000", "141512.907000", "141512.910000", "141512.913000", "141512.917000", "141512.924000", "141512.927000", "141512.931000", "141512.934000", "141552.844000", "141552.848000", "141552.851000", "141552.854000", "141552.858000", "141552.861000", "141552.864000", "141552.868000", "141552.871000", "141552.874000", "141552.878000", "141552.881000", "141552.884000", "141552.888000", "141552.891000", "141552.894000", "141552.898000", "141552.901000", "141552.904000", "141552.908000", "141552.911000", "141552.914000", "141552.917000", "141552.921000", "141552.924000", "141552.941000", "141552.944000", "141632.845000", "141632.849000", "141632.852000", "141632.856000", "141632.859000", "141632.862000", "141632.866000", "141632.869000", "141632.872000", "141632.876000", "141632.879000", "141632.882000", "141632.885000", "141632.889000", "141632.892000", "141632.895000", "141632.899000", "141632.902000", "141632.906000", "141632.910000", "141632.913000", "141632.916000", "141632.920000", "141632.923000", "141632.926000", "141632.930000", "141632.933000", "141712.728000", "141712.732000", "141712.735000", "141712.738000", "141712.742000", "141712.745000", "141712.749000", "141712.752000", "141712.755000", "141712.759000", "141712.762000", "141712.765000", "141712.769000", "141712.785000", "141712.789000", "141712.792000", "141712.795000", "141712.799000", "141712.802000", "141712.806000", "141712.809000", "141712.812000", "141712.816000", "141712.819000", "141712.822000", "141712.826000", "141712.829000"],
