{
  "AcquisitionMatrixPE": 104,
  "AcquisitionNumber": 1,
  "AcquisitionTime": "13:37:40.257500",
  "BandwidthPerPixelPhaseEncode": 17.17,
  "BaseResolution": 104,
  "BodyPartExamined": "BRAIN",
  "CoilCombinationMethod": "Sum of Squares",
  "ConsistencyInfo": "N4_VE11C_LATEST_20160120",
  "ConversionSoftware": "dcm2niix",
  "ConversionSoftwareVersion": "v1.0.20211006",
  "DerivedVendorReportedEchoSpacing": 0.000560011,
  "DeviceSerialNumber": "167006",
  "DwellTime": 2.1e-06,
  "EchoTime": 0.037,
  "EchoTrainLength": 104,
  "EffectiveEchoSpacing": 0.000560011,
  "FlipAngle": 52,
  "HeudiconvVersion": "0.10.0",
  "ImageComments": "Unaliased MB4/PE3/LB",
  "ImageOrientationPatientDICOM": [0.999345, 0.0193943, 0.0305488, -0.0115121, 0.970775, -0.239714],
  "ImageOrientationText": "Tra>Cor(-13.8)>Sag(2.0)",
  "ImageType": [
    "ORIGINAL",
    "PRIMARY",
    "M",
    "MB",
    "ND",
    "MOSAIC"
],
  "ImagingFrequency": 123.259,
  "InPlanePhaseEncodingDirectionDICOM": "COL",
  "InstitutionAddress": "Chemin Queen-Mary 4565,Montreal,District,CA,H3W 1W5",
  "InstitutionName": "IUGM",
  "InstitutionalDepartmentName": "Department",
  "MRAcquisitionType": "2D",
  "MagneticFieldStrength": 3,
  "Manufacturer": "Siemens",
  "ManufacturersModelName": "Prisma_fit",
  "MatrixCoilMode": "SENSE",
  "Modality": "MR",
  "MultibandAccelerationFactor": 4,
  "PartialFourier": 1,
  "PatientPosition": "HFS",
  "PercentPhaseFOV": 100,
  "PercentSampling": 100,
  "PhaseEncodingDirection": "j",
  "PhaseEncodingSteps": 104,
  "PhaseResolution": 1,
  "PixelBandwidth": 2290,
  "ProcedureStepDescription": "games^mario",
  "ProtocolName": "func_task-mario_run-02",
  "PulseSequenceDetails": "%CustomerSeq%\\cmrr_mbep2d_bold",
  "ReceiveCoilActiveElements": "HC1-7;NC1,2",
  "ReceiveCoilName": "HeadNeck_64",
  "ReconMatrixPE": 104,
  "RepetitionTime": 1.49,
  "SAR": 0.0485799,
  "ScanOptions": "FS",
  "ScanningSequence": "EP",
  "SequenceName": "epfid2d1_104",
  "SequenceVariant": "SK\\SS",
  "SeriesDescription": "func_task-mario_run-02",
  "SeriesNumber": 13,
  "ShimSetting": [633, -7205, -8805, 703, 39, 3, 83, -11],
  "SliceThickness": 2,
  "SliceTiming": [0, 0.785, 0.1, 0.8825, 0.1975, 0.98, 0.295, 1.08, 0.3925, 1.1775, 0.49, 1.275, 0.59, 1.3725, 0.6875, 0, 0.785, 0.1, 0.8825, 0.1975, 0.98, 0.295, 1.08, 0.3925, 1.1775, 0.49, 1.275, 0.59, 1.3725, 0.6875, 0, 0.785, 0.1, 0.8825, 0.1975, 0.98, 0.295, 1.08, 0.3925, 1.1775, 0.49, 1.275, 0.59, 1.3725, 0.6875, 0, 0.785, 0.1, 0.8825, 0.1975, 0.98, 0.295, 1.08, 0.3925, 1.1775, 0.49, 1.275, 0.59, 1.3725, 0.6875],
  "SoftwareVersions": "syngo MR E11",
  "SpacingBetweenSlices": 2,
  "StationName": "MRC35049",
  "TaskName": "mario",
  "TotalReadoutTime": 0.0576811,
  "TxRefAmp": 235.627,
  "WipMemBlock": "edd36ef8-51ca-4581-8854-5571ea905630||Sequence: R016 ve11c/master r/e634e98; Dec 19 2017 11:00:25 by eja",
  "dcmmeta_affine": [
    [-1.9986902475357056, -0.023024167865514755, 0.0686103105545044, 108.17460632324219],
    [-0.03878864273428917, 1.941550612449646, -0.47841042280197144, -72.67463684082031],
    [0.06109769642353058, 0.4794277548789978, 1.9407256841659546, -66.2822494506836],
    [0.0, 0.0, 0.0, 1.0]
],
  "dcmmeta_reorient_transform": [
    [0.0, -1.0, 0.0, 103.0],
    [1.0, 0.0, 0.0, 0.0],
    [0.0, 0.0, 1.0, 0.0],
    [0.0, 0.0, 0.0, 1.0]
],
  "dcmmeta_shape": [104, 104, 60, 484],
  "dcmmeta_slice_dim": 2,
  "dcmmeta_version": 0.6,
  "global": {
    "const": {
      "AcquisitionMatrix": [104, 0, 0, 104],
      "AngioFlag": "N",
      "BitsAllocated": 16,
      "BitsStored": 16,
      "BodyPartExamined": "BRAIN",
      "Columns": 832,
      "EchoNumbers": 1,
      "EchoTime": 37.0,
      "EchoTrainLength": 104,
      "FlipAngle": 52.0,
      "HighBit": 15,
      "ImageOrientationPatient": [0.99934509962763, 0.01939432097377, 0.03054884881987, -0.0115120842382, 0.97077532185677, -0.2397138844339],
      "ImagePositionPatient": [-824.94555573298, -848.14857928215, 135.37095935009],
      "ImageType": [
        "ORIGINAL",
        "PRIMARY",
        "M",
        "MB",
        "ND",
        "MOSAIC"
],
      "ImagedNucleus": "1H",
      "ImagingFrequency": 123.258885,
      "InPlanePhaseEncodingDirection": "COL",
      "MRAcquisitionType": "2D",
      "MagneticFieldStrength": 3.0,
      "Manufacturer": "SIEMENS",
      "ManufacturerModelName": "Prisma_fit",
      "Modality": "MR",
      "NumberOfAverages": 1.0,
      "NumberOfPhaseEncodingSteps": 104,
      "PercentPhaseFieldOfView": 100.0,
      "PercentSampling": 100.0,
      "PerformedProcedureStepStartTime": "115539.037000",
      "PhotometricInterpretation": "MONOCHROME2",
      "PixelBandwidth": 2290.0,
      "PixelRepresentation": 0,
      "PixelSpacing": [2.0, 2.0],
      "ProtocolName": "func_task-mario_run-02",
      "RepetitionTime": 1490.0,
      "Rows": 832,
      "SAR": 0.04857994976562,
      "SamplesPerPixel": 1,
      "ScanOptions": "FS",
      "ScanningSequence": "EP",
      "SequenceName": "epfid2d1_104",
      "SequenceVariant": [
        "SK",
        "SS"
],
      "SeriesDescription": "func_task-mario_run-02",
      "SeriesNumber": 13,
      "SeriesTime": "133855.144000",
      "SliceLocation": -43.222729458664,
      "SliceThickness": 2.0,
      "SmallestImagePixelValue": 0,
      "SoftwareVersions": "syngo MR E11",
      "SpacingBetweenSlices": 2.0000000223515,
      "SpecificCharacterSet": "ISO_IR 100",
      "StudyID": "1",
      "StudyTime": "115538.959000",
      "TransmitCoilName": "Body",
      "VariableFlipAngleFlag": "N",
      "WindowCenterWidthExplanation": "Algo1",
      "dBdt": 0.0},
    "slices": {}
  },
  "time": {
    "samples": {
      "AcquisitionNumber": [1, 2, 3, 4, 5, 6, 7, 8, 9, 10, 11, 12, 13, 14, 15, 16, 17, 18, 19, 20, 21, 22, 23, 24, 25, 26, 27, 28, 29, 30, 31, 32, 33, 34, 35, 36, 37, 38, 39, 40, 41, 42, 43, 44, 45, 46, 47, 48, 49, 50, 51, 52, 53, 54, 55, 56, 57, 58, 59, 60, 61, 62, 63, 64, 65, 66, 67, 68, 69, 70, 71, 72, 73, 74, 75, 76, 77, 78, 79, 80, 81, 82, 83, 84, 85, 86, 87, 88, 89, 90, 91, 92, 93, 94, 95, 96, 97, 98, 99, 100, 101, 102, 103, 104, 105, 106, 107, 108, 109, 110, 111, 112, 113, 114, 115, 116, 117, 118, 119, 120, 121, 122, 123, 124, 125, 126, 127, 128, 129, 130, 131, 132, 133, 134, 135, 136, 137, 138, 139, 140, 141, 142, 143, 144, 145, 146, 147, 148, 149, 150, 151, 152, 153, 154, 155, 156, 157, 158, 159, 160, 161, 162, 163, 164, 165, 166, 167, 168, 169, 170, 171, 172, 173, 174, 175, 176, 177, 178, 179, 180, 181, 182, 183, 184, 185, 186, 187, 188, 189, 190, 191, 192, 193, 194, 195, 196, 197, 198, 199, 200, 201, 202, 203, 204, 205, 206, 207, 208, 209, 210, 211, 212, 213, 214, 215, 216, 217, 218, 219, 220, 221, 222, 223, 224, 225, 226, 227, 228, 229, 230, 231, 232, 233, 234, 235, 236, 237, 238, 239, 240, 241, 242, 243, 244, 245, 246, 247, 248, 249, 250, 251, 252, 253, 254, 255, 256, 257, 258, 259, 260, 261, 262, 263, 264, 265, 266, 267, 268, 269, 270, 271, 272, 273, 274, 275, 276, 277, 278, 279, 280, 281, 282, 283, 284, 285, 286, 287, 288, 289, 290, 291, 292, 293, 294, 295, 296, 297, 298, 299, 300, 301, 302, 303, 304, 305, 306, 307, 308, 309, 310, 311, 312, 313, 314, 315, 316, 317, 318, 319, 320, 321, 322, 323, 324, 325, 326, 327, 328, 329, 330, 331, 332, 333, 334, 335, 336, 337, 338, 339, 340, 341, 342, 343, 344, 345, 346, 347, 348, 349, 350, 351, 352, 353, 354, 355, 356, 357, 358, 359, 360, 361, 362, 363, 364, 365, 366, 367, 368, 369, 370, 371, 372, 373, 374, 375, 376, 377, 378, 379, 380, 381, 382, 383, 384, 385, 386, 387, 388, 389, 390, 391, 392, 393, 394, 395, 396, 397, 398, 399, 400, 401, 402, 403, 404, 405, 406, 407, 408, 409, 410, 411, 412, 413, 414, 415, 416, 417, 418, 419, 420, 421, 422, 423, 424, 425, 426, 427, 428, 429, 430, 431, 432, 433, 434, 435, 436, 437, 438, 439, 440, 441, 442, 443, 444, 445, 446, 447, 448, 449, 450, 451, 452, 453, 454, 455, 456, 457, 458, 459, 460, 461, 462, 463, 464, 465, 466, 467, 468, 469, 470, 471, 472, 473, 474, 475, 476, 477, 478, 479, 480, 481, 482, 483, 484],
      "AcquisitionTime": ["133740.257500", "133741.747500", "133743.237500", "133744.727500", "133746.217500", "133747.707500", "133749.197500", "133750.687500", "133752.177500", "133753.667500", "133755.157500", "133756.647500", "133758.137500", "133759.627500", "133801.117500", "133802.607500", "133804.097500", "133805.587500", "133807.077500", "133808.567500", "133810.057500", "133811.547500", "133813.037500", "133814.527500", "133816.017500", "133817.507500", "133818.997500", "133820.487500", "133821.977500", "133823.467500", "133824.957500", "133826.447500", "133827.937500", "133829.427500", "133830.917500", "133832.407500", "133833.897500", "133835.387500", "133836.877500", "133838.367500", "133839.857500", "133841.347500", "133842.837500", "133844.327500", "133845.817500", "133847.307500", "133848.797500", "133850.287500", "133851.777500", "133853.267500", "133854.757500", "133856.247500", "133857.737500", "133859.227500", "133900.717500", "133902.207500", "133903.697500", "133905.187500", "133906.677500", "133908.167500", "133909.657500", "133911.147500", "133912.637500", "133914.127500", "133915.617500", "133917.107500", "133918.597500", "133920.087500", "133921.577500", "133923.067500", "133924.557500", "133926.047500", "133927.537500", "133929.027500", "133930.517500", "133932.007500", "133933.497500", "133934.987500", "133936.477500", "133937.967500", "133939.457500", "133940.947500", "133942.437500", "133943.927500", "133945.417500", "133946.907500", "133948.397500", "133949.887500", "133951.377500", "133952.867500", "133954.357500", "133955.847500", "133957.337500", "133958.827500", "134000.317500", "134001.807500", "134003.297500", "134004.787500", "134006.277500", "134007.767500", "134009.257500", "134010.747500", "134012.237500", "134013.727500", "134015.217500", "134016.707500", "134018.197500", "134019.687500", "134021.177500", "134022.667500", "134024.157500", "134025.647500", "134027.137500", "134028.627500", "134030.117500", "134031.607500", "134033.097500", "134034.587500", "134036.077500", "134037.567500", "134039.057500", "134040.547500", "134042.037500", "134043.527500", "134045.017500", "134046.507500", "134047.997500", "134049.487500", "134050.977500", "134052.467500", "134053.957500", "134055.447500", "134056.937500", "134058.427500", "134059.917500", "134101.407500", "134102.897500", "134104.387500", "134105.877500", "134107.367500", "134108.857500", "134110.347500", "134111.837500", "134113.327500", "134114.817500", "134116.307500", "134117.797500", "134119.287500", "134120.777500", "134122.267500", "134123.757500", "134125.247500", "134126.737500", "134128.227500", "134129.717500", "134131.207500", "134132.697500", "134134.187500", "134135.677500", "134137.167500", "134138.657500", "134140.147500", "134141.637500", "134143.127500", "134144.617500", "134146.107500", "134147.597500", "134149.087500", "134150.577500", "134152.067500", "134153.557500", "134155.047500", "134156.537500", "134158.027500", "134159.517500", "134201.007500", "134202.497500", "134203.987500", "134205.477500", "134206.967500", "134208.457500", "134209.947500", "134211.437500", "134212.927500", "134214.417500", "134215.907500", "134217.397500", "134218.887500", "134220.377500", "134221.867500", "134223.357500", "134224.847500", "134226.337500", "134227.827500", "134229.317500", "134230.807500", "134232.297500", "134233.787500", "134235.277500", "134236.767500", "134238.257500", "134239.747500", "134241.237500", "134242.727500", "134244.217500", "134245.707500", "134247.197500", "134248.687500", "134250.177500", "134251.667500", "134253.157500", "134254.647500", "134256.137500", "134257.627500", "134259.117500", "134300.607500", "134302.097500", "134303.587500", "134305.077500", "134306.567500", "134308.057500", "134309.547500", "134311.037500", "134312.527500", "134314.017500", "134315.507500", "134316.997500", "134318.487500", "134319.977500", "134321.467500", "134322.957500", "134324.447500", "134325.937500", "134327.427500", "134328.917500", "134330.407500", "134331.897500", "134333.387500", "134334.877500", "134336.367500", "134337.857500", "134339.347500", "134340.837500", "134342.327500", "134343.817500", "134345.307500", "134346.797500", "134348.287500", "134349.777500", "134351.267500", "134352.757500", "134354.247500", "134355.737500", "134357.227500", "134358.717500", "134400.207500", "134401.697500", "134403.187500", "134404.677500", "134406.167500", "134407.657500", "134409.147500", "134410.637500", "134412.127500", "134413.617500", "134415.107500", "134416.597500", "134418.087500", "134419.577500", "134421.067500", "134422.557500", "134424.047500", "134425.537500", "134427.027500", "134428.517500", "134430.007500", "134431.497500", "134432.987500", "134434.477500", "134435.967500", "134437.457500", "134438.947500", "134440.437500", "134441.927500", "134443.417500", "134444.907500", "134446.397500", "134447.887500", "134449.377500", "134450.867500", "134452.357500", "134453.847500", "134455.337500", "134456.827500", "134458.317500", "134459.807500", "134501.297500", "134502.787500", "134504.277500", "134505.767500", "134507.257500", "134508.747500", "134510.237500", "134511.727500", "134513.217500", "134514.707500", "134516.197500", "134517.687500", "134519.177500", "134520.667500", "134522.157500", "134523.647500", "134525.137500", "134526.627500", "134528.117500", "134529.607500", "134531.097500", "134532.587500", "134534.077500", "134535.567500", "134537.057500", "134538.547500", "134540.037500", "134541.527500", "134543.017500", "134544.507500", "134545.997500", "134547.487500", "134548.977500", "134550.467500", "134551.957500", "134553.447500", "134554.937500", "134556.427500", "134557.917500", "134559.407500", "134600.897500", "134602.387500", "134603.877500", "134605.367500", "134606.857500", "134608.347500", "134609.837500", "134611.327500", "134612.817500", "134614.307500", "134615.797500", "134617.287500", "134618.777500", "134620.267500", "134621.757500", "134623.247500", "134624.737500", "134626.227500", "134627.717500", "134629.207500", "134630.697500", "134632.187500", "134633.677500", "134635.167500", "134636.657500", "134638.147500", "134639.637500", "134641.127500", "134642.617500", "134644.107500", "134645.597500", "134647.087500", "134648.577500", "134650.067500", "134651.557500", "134653.047500", "134654.537500", "134656.027500", "134657.517500", "134659.007500", "134700.497500", "134701.987500", "134703.477500", "134704.967500", "134706.457500", "134707.947500", "134709.437500", "134710.927500", "134712.417500", "134713.907500", "134715.397500", "134716.887500", "134718.377500", "134719.867500", "134721.357500", "134722.847500", "134724.337500", "134725.827500", "134727.317500", "134728.807500", "134730.297500", "134731.787500", "134733.277500", "134734.767500", "134736.257500", "134737.747500", "134739.237500", "134740.727500", "134742.217500", "134743.707500", "134745.197500", "134746.687500", "134748.177500", "134749.667500", "134751.157500", "134752.647500", "134754.137500", "134755.627500", "134757.117500", "134758.607500", "134800.097500", "134801.587500", "134803.077500", "134804.567500", "134806.057500", "134807.547500", "134809.037500", "134810.527500", "134812.017500", "134813.507500", "134814.997500", "134816.487500", "134817.977500", "134819.467500", "134820.957500", "134822.447500", "134823.937500", "134825.427500", "134826.917500", "134828.407500", "134829.897500", "134831.387500", "134832.877500", "134834.367500", "134835.857500", "134837.347500", "134838.837500", "134840.327500", "134841.817500", "134843.307500", "134844.797500", "134846.287500", "134847.777500", "134849.267500", "134850.757500", "134852.247500", "134853.737500", "134855.227500", "134856.717500", "134858.207500", "134859.697500", "134901.187500", "134902.677500", "134904.167500", "134905.657500", "134907.147500", "134908.637500", "134910.127500", "134911.617500", "134913.107500", "134914.597500", "134916.087500", "134917.577500", "134919.067500", "134920.557500", "134922.047500", "134923.537500", "134925.027500", "134926.517500", "134928.007500", "134929.497500", "134930.987500", "134932.477500", "134933.967500", "134935.457500", "134936.947500", "134938.437500", "134939.927500"],
      "ContentTime": ["133855.147000", "133855.151000", "133855.154000", "133855.157000", "133855.161000", "133855.164000", "133855.167000", "133855.171000", "133855.174000", "133855.177000", "133855.180000", "133855.184000", "133855.187000", "133855.190000", "133855.193000", "133855.197000", "133855.200000", "133855.212000", "133855.215000", "133855.218000", "133915.098000", "133915.102000", "133915.105000", "133915.109000", "133915.112000", "133915.115000", "133915.118000", "133915.122000", "133915.125000", "133915.128000", "133915.131000", "133915.135000", "133915.138000", "133915.141000", "133915.145000", "133915.148000", "133915.151000", "133915.155000", "133915.158000", "133915.161000", "133935.098000", "133935.102000", "133935.105000", "133935.109000", "133935.112000", "133935.115000", "133935.118000", "133935.122000", "133935.125000", "133935.128000", "133935.132000", "133935.135000", "133935.139000", "133935.142000", "133935.145000", "133935.148000", "133935.152000", "133935.155000", "133935.158000", "133935.162000", "133955.097000", "133955.101000", "133955.104000", "133955.108000", "133955.111000", "133955.114000", "133955.118000", "133955.121000", "133955.124000", "133955.128000", "133955.131000", "133955.134000", "133955.138000", "133955.141000", "133955.144000", "133955.148000", "133955.151000", "133955.154000", "133955.158000", "133955.161000", "134015.097000", "134015.101000", "134015.104000", "134015.107000", "134015.111000", "134015.114000", "134015.117000", "134015.121000", "134015.124000", "134015.127000", "134015.130000", "134015.134000", "134015.137000", "134015.140000", "134015.144000", "134015.147000", "134015.150000", "134015.153000", "134015.157000", "134015.160000", "134015.163000", "134055.097000", "134055.101000", "134055.104000", "134055.108000", "134055.111000", "134055.114000", "134055.118000", "134055.121000", "134055.125000", "134055.128000", "134055.131000", "134055.135000", "134055.138000", "134055.141000", "134055.144000", "134055.148000", "134055.151000", "134055.155000", "134055.158000", "134055.161000", "134055.164000", "134055.168000", "134055.171000", "134055.174000", "134055.193000", "134055.197000", "134055.200000", "134055.203000", "134055.207000", "134135.098000", "134135.102000", "134135.105000", "134135.108000", "134135.112000", "134135.115000", "134135.119000", "134135.122000", "134135.125000", "134135.128000", "134135.132000", "134135.135000", "134135.138000", "134135.142000", "134135.145000", "134135.148000", "134135.152000", "134135.155000", "134135.158000", "134135.162000", "134135.165000", "134135.168000", "134135.171000", "134135.175000", "134135.178000", "134135.181000", "134135.184000", "134215.097000", "134215.101000", "134215.104000", "134215.108000", "134215.111000", "134215.114000", "134215.117000", "134215.121000", "134215.124000", "134215.127000", "134215.131000", "134215.134000", "134215.137000", "134215.141000", "134215.144000", "134215.147000", "134215.150000", "134215.154000", "134215.157000", "134215.160000", "134215.164000", "134215.167000", "134215.170000", "134215.173000", "134215.177000", "134215.180000", "134215.183000", "134255.097000", "134255.101000", "134255.104000", "134255.108000", "134255.111000", "134255.114000", "134255.118000", "134255.121000", "134255.124000", "134255.128000", "134255.131000", "134255.134000", "134255.138000", "134255.141000", "134255.144000", "134255.147000", "134255.151000", "134255.154000", "134255.157000", "134255.161000", "134255.164000", "134255.167000", "134255.171000", "134255.174000", "134255.177000", "134255.180000", "134255.184000", "134335.099000", "134335.103000", "134335.106000", "134335.121000", "134335.125000", "134335.129000", "134335.133000", "134335.136000", "134335.140000", "134335.143000", "134335.147000", "134335.150000", "134335.153000", "134335.157000", "134335.160000", "134335.164000", "134335.167000", "134335.170000", "134335.174000", "134335.177000", "134335.180000", "134335.183000", "134335.187000", "134335.190000", "134335.193000", "134335.197000", "134355.098000", "134355.102000", "134355.105000", "134355.109000", "134355.112000", "134355.115000", "134355.119000", "134355.122000", "134355.125000", "134355.128000", "134355.132000", "134355.135000", "134355.138000", "134355.142000", "134435.097000", "134435.101000", "134435.104000", "134435.108000", "134435.111000", "134435.114000", "134435.117000", "134435.121000", "134435.124000", "134435.127000", "134435.131000", "134435.134000", "134435.137000", "134435.141000", "134435.144000", "134435.147000", "134435.151000", "134435.154000", "134435.157000", "134435.160000", "134435.164000", "134435.167000", "134435.170000", "134435.174000", "134435.177000", "134435.180000", "134435.183000", "134515.097000", "134515.101000", "134515.104000", "134515.108000", "134515.111000", "134515.114000", "134515.118000", "134515.121000", "134515.124000", "134515.128000", "134515.131000", "134515.134000", "134515.138000", "134515.141000", "134515.144000", "134515.147000", "134515.151000", "134515.154000", "134515.157000", "134515.161000", "134515.164000", "134515.167000", "134515.170000", "134515.174000", "134515.177000", "134515.180000", "134515.184000", "134555.098000", "134555.102000", "134555.105000", "134555.109000", "134555.112000", "134555.115000", "134555.119000", "134555.122000", "134555.125000", "134555.129000", "134555.132000", "134555.135000", "134555.139000", "134555.142000", "134555.145000", "134555.149000", "134555.152000", "134555.155000", "134555.158000", "134555.162000", "134555.166000", "134555.170000", "134555.173000", "134555.177000", "134555.181000", "134555.185000", "134635.097000", "134635.101000", "134635.104000", "134635.108000", "134635.119000", "134635.122000", "134635.126000", "134635.129000", "134635.133000", "134635.136000", "134635.140000", "134635.143000", "134635.146000", "134635.150000", "134635.153000", "134635.156000", "134635.160000", "134635.163000", "134635.166000", "134635.170000", "134635.173000", "134635.176000", "134635.179000", "134635.183000", "134635.186000", "134635.189000", "134635.193000", "134715.097000", "134715.101000", "134715.104000", "134715.108000", "134715.111000", "134715.114000", "134715.118000", "134715.121000", "134715.124000", "134715.128000", "134715.132000", "134715.136000", "134715.139000", "134715.142000", "134715.146000", "134715.149000", "134715.152000", "134715.155000", "134715.159000", "134715.162000", "134715.165000", "134715.169000", "134715.172000", "134715.175000", "134715.179000", "134715.182000", "134715.185000", "134755.098000", "134755.102000", "134755.105000", "134755.109000", "134755.112000", "134755.115000", "134755.119000", "134755.122000", "134755.125000", "134755.129000", "134755.132000", "134755.135000", "134755.160000", "134755.163000", "134755.166000", "134755.170000", "134755.173000", "134755.176000", "134755.180000", "134755.183000", "134755.186000", "134755.190000", "134755.193000", "134755.196000", "134755.200000", "134755.203000", "134755.206000", "134835.098000", "134835.102000", "134835.105000", "134835.109000", "134835.112000", "134835.115000", "134835.119000", "134835.122000", "134835.125000", "134835.129000", "134835.132000", "134835.135000", "134835.139000", "134835.142000", "134835.145000", "134835.149000", "134835.152000", "134835.155000", "134835.158000", "134835.162000", "134835.165000", "134835.168000", "134835.172000", "134835.175000", "134835.178000", "134835.182000", "134835.185000", "134915.097000", "134915.101000", "134915.104000", "134915.108000", "134915.111000", "134915.115000", "134915.118000", "134915.121000", "134915.125000", "134915.128000", "134915.131000", "134915.135000", "134915.138000", "134915.141000", "134915.145000", "134915.148000", "134915.152000", "134915.155000", "134915.158000", "134915.162000", "134915.165000", "134915.168000", "134915.172000", "134915.175000", "134915.178000", "134915.182000", "134915.185000", "134942.077000", "134942.081000", "134942.085000", "134942.088000", "134942.091000", "134942.095000", "134942.098000", "134942.101000", "134942.104000", "134942.108000", "134942.112000", "134942.115000", "134942.118000", "134942.122000", "134942.125000", "134942.128000", "134942.132000", "134942.135000"],
