{
  "AcquisitionMatrixPE": 104,
  "AcquisitionNumber": 1,
  "AcquisitionTime": "13:51:5.852500",
  "BandwidthPerPixelPhaseEncode": 17.17,
  "BaseResolution": 104,
  "BodyPartExamined": "BRAIN",
  "CoilCombinationMethod": "Sum of Squares",
  "ConsistencyInfo": "N4_VE11C_LATEST_20160120",
  "ConversionSoftware": "dcm2niix",
  "ConversionSoftwareVersion": "v1.0.20211006",
  "DerivedVendorReportedEchoSpacing": 0.000560011,
  "DeviceSerialNumber": "167006",
  "DwellTime": 2.1e-06,
  "EchoTime": 0.037,
  "EchoTime1": 0.037,
  "EchoTime2": 0.001,
  "EchoTrainLength": 104,
  "EffectiveEchoSpacing": 0.000560011,
  "FlipAngle": 52,
  "HeudiconvVersion": "0.10.0",
  "ImageComments": "Unaliased MB4/PE3/LB",
  "ImageOrientationPatientDICOM": [0.999345, 0.0193943, 0.0305488, -0.0115121, 0.970775, -0.239714],
  "ImageOrientationText": "Tra>Cor(-13.8)>Sag(2.0)",
  "ImageType": [
    "ORIGINAL",
    "PRIMARY",
    "P",
    "MB",
    "ND",
    "MOSAIC",
    "PHASE"
],
  "ImagingFrequency": 123.259,
  "InPlanePhaseEncodingDirectionDICOM": "COL",
  "InstitutionAddress": "Chemin Queen-Mary 4565,Montreal,District,CA,H3W 1W5",
  "InstitutionName": "IUGM",
  "InstitutionalDepartmentName": "Department",
  "MRAcquisitionType": "2D",
  "MagneticFieldStrength": 3,
  "Manufacturer": "Siemens",
  "ManufacturersModelName": "Prisma_fit",
  "MatrixCoilMode": "SENSE",
  "Modality": "MR",
  "MultibandAccelerationFactor": 4,
  "PartialFourier": 1,
  "PatientPosition": "HFS",
  "PercentPhaseFOV": 100,
  "PercentSampling": 100,
  "PhaseEncodingDirection": "j",
  "PhaseEncodingSteps": 104,
  "PhaseResolution": 1,
  "PixelBandwidth": 2290,
  "ProcedureStepDescription": "games^mario",
  "ProtocolName": "func_task-mario_run-03",
  "PulseSequenceDetails": "%CustomerSeq%\\cmrr_mbep2d_bold",
  "ReceiveCoilActiveElements": "HC1-7;NC1,2",
  "ReceiveCoilName": "HeadNeck_64",
  "ReconMatrixPE": 104,
  "RepetitionTime": 1.49,
  "SAR": 0.0485799,
  "ScanOptions": "FS",
  "ScanningSequence": "EP",
  "SequenceName": "epfid2d1_104",
  "SequenceVariant": "SK\\SS",
  "SeriesDescription": "func_task-mario_run-03",
  "SeriesNumber": 17,
  "ShimSetting": [633, -7205, -8805, 703, 39, 3, 83, -11],
  "SliceThickness": 2,
  "SliceTiming": [0, 0.785, 0.1, 0.8825, 0.1975, 0.98, 0.295, 1.08, 0.3925, 1.1775, 0.49, 1.275, 0.59, 1.3725, 0.6875, 0, 0.785, 0.1, 0.8825, 0.1975, 0.98, 0.295, 1.08, 0.3925, 1.1775, 0.49, 1.275, 0.59, 1.3725, 0.6875, 0, 0.785, 0.1, 0.8825, 0.1975, 0.98, 0.295, 1.08, 0.3925, 1.1775, 0.49, 1.275, 0.59, 1.3725, 0.6875, 0, 0.785, 0.1, 0.8825, 0.1975, 0.98, 0.295, 1.08, 0.3925, 1.1775, 0.49, 1.275, 0.59, 1.3725, 0.6875],
  "SoftwareVersions": "syngo MR E11",
  "SpacingBetweenSlices": 2,
  "StationName": "MRC35049",
  "TaskName": "mario",
  "TotalReadoutTime": 0.0576811,
  "TxRefAmp": 235.627,
  "WipMemBlock": "b284e49c-dba6-453d-84f8-47d9336a9474||Sequence: R016 ve11c/master r/e634e98; Dec 19 2017 11:00:25 by eja",
  "dcmmeta_affine": [
    [-1.9986902475357056, -0.023024167865514755, 0.0686103105545044, 108.17460632324219],
    [-0.03878864273428917, 1.941550612449646, -0.47841042280197144, -72.67463684082031],
    [0.06109769642353058, 0.4794277548789978, 1.9407256841659546, -66.2822494506836],
    [0.0, 0.0, 0.0, 1.0]
],
  "dcmmeta_reorient_transform": [
    [0.0, -1.0, 0.0, 103.0],
    [1.0, 0.0, 0.0, 0.0],
    [0.0, 0.0, 1.0, 0.0],
    [0.0, 0.0, 0.0, 1.0]
],
  "dcmmeta_shape": [104, 104, 60, 503],
  "dcmmeta_slice_dim": 2,
  "dcmmeta_version": 0.6,
  "global": {
    "const": {
      "AcquisitionMatrix": [104, 0, 0, 104],
      "AngioFlag": "N",
      "BitsAllocated": 16,
      "BitsStored": 16,
      "BodyPartExamined": "BRAIN",
      "Columns": 832,
      "EchoNumbers": 1,
      "EchoTime": 37.0,
      "EchoTrainLength": 104,
      "FlipAngle": 52.0,
      "HighBit": 15,
      "ImageOrientationPatient": [0.99934509962763, 0.01939432097377, 0.03054884881987, -0.0115120842382, 0.97077532185677, -0.2397138844339],
      "ImagePositionPatient": [-824.94555573298, -848.14857928215, 135.37095935009],
      "ImageType": [
        "ORIGINAL",
        "PRIMARY",
        "P",
        "MB",
        "ND",
        "MOSAIC"
],
      "ImagedNucleus": "1H",
      "ImagingFrequency": 123.258891,
      "InPlanePhaseEncodingDirection": "COL",
      "LargestImagePixelValue": 4095,
      "MRAcquisitionType": "2D",
      "MagneticFieldStrength": 3.0,
      "Manufacturer": "SIEMENS",
      "ManufacturerModelName": "Prisma_fit",
      "Modality": "MR",
      "NumberOfAverages": 1.0,
      "NumberOfPhaseEncodingSteps": 104,
      "PercentPhaseFieldOfView": 100.0,
      "PercentSampling": 100.0,
      "PerformedProcedureStepStartTime": "115539.037000",
      "PhotometricInterpretation": "MONOCHROME2",
      "PixelBandwidth": 2290.0,
      "PixelRepresentation": 0,
      "PixelSpacing": [2.0, 2.0],
      "ProtocolName": "func_task-mario_run-03",
      "RepetitionTime": 1490.0,
      "RescaleIntercept": -4096.0,
      "RescaleSlope": 2.0,
      "RescaleType": "US",
      "Rows": 832,
      "SAR": 0.04857994976562,
      "SamplesPerPixel": 1,
      "ScanOptions": "FS",
      "ScanningSequence": "EP",
      "SequenceName": "epfid2d1_104",
      "SequenceVariant": [
        "SK",
        "SS"
],
      "SeriesDescription": "func_task-mario_run-03",
      "SeriesNumber": 17,
      "SeriesTime": "135233.698000",
      "SliceLocation": -43.222729458664,
      "SliceThickness": 2.0,
      "SmallestImagePixelValue": 0,
      "SoftwareVersions": "syngo MR E11",
      "SpacingBetweenSlices": 2.0000000223515,
      "SpecificCharacterSet": "ISO_IR 100",
      "StudyID": "1",
      "StudyTime": "115538.959000",
      "TransmitCoilName": "Body",
      "VariableFlipAngleFlag": "N",
      "WindowCenterWidthExplanation": "Algo1",
      "dBdt": 0.0},
    "slices": {}
  },
  "time": {
    "samples": {
      "AcquisitionNumber": [1, 2, 3, 4, 5, 6, 7, 8, 9, 10, 11, 12, 13, 14, 15, 16, 17, 18, 19, 20, 21, 22, 23, 24, 25, 26, 27, 28, 29, 30, 31, 32, 33, 34, 35, 36, 37, 38, 39, 40, 41, 42, 43, 44, 45, 46, 47, 48, 49, 50, 51, 52, 53, 54, 55, 56, 57, 58, 59, 60, 61, 62, 63, 64, 65, 66, 67, 68, 69, 70, 71, 72, 73, 74, 75, 76, 77, 78, 79, 80, 81, 82, 83, 84, 85, 86, 87, 88, 89, 90, 91, 92, 93, 94, 95, 96, 97, 98, 99, 100, 101, 102, 103, 104, 105, 106, 107, 108, 109, 110, 111, 112, 113, 114, 115, 116, 117, 118, 119, 120, 121, 122, 123, 124, 125, 126, 127, 128, 129, 130, 131, 132, 133, 134, 135, 136, 137, 138, 139, 140, 141, 142, 143, 144, 145, 146, 147, 148, 149, 150, 151, 152, 153, 154, 155, 156, 157, 158, 159, 160, 161, 162, 163, 164, 165, 166, 167, 168, 169, 170, 171, 172, 173, 174, 175, 176, 177, 178, 179, 180, 181, 182, 183, 184, 185, 186, 187, 188, 189, 190, 191, 192, 193, 194, 195, 196, 197, 198, 199, 200, 201, 202, 203, 204, 205, 206, 207, 208, 209, 210, 211, 212, 213, 214, 215, 216, 217, 218, 219, 220, 221, 222, 223, 224, 225, 226, 227, 228, 229, 230, 231, 232, 233, 234, 235, 236, 237, 238, 239, 240, 241, 242, 243, 244, 245, 246, 247, 248, 249, 250, 251, 252, 253, 254, 255, 256, 257, 258, 259, 260, 261, 262, 263, 264, 265, 266, 267, 268, 269, 270, 271, 272, 273, 274, 275, 276, 277, 278, 279, 280, 281, 282, 283, 284, 285, 286, 287, 288, 289, 290, 291, 292, 293, 294, 295, 296, 297, 298, 299, 300, 301, 302, 303, 304, 305, 306, 307, 308, 309, 310, 311, 312, 313, 314, 315, 316, 317, 318, 319, 320, 321, 322, 323, 324, 325, 326, 327, 328, 329, 330, 331, 332, 333, 334, 335, 336, 337, 338, 339, 340, 341, 342, 343, 344, 345, 346, 347, 348, 349, 350, 351, 352, 353, 354, 355, 356, 357, 358, 359, 360, 361, 362, 363, 364, 365, 366, 367, 368, 369, 370, 371, 372, 373, 374, 375, 376, 377, 378, 379, 380, 381, 382, 383, 384, 385, 386, 387, 388, 389, 390, 391, 392, 393, 394, 395, 396, 397, 398, 399, 400, 401, 402, 403, 404, 405, 406, 407, 408, 409, 410, 411, 412, 413, 414, 415, 416, 417, 418, 419, 420, 421, 422, 423, 424, 425, 426, 427, 428, 429, 430, 431, 432, 433, 434, 435, 436, 437, 438, 439, 440, 441, 442, 443, 444, 445, 446, 447, 448, 449, 450, 451, 452, 453, 454, 455, 456, 457, 458, 459, 460, 461, 462, 463, 464, 465, 466, 467, 468, 469, 470, 471, 472, 473, 474, 475, 476, 477, 478, 479, 480, 481, 482, 483, 484, 485, 486, 487, 488, 489, 490, 491, 492, 493, 494, 495, 496, 497, 498, 499, 500, 501, 502, 503],
      "AcquisitionTime": ["135105.852500", "135107.342500", "135108.832500", "135110.322500", "135111.812500", "135113.302500", "135114.792500", "135116.282500", "135117.772500", "135119.262500", "135120.752500", "135122.242500", "135123.732500", "135125.222500", "135126.712500", "135128.202500", "135129.692500", "135131.182500", "135132.672500", "135134.162500", "135135.652500", "135137.142500", "135138.632500", "135140.122500", "135141.612500", "135143.102500", "135144.592500", "135146.082500", "135147.572500", "135149.062500", "135150.552500", "135152.042500", "135153.532500", "135155.022500", "135156.512500", "135158.002500", "135159.492500", "135200.982500", "135202.472500", "135203.962500", "135205.452500", "135206.942500", "135208.432500", "135209.922500", "135211.412500", "135212.902500", "135214.392500", "135215.882500", "135217.372500", "135218.862500", "135220.352500", "135221.842500", "135223.332500", "135224.822500", "135226.312500", "135227.802500", "135229.292500", "135230.782500", "135232.272500", "135233.762500", "135235.252500", "135236.742500", "135238.232500", "135239.722500", "135241.212500", "135242.702500", "135244.192500", "135245.682500", "135247.172500", "135248.662500", "135250.152500", "135251.642500", "135253.132500", "135254.622500", "135256.112500", "135257.602500", "135259.092500", "135300.582500", "135302.072500", "135303.562500", "135305.052500", "135306.542500", "135308.032500", "135309.522500", "135311.012500", "135312.502500", "135313.992500", "135315.482500", "135316.972500", "135318.462500", "135319.952500", "135321.442500", "135322.932500", "135324.422500", "135325.912500", "135327.402500", "135328.892500", "135330.382500", "135331.872500", "135333.362500", "135334.852500", "135336.342500", "135337.832500", "135339.322500", "135340.812500", "135342.302500", "135343.792500", "135345.282500", "135346.772500", "135348.262500", "135349.752500", "135351.242500", "135352.732500", "135354.222500", "135355.712500", "135357.202500", "135358.692500", "135400.182500", "135401.672500", "135403.162500", "135404.652500", "135406.142500", "135407.632500", "135409.122500", "135410.612500", "135412.102500", "135413.592500", "135415.082500", "135416.572500", "135418.062500", "135419.552500", "135421.042500", "135422.532500", "135424.022500", "135425.512500", "135427.002500", "135428.492500", "135429.982500", "135431.472500", "135432.962500", "135434.452500", "135435.942500", "135437.432500", "135438.922500", "135440.412500", "135441.902500", "135443.392500", "135444.882500", "135446.372500", "135447.862500", "135449.352500", "135450.842500", "135452.332500", "135453.822500", "135455.312500", "135456.802500", "135458.292500", "135459.782500", "135501.272500", "135502.762500", "135504.252500", "135505.742500", "135507.232500", "135508.722500", "135510.212500", "135511.702500", "135513.192500", "135514.682500", "135516.172500", "135517.662500", "135519.152500", "135520.642500", "135522.132500", "135523.622500", "135525.112500", "135526.602500", "135528.092500", "135529.582500", "135531.072500", "135532.562500", "135534.052500", "135535.542500", "135537.032500", "135538.522500", "135540.012500", "135541.502500", "135542.992500", "135544.482500", "135545.972500", "135547.462500", "135548.952500", "135550.442500", "135551.932500", "135553.422500", "135554.912500", "135556.402500", "135557.892500", "135559.382500", "135600.872500", "135602.362500", "135603.852500", "135605.342500", "135606.832500", "135608.322500", "135609.812500", "135611.302500", "135612.792500", "135614.282500", "135615.772500", "135617.262500", "135618.752500", "135620.242500", "135621.732500", "135623.222500", "135624.712500", "135626.202500", "135627.692500", "135629.182500", "135630.672500", "135632.162500", "135633.652500", "135635.142500", "135636.632500", "135638.122500", "135639.612500", "135641.102500", "135642.592500", "135644.082500", "135645.572500", "135647.062500", "135648.552500", "135650.042500", "135651.532500", "135653.022500", "135654.512500", "135656.002500", "135657.492500", "135658.982500", "135700.472500", "135701.962500", "135703.452500", "135704.942500", "135706.432500", "135707.922500", "135709.412500", "135710.902500", "135712.392500", "135713.882500", "135715.372500", "135716.862500", "135718.352500", "135719.842500", "135721.332500", "135722.822500", "135724.312500", "135725.802500", "135727.292500", "135728.782500", "135730.272500", "135731.762500", "135733.252500", "135734.742500", "135736.232500", "135737.722500", "135739.212500", "135740.702500", "135742.192500", "135743.682500", "135745.172500", "135746.662500", "135748.152500", "135749.642500", "135751.132500", "135752.622500", "135754.112500", "135755.602500", "135757.092500", "135758.582500", "135800.072500", "135801.562500", "135803.052500", "135804.542500", "135806.032500", "135807.522500", "135809.012500", "135810.502500", "135811.992500", "135813.482500", "135814.972500", "135816.462500", "135817.952500", "135819.442500", "135820.932500", "135822.422500", "135823.912500", "135825.402500", "135826.892500", "135828.382500", "135829.872500", "135831.362500", "135832.852500", "135834.342500", "135835.832500", "135837.322500", "135838.812500", "135840.302500", "135841.792500", "135843.282500", "135844.772500", "135846.262500", "135847.752500", "135849.242500", "135850.732500", "135852.222500", "135853.712500", "135855.202500", "135856.692500", "135858.182500", "135859.672500", "135901.162500", "135902.652500", "135904.142500", "135905.632500", "135907.122500", "135908.612500", "135910.102500", "135911.592500", "135913.082500", "135914.572500", "135916.062500", "135917.552500", "135919.042500", "135920.532500", "135922.022500", "135923.512500", "135925.002500", "135926.492500", "135927.982500", "135929.472500", "135930.962500", "135932.452500", "135933.942500", "135935.432500", "135936.922500", "135938.412500", "135939.902500", "135941.392500", "135942.882500", "135944.372500", "135945.862500", "135947.352500", "135948.842500", "135950.332500", "135951.822500", "135953.312500", "135954.802500", "135956.292500", "135957.782500", "135959.272500", "140000.762500", "140002.252500", "140003.742500", "140005.232500", "140006.722500", "140008.212500", "140009.702500", "140011.192500", "140012.682500", "140014.172500", "140015.662500", "140017.152500", "140018.642500", "140020.132500", "140021.622500", "140023.112500", "140024.602500", "140026.092500", "140027.582500", "140029.072500", "140030.562500", "140032.052500", "140033.542500", "140035.032500", "140036.522500", "140038.012500", "140039.502500", "140040.992500", "140042.482500", "140043.972500", "140045.462500", "140046.952500", "140048.442500", "140049.932500", "140051.422500", "140052.912500", "140054.402500", "140055.892500", "140057.382500", "140058.872500", "140100.362500", "140101.852500", "140103.342500", "140104.832500", "140106.322500", "140107.812500", "140109.302500", "140110.792500", "140112.282500", "140113.772500", "140115.262500", "140116.752500", "140118.242500", "140119.732500", "140121.222500", "140122.712500", "140124.202500", "140125.692500", "140127.182500", "140128.672500", "140130.162500", "140131.652500", "140133.142500", "140134.632500", "140136.122500", "140137.612500", "140139.102500", "140140.592500", "140142.082500", "140143.572500", "140145.062500", "140146.552500", "140148.042500", "140149.532500", "140151.022500", "140152.512500", "140154.002500", "140155.492500", "140156.982500", "140158.472500", "140159.962500", "140201.452500", "140202.942500", "140204.432500", "140205.922500", "140207.412500", "140208.902500", "140210.392500", "140211.882500", "140213.372500", "140214.862500", "140216.352500", "140217.842500", "140219.332500", "140220.822500", "140222.312500", "140223.802500", "140225.292500", "140226.782500", "140228.272500", "140229.762500", "140231.252500", "140232.742500", "140234.232500", "140235.722500", "140237.212500", "140238.702500", "140240.192500", "140241.682500", "140243.172500", "140244.662500", "140246.152500", "140247.642500", "140249.132500", "140250.622500", "140252.112500", "140253.602500", "140255.092500", "140256.582500", "140258.072500", "140259.562500", "140301.052500", "140302.542500", "140304.032500", "140305.522500", "140307.012500", "140308.502500", "140309.992500", "140311.482500", "140312.972500", "140314.462500", "140315.952500", "140317.442500", "140318.932500", "140320.422500", "140321.912500", "140323.402500", "140324.892500", "140326.382500", "140327.872500", "140329.362500", "140330.852500", "140332.342500", "140333.832500"],
      "ContentTime": ["135233.700000", "135233.708000", "135233.711000", "135233.713000", "135233.716000", "135233.719000", "135233.721000", "135233.724000", "135233.726000", "135233.729000", "135233.731000", "135233.734000", "135233.736000", "135233.739000", "135233.741000", "135233.744000", "135233.746000", "135233.749000", "135233.751000", "135233.754000", "135233.756000", "135233.759000", "135233.771000", "135233.773000", "135233.776000", "135233.778000", "135233.781000", "135233.783000", "135233.786000", "135233.788000", "135233.791000", "135233.793000", "135253.630000", "135253.632000", "135253.635000", "135253.638000", "135253.640000", "135253.643000", "135253.645000", "135253.648000", "135253.650000", "135253.653000", "135253.655000", "135253.658000", "135253.660000", "135253.663000", "135253.665000", "135253.668000", "135253.670000", "135253.673000", "135253.675000", "135253.678000", "135253.680000", "135313.611000", "135313.614000", "135313.617000", "135313.619000", "135313.622000", "135313.624000", "135313.627000", "135313.629000", "135313.632000", "135313.634000", "135313.637000", "135313.639000", "135313.642000", "135313.644000", "135313.647000", "135313.649000", "135313.652000", "135313.654000", "135313.657000", "135313.659000", "135333.616000", "135333.619000", "135333.621000", "135333.624000", "135333.626000", "135333.629000", "135333.631000", "135333.634000", "135333.636000", "135333.639000", "135333.646000", "135333.648000", "135333.651000", "135333.653000", "135333.656000", "135333.659000", "135333.661000", "135333.663000", "135333.666000", "135333.669000", "135353.626000", "135353.629000", "135353.631000", "135353.634000", "135353.636000", "135353.639000", "135353.641000", "135353.644000", "135353.646000", "135353.649000", "135353.651000", "135353.654000", "135353.657000", "135353.659000", "135353.662000", "135353.664000", "135353.667000", "135353.669000", "135353.672000", "135433.639000", "135433.642000", "135433.645000", "135433.647000", "135433.650000", "135433.652000", "135433.655000", "135433.657000", "135433.660000", "135433.663000", "135433.665000", "135433.667000", "135433.670000", "135433.673000", "135433.675000", "135433.678000", "135433.680000", "135433.683000", "135433.685000", "135433.688000", "135433.690000", "135433.693000", "135433.695000", "135433.698000", "135433.700000", "135433.703000", "135433.705000", "135513.648000", "135513.651000", "135513.653000", "135513.656000", "135513.658000", "135513.661000", "135513.663000", "135513.666000", "135513.668000", "135513.671000", "135513.673000", "135513.676000", "135513.678000", "135513.681000", "135513.683000", "135513.686000", "135513.688000", "135513.691000", "135513.693000", "135513.696000", "135513.698000", "135513.701000", "135513.703000", "135513.706000", "135513.708000", "135513.711000", "135513.713000", "135553.650000", "135553.653000", "135553.655000", "135553.658000", "135553.660000", "135553.662000", "135553.665000", "135553.667000", "135553.670000", "135553.673000", "135553.676000", "135553.679000", "135553.682000", "135553.684000", "135553.687000", "135553.690000", "135553.693000", "135553.696000", "135553.698000", "135553.702000", "135553.705000", "135553.708000", "135553.710000", "135553.713000", "135553.716000", "135553.718000", "135633.634000", "135633.637000", "135633.640000", "135633.642000", "135633.645000", "135633.647000", "135633.650000", "135633.652000", "135633.655000", "135633.657000", "135633.660000", "135633.662000", "135633.665000", "135633.667000", "135633.670000", "135633.672000", "135633.675000", "135633.677000", "135633.680000", "135633.682000", "135633.685000", "135633.694000", "135633.697000", "135633.699000", "135633.702000", "135633.704000", "135633.707000", "135713.631000", "135713.634000", "135713.636000", "135713.638000", "135713.641000", "135713.643000", "135713.646000", "135713.648000", "135713.651000", "135713.653000", "135713.656000", "135713.658000", "135713.661000", "135713.663000", "135713.666000", "135713.672000", "135713.675000", "135713.677000", "135713.680000", "135713.682000", "135713.685000", "135713.687000", "135713.690000", "135713.692000", "135713.695000", "135713.697000", "135713.700000", "135753.645000", "135753.648000", "135753.651000", "135753.653000", "135753.656000", "135753.658000", "135753.661000", "135753.663000", "135753.666000", "135753.668000", "135753.671000", "135753.673000", "135753.676000", "135753.678000", "135753.681000", "135753.683000", "135753.686000", "135753.688000", "135753.691000", "135753.693000", "135753.696000", "135753.698000", "135753.701000", "135753.703000", "135753.706000", "135753.708000", "135753.711000", "135833.636000", "135833.639000", "135833.641000", "135833.644000", "135833.646000", "135833.649000", "135833.651000", "135833.654000", "135833.656000", "135833.659000", "135833.661000", "135833.664000", "135833.666000", "135833.669000", "135833.671000", "135833.674000", "135833.677000", "135833.679000", "135833.682000", "135833.684000", "135833.687000", "135833.689000", "135833.692000", "135833.694000", "135833.697000", "135833.699000", "135833.702000", "135913.638000", "135913.641000", "135913.644000", "135913.646000", "135913.649000", "135913.651000", "135913.654000", "135913.656000", "135913.659000", "135913.661000", "135913.664000", "135913.666000", "135913.669000", "135913.672000", "135913.674000", "135913.677000", "135913.679000", "135913.682000", "135913.684000", "135913.687000", "135913.689000", "135913.692000", "135913.695000", "135913.697000", "135913.699000", "135913.702000", "135913.705000", "135953.659000", "135953.661000", "135953.664000", "135953.666000", "135953.674000", "135953.676000", "135953.679000", "135953.681000", "135953.684000", "135953.686000", "135953.689000", "135953.691000", "135953.694000", "135953.696000", "135953.699000", "135953.701000", "135953.704000", "135953.707000", "135953.709000", "135953.712000", "135953.714000", "135953.717000", "135953.719000", "135953.722000", "135953.724000", "135953.727000", "140033.655000", "140033.658000", "140033.661000", "140033.663000", "140033.666000", "140033.669000", "140033.671000", "140033.674000", "140033.677000", "140033.679000", "140033.682000", "140033.684000", "140033.687000", "140033.689000", "140033.692000", "140033.694000", "140033.697000", "140033.699000", "140033.702000", "140033.704000", "140033.707000", "140033.709000", "140033.712000", "140033.714000", "140033.717000", "140033.719000", "140033.722000", "140113.641000", "140113.643000", "140113.646000", "140113.648000", "140113.651000", "140113.653000", "140113.656000", "140113.658000", "140113.661000", "140113.663000", "140113.666000", "140113.668000", "140113.671000", "140113.674000", "140113.676000", "140113.678000", "140113.681000", "140113.684000", "140113.686000", "140113.689000", "140113.691000", "140113.694000", "140113.696000", "140113.699000", "140113.701000", "140113.704000", "140113.707000", "140153.638000", "140153.640000", "140153.643000", "140153.645000", "140153.648000", "140153.650000", "140153.653000", "140153.655000", "140153.658000", "140153.660000", "140153.663000", "140153.666000", "140153.668000", "140153.671000", "140153.673000", "140153.676000", "140153.678000", "140153.681000", "140153.683000", "140153.686000", "140153.689000", "140153.692000", "140153.694000", "140153.697000", "140153.699000", "140153.702000", "140153.704000", "140233.662000", "140233.665000", "140233.667000", "140233.670000", "140233.672000", "140233.675000", "140233.678000", "140233.680000", "140233.683000", "140233.685000", "140233.688000", "140233.690000", "140233.693000", "140233.695000", "140233.698000", "140233.700000", "140233.703000", "140233.706000", "140233.708000", "140233.711000", "140233.713000", "140233.716000", "140233.718000", "140233.721000", "140233.723000", "140233.726000", "140233.728000", "140313.637000", "140313.639000", "140313.642000", "140313.644000", "140313.647000", "140313.649000", "140313.652000", "140313.655000", "140313.657000", "140313.660000", "140313.662000", "140313.665000", "140313.667000", "140313.670000", "140313.672000", "140313.675000", "140313.677000", "140313.680000", "140313.683000", "140313.685000", "140313.688000", "140313.690000", "140313.693000", "140313.695000", "140313.698000", "140313.700000", "140313.703000", "140336.477000", "140336.480000", "140336.482000", "140336.485000", "140336.488000", "140336.491000", "140336.494000", "140336.496000", "140336.498000", "140336.501000", "140336.504000", "140336.506000", "140336.509000", "140336.515000", "140336.517000"],
