{
  "AcquisitionMatrixPE": 104,
  "AcquisitionNumber": 1,
  "AcquisitionTime": "14:08:18.777500",
  "BandwidthPerPixelPhaseEncode": 17.17,
  "BaseResolution": 104,
  "BodyPartExamined": "BRAIN",
  "CoilCombinationMethod": "Sum of Squares",
  "ConsistencyInfo": "N4_VE11C_LATEST_20160120",
  "ConversionSoftware": "dcm2niix",
  "ConversionSoftwareVersion": "v1.0.20211006",
  "DerivedVendorReportedEchoSpacing": 0.000560011,
  "DeviceSerialNumber": "167006",
  "DwellTime": 2.1e-06,
  "EchoTime": 0.037,
  "EchoTime1": 0.037,
  "EchoTime2": 0.001,
  "EchoTrainLength": 104,
  "EffectiveEchoSpacing": 0.000560011,
  "FlipAngle": 52,
  "HeudiconvVersion": "0.5.3.post569+g418601f",
  "ImageComments": "Unaliased MB4/PE3/LB",
  "ImageOrientationPatientDICOM": [0.999523, 0.0215614, 0.0220903, -0.0148294, 0.96303, -0.268985],
  "ImageOrientationText": "Tra>Cor(-15.6)>Sag(1.6)",
  "ImageType": [
    "ORIGINAL",
    "PRIMARY",
    "P",
    "MB",
    "ND",
    "MOSAIC",
    "PHASE"
],
  "ImagingFrequency": 123.259,
  "InPlanePhaseEncodingDirectionDICOM": "COL",
  "InstitutionAddress": "Chemin Queen-Mary 4565,Montreal,District,CA,H3W 1W5",
  "InstitutionName": "IUGM",
  "InstitutionalDepartmentName": "Department",
  "MRAcquisitionType": "2D",
  "MagneticFieldStrength": 3,
  "Manufacturer": "Siemens",
  "ManufacturersModelName": "Prisma_fit",
  "MatrixCoilMode": "SENSE",
  "Modality": "MR",
  "MultibandAccelerationFactor": 4,
  "PartialFourier": 1,
  "PatientPosition": "HFS",
  "PercentPhaseFOV": 100,
  "PercentSampling": 100,
  "PhaseEncodingDirection": "j",
  "PhaseEncodingSteps": 104,
  "PhaseResolution": 1,
  "PixelBandwidth": 2290,
  "ProcedureStepDescription": "games^mario",
  "ProtocolName": "func_task-mario_run-02",
  "PulseSequenceDetails": "%CustomerSeq%\\cmrr_mbep2d_bold",
  "ReceiveCoilActiveElements": "HC1-7;NC1,2",
  "ReceiveCoilName": "HeadNeck_64",
  "ReconMatrixPE": 104,
  "RepetitionTime": 1.49,
  "SAR": 0.0548282,
  "ScanOptions": "FS",
  "ScanningSequence": "EP",
  "SequenceName": "epfid2d1_104",
  "SequenceVariant": "SK\\SS",
  "SeriesDescription": "func_task-mario_run-02",
  "SeriesNumber": 14,
  "ShimSetting": [637, -7209, -8810, 714, 41, -14, 33, -11],
  "SliceThickness": 2,
  "SliceTiming": [0, 0.785, 0.0975, 0.8825, 0.1975, 0.98, 0.295, 1.0775, 0.3925, 1.1775, 0.49, 1.275, 0.5875, 1.3725, 0.6875, 0, 0.785, 0.0975, 0.8825, 0.1975, 0.98, 0.295, 1.0775, 0.3925, 1.1775, 0.49, 1.275, 0.5875, 1.3725, 0.6875, 0, 0.785, 0.0975, 0.8825, 0.1975, 0.98, 0.295, 1.0775, 0.3925, 1.1775, 0.49, 1.275, 0.5875, 1.3725, 0.6875, 0, 0.785, 0.0975, 0.8825, 0.1975, 0.98, 0.295, 1.0775, 0.3925, 1.1775, 0.49, 1.275, 0.5875, 1.3725, 0.6875],
  "SoftwareVersions": "syngo MR E11",
  "SpacingBetweenSlices": 2,
  "StationName": "MRC35049",
  "TaskName": "mario",
  "TotalReadoutTime": 0.0576811,
  "TxRefAmp": 234.744,
  "WipMemBlock": "28da0bdc-cbfb-4402-bb31-b0534e88594b||Sequence: R016 ve11c/master r/e634e98; Dec 19 2017 11:00:25 by eja",
  "dcmmeta_affine": [
    [-1.9990469217300415, -0.02965872548520565, 0.054146621376276016, 108.39876556396484],
    [-0.04312273859977722, 1.9260605573654175, -0.5370580554008484, -70.12000274658203],
    [0.04418060556054115, 0.5379695892333984, 1.9257822036743164, -69.45690155029297],
    [0.0, 0.0, 0.0, 1.0]
],
  "dcmmeta_reorient_transform": [
    [0.0, -1.0, 0.0, 103.0],
    [1.0, 0.0, 0.0, 0.0],
    [0.0, 0.0, 1.0, 0.0],
    [0.0, 0.0, 0.0, 1.0]
],
  "dcmmeta_shape": [104, 104, 60, 498],
  "dcmmeta_slice_dim": 2,
  "dcmmeta_version": 0.6,
  "global": {
    "const": {
      "AcquisitionMatrix": [104, 0, 0, 104],
      "AngioFlag": "N",
      "BitsAllocated": 16,
      "BitsStored": 16,
      "BodyPartExamined": "BRAIN",
      "Columns": 832,
      "EchoNumbers": 1,
      "EchoTime": 37.0,
      "EchoTrainLength": 104,
      "FlipAngle": 52.0,
      "HighBit": 15,
      "ImageOrientationPatient": [0.99952344940886, 0.02156136919289, 0.02209030195249, -0.0148293623381, 0.96303025287239, -0.2689847989482],
      "ImagePositionPatient": [-822.20121161543, -845.04693259176, 165.69316089249],
      "ImageType": [
        "ORIGINAL",
        "PRIMARY",
        "P",
        "MB",
        "ND",
        "MOSAIC"
],
      "ImagedNucleus": "1H",
      "ImagingFrequency": 123.25886,
      "InPlanePhaseEncodingDirection": "COL",
      "LargestImagePixelValue": 4095,
      "MRAcquisitionType": "2D",
      "MagneticFieldStrength": 3.0,
      "Manufacturer": "SIEMENS",
      "ManufacturerModelName": "Prisma_fit",
      "Modality": "MR",
      "NumberOfAverages": 1.0,
      "NumberOfPhaseEncodingSteps": 104,
      "PercentPhaseFieldOfView": 100.0,
      "PercentSampling": 100.0,
      "PerformedProcedureStepStartTime": "130719.866000",
      "PhotometricInterpretation": "MONOCHROME2",
      "PixelBandwidth": 2290.0,
      "PixelRepresentation": 0,
      "PixelSpacing": [2.0, 2.0],
      "ProtocolName": "func_task-mario_run-02",
      "RepetitionTime": 1490.0,
      "RescaleIntercept": -4096.0,
      "RescaleSlope": 2.0,
      "RescaleType": "US",
      "Rows": 832,
      "SAR": 0.05482824824118,
      "SamplesPerPixel": 1,
      "ScanOptions": "FS",
      "ScanningSequence": "EP",
      "SequenceName": "epfid2d1_104",
      "SequenceVariant": [
        "SK",
        "SS"
],
      "SeriesDescription": "func_task-mario_run-02",
      "SeriesNumber": 14,
      "SeriesTime": "140936.765000",
      "SliceLocation": -45.115460688196,
      "SliceThickness": 2.0,
      "SmallestImagePixelValue": 0,
      "SoftwareVersions": "syngo MR E11",
      "SpacingBetweenSlices": 2.0000000295695,
      "SpecificCharacterSet": "ISO_IR 100",
      "StudyID": "1",
      "StudyTime": "130719.804000",
      "TransmitCoilName": "Body",
      "VariableFlipAngleFlag": "N",
      "WindowCenterWidthExplanation": "Algo1",
      "dBdt": 0.0},
    "slices": {}
  },
  "time": {
    "samples": {
      "AcquisitionNumber": [1, 2, 3, 4, 5, 6, 7, 8, 9, 10, 11, 12, 13, 14, 15, 16, 17, 18, 19, 20, 21, 22, 23, 24, 25, 26, 27, 28, 29, 30, 31, 32, 33, 34, 35, 36, 37, 38, 39, 40, 41, 42, 43, 44, 45, 46, 47, 48, 49, 50, 51, 52, 53, 54, 55, 56, 57, 58, 59, 60, 61, 62, 63, 64, 65, 66, 67, 68, 69, 70, 71, 72, 73, 74, 75, 76, 77, 78, 79, 80, 81, 82, 83, 84, 85, 86, 87, 88, 89, 90, 91, 92, 93, 94, 95, 96, 97, 98, 99, 100, 101, 102, 103, 104, 105, 106, 107, 108, 109, 110, 111, 112, 113, 114, 115, 116, 117, 118, 119, 120, 121, 122, 123, 124, 125, 126, 127, 128, 129, 130, 131, 132, 133, 134, 135, 136, 137, 138, 139, 140, 141, 142, 143, 144, 145, 146, 147, 148, 149, 150, 151, 152, 153, 154, 155, 156, 157, 158, 159, 160, 161, 162, 163, 164, 165, 166, 167, 168, 169, 170, 171, 172, 173, 174, 175, 176, 177, 178, 179, 180, 181, 182, 183, 184, 185, 186, 187, 188, 189, 190, 191, 192, 193, 194, 195, 196, 197, 198, 199, 200, 201, 202, 203, 204, 205, 206, 207, 208, 209, 210, 211, 212, 213, 214, 215, 216, 217, 218, 219, 220, 221, 222, 223, 224, 225, 226, 227, 228, 229, 230, 231, 232, 233, 234, 235, 236, 237, 238, 239, 240, 241, 242, 243, 244, 245, 246, 247, 248, 249, 250, 251, 252, 253, 254, 255, 256, 257, 258, 259, 260, 261, 262, 263, 264, 265, 266, 267, 268, 269, 270, 271, 272, 273, 274, 275, 276, 277, 278, 279, 280, 281, 282, 283, 284, 285, 286, 287, 288, 289, 290, 291, 292, 293, 294, 295, 296, 297, 298, 299, 300, 301, 302, 303, 304, 305, 306, 307, 308, 309, 310, 311, 312, 313, 314, 315, 316, 317, 318, 319, 320, 321, 322, 323, 324, 325, 326, 327, 328, 329, 330, 331, 332, 333, 334, 335, 336, 337, 338, 339, 340, 341, 342, 343, 344, 345, 346, 347, 348, 349, 350, 351, 352, 353, 354, 355, 356, 357, 358, 359, 360, 361, 362, 363, 364, 365, 366, 367, 368, 369, 370, 371, 372, 373, 374, 375, 376, 377, 378, 379, 380, 381, 382, 383, 384, 385, 386, 387, 388, 389, 390, 391, 392, 393, 394, 395, 396, 397, 398, 399, 400, 401, 402, 403, 404, 405, 406, 407, 408, 409, 410, 411, 412, 413, 414, 415, 416, 417, 418, 419, 420, 421, 422, 423, 424, 425, 426, 427, 428, 429, 430, 431, 432, 433, 434, 435, 436, 437, 438, 439, 440, 441, 442, 443, 444, 445, 446, 447, 448, 449, 450, 451, 452, 453, 454, 455, 456, 457, 458, 459, 460, 461, 462, 463, 464, 465, 466, 467, 468, 469, 470, 471, 472, 473, 474, 475, 476, 477, 478, 479, 480, 481, 482, 483, 484, 485, 486, 487, 488, 489, 490, 491, 492, 493, 494, 495, 496, 497, 498],
      "AcquisitionTime": ["140818.777500", "140820.267500", "140821.757500", "140823.247500", "140824.737500", "140826.227500", "140827.717500", "140829.207500", "140830.697500", "140832.187500", "140833.677500", "140835.167500", "140836.657500", "140838.147500", "140839.637500", "140841.127500", "140842.617500", "140844.107500", "140845.597500", "140847.087500", "140848.577500", "140850.067500", "140851.557500", "140853.047500", "140854.537500", "140856.027500", "140857.517500", "140859.007500", "140900.497500", "140901.987500", "140903.477500", "140904.967500", "140906.457500", "140907.947500", "140909.437500", "140910.927500", "140912.417500", "140913.907500", "140915.397500", "140916.887500", "140918.377500", "140919.867500", "140921.357500", "140922.847500", "140924.337500", "140925.827500", "140927.317500", "140928.807500", "140930.297500", "140931.787500", "140933.277500", "140934.767500", "140936.257500", "140937.747500", "140939.237500", "140940.727500", "140942.217500", "140943.707500", "140945.197500", "140946.687500", "140948.177500", "140949.667500", "140951.157500", "140952.647500", "140954.137500", "140955.627500", "140957.117500", "140958.607500", "141000.097500", "141001.587500", "141003.077500", "141004.567500", "141006.057500", "141007.547500", "141009.037500", "141010.527500", "141012.017500", "141013.507500", "141014.997500", "141016.487500", "141017.977500", "141019.467500", "141020.957500", "141022.447500", "141023.937500", "141025.427500", "141026.917500", "141028.407500", "141029.897500", "141031.387500", "141032.877500", "141034.367500", "141035.857500", "141037.347500", "141038.837500", "141040.327500", "141041.817500", "141043.307500", "141044.797500", "141046.287500", "141047.777500", "141049.267500", "141050.757500", "141052.247500", "141053.737500", "141055.227500", "141056.717500", "141058.207500", "141059.697500", "141101.187500", "141102.677500", "141104.167500", "141105.657500", "141107.147500", "141108.637500", "141110.127500", "141111.617500", "141113.107500", "141114.597500", "141116.087500", "141117.577500", "141119.067500", "141120.557500", "141122.047500", "141123.537500", "141125.027500", "141126.517500", "141128.007500", "141129.497500", "141130.987500", "141132.477500", "141133.967500", "141135.457500", "141136.947500", "141138.437500", "141139.927500", "141141.417500", "141142.907500", "141144.397500", "141145.887500", "141147.377500", "141148.867500", "141150.357500", "141151.847500", "141153.337500", "141154.827500", "141156.317500", "141157.807500", "141159.297500", "141200.787500", "141202.277500", "141203.767500", "141205.257500", "141206.747500", "141208.237500", "141209.727500", "141211.217500", "141212.707500", "141214.197500", "141215.687500", "141217.177500", "141218.667500", "141220.157500", "141221.647500", "141223.137500", "141224.627500", "141226.117500", "141227.607500", "141229.097500", "141230.587500", "141232.077500", "141233.567500", "141235.057500", "141236.547500", "141238.037500", "141239.527500", "141241.017500", "141242.507500", "141243.997500", "141245.487500", "141246.977500", "141248.467500", "141249.957500", "141251.447500", "141252.937500", "141254.427500", "141255.917500", "141257.407500", "141258.897500", "141300.387500", "141301.877500", "141303.367500", "141304.857500", "141306.347500", "141307.837500", "141309.327500", "141310.817500", "141312.307500", "141313.797500", "141315.287500", "141316.777500", "141318.267500", "141319.757500", "141321.247500", "141322.737500", "141324.227500", "141325.717500", "141327.207500", "141328.697500", "141330.187500", "141331.677500", "141333.167500", "141334.657500", "141336.147500", "141337.637500", "141339.127500", "141340.617500", "141342.107500", "141343.597500", "141345.087500", "141346.577500", "141348.067500", "141349.557500", "141351.047500", "141352.537500", "141354.027500", "141355.517500", "141357.007500", "141358.497500", "141359.987500", "141401.477500", "141402.967500", "141404.457500", "141405.947500", "141407.437500", "141408.927500", "141410.417500", "141411.907500", "141413.397500", "141414.887500", "141416.377500", "141417.867500", "141419.357500", "141420.847500", "141422.337500", "141423.827500", "141425.317500", "141426.807500", "141428.297500", "141429.787500", "141431.277500", "141432.767500", "141434.257500", "141435.747500", "141437.237500", "141438.727500", "141440.217500", "141441.707500", "141443.197500", "141444.687500", "141446.177500", "141447.667500", "141449.157500", "141450.647500", "141452.137500", "141453.627500", "141455.117500", "141456.607500", "141458.097500", "141459.587500", "141501.077500", "141502.567500", "141504.057500", "141505.547500", "141507.037500", "141508.527500", "141510.017500", "141511.507500", "141512.997500", "141514.487500", "141515.977500", "141517.467500", "141518.957500", "141520.447500", "141521.937500", "141523.427500", "141524.917500", "141526.407500", "141527.897500", "141529.387500", "141530.877500", "141532.367500", "141533.857500", "141535.347500", "141536.837500", "141538.327500", "141539.817500", "141541.307500", "141542.797500", "141544.287500", "141545.777500", "141547.267500", "141548.757500", "141550.247500", "141551.737500", "141553.227500", "141554.717500", "141556.207500", "141557.697500", "141559.187500", "141600.677500", "141602.167500", "141603.657500", "141605.147500", "141606.637500", "141608.127500", "141609.617500", "141611.107500", "141612.597500", "141614.087500", "141615.577500", "141617.067500", "141618.557500", "141620.047500", "141621.537500", "141623.027500", "141624.517500", "141626.007500", "141627.497500", "141628.987500", "141630.477500", "141631.967500", "141633.457500", "141634.947500", "141636.437500", "141637.927500", "141639.417500", "141640.907500", "141642.397500", "141643.887500", "141645.377500", "141646.867500", "141648.357500", "141649.847500", "141651.337500", "141652.827500", "141654.317500", "141655.807500", "141657.297500", "141658.787500", "141700.277500", "141701.767500", "141703.257500", "141704.747500", "141706.237500", "141707.727500", "141709.217500", "141710.707500", "141712.197500", "141713.687500", "141715.177500", "141716.667500", "141718.157500", "141719.647500", "141721.137500", "141722.627500", "141724.117500", "141725.607500", "141727.097500", "141728.587500", "141730.077500", "141731.567500", "141733.057500", "141734.547500", "141736.037500", "141737.527500", "141739.017500", "141740.507500", "141741.997500", "141743.487500", "141744.977500", "141746.467500", "141747.957500", "141749.447500", "141750.937500", "141752.427500", "141753.917500", "141755.407500", "141756.897500", "141758.387500", "141759.877500", "141801.367500", "141802.857500", "141804.347500", "141805.837500", "141807.327500", "141808.817500", "141810.307500", "141811.797500", "141813.287500", "141814.777500", "141816.267500", "141817.757500", "141819.247500", "141820.737500", "141822.227500", "141823.717500", "141825.207500", "141826.697500", "141828.187500", "141829.677500", "141831.167500", "141832.657500", "141834.147500", "141835.637500", "141837.127500", "141838.617500", "141840.107500", "141841.597500", "141843.087500", "141844.577500", "141846.067500", "141847.557500", "141849.047500", "141850.537500", "141852.027500", "141853.517500", "141855.007500", "141856.497500", "141857.987500", "141859.477500", "141900.967500", "141902.457500", "141903.947500", "141905.437500", "141906.927500", "141908.417500", "141909.907500", "141911.397500", "141912.887500", "141914.377500", "141915.867500", "141917.357500", "141918.847500", "141920.337500", "141921.827500", "141923.317500", "141924.807500", "141926.297500", "141927.787500", "141929.277500", "141930.767500", "141932.257500", "141933.747500", "141935.237500", "141936.727500", "141938.217500", "141939.707500", "141941.197500", "141942.687500", "141944.177500", "141945.667500", "141947.157500", "141948.647500", "141950.137500", "141951.627500", "141953.117500", "141954.607500", "141956.097500", "141957.587500", "141959.077500", "142000.567500", "142002.057500", "142003.547500", "142005.037500", "142006.527500", "142008.017500", "142009.507500", "142010.997500", "142012.487500", "142013.977500", "142015.467500", "142016.957500", "142018.447500", "142019.937500", "142021.427500", "142022.917500", "142024.407500", "142025.897500", "142027.387500", "142028.877500", "142030.367500", "142031.857500", "142033.347500", "142034.837500", "142036.327500", "142037.817500", "142039.307500"],
      "ContentTime": ["140936.767000", "140936.770000", "140936.773000", "140936.775000", "140936.778000", "140936.780000", "140936.783000", "140936.786000", "140936.788000", "140936.791000", "140936.793000", "140936.796000", "140936.798000", "140936.801000", "140936.803000", "140936.813000", "140936.815000", "140936.818000", "140936.820000", "140936.823000", "140936.826000", "140936.828000", "140936.831000", "140936.833000", "140956.708000", "140956.710000", "140956.713000", "140956.720000", "140956.722000", "140956.725000", "140956.727000", "140956.730000", "140956.733000", "140956.735000", "140956.738000", "140956.741000", "140956.743000", "140956.746000", "140956.748000", "140956.751000", "140956.753000", "140956.756000", "140956.758000", "140956.761000", "141016.718000", "141016.721000", "141016.723000", "141016.730000", "141016.733000", "141016.735000", "141016.738000", "141016.740000", "141016.743000", "141016.745000", "141016.748000", "141016.750000", "141016.753000", "141016.755000", "141016.758000", "141016.760000", "141016.763000", "141016.766000", "141016.774000", "141016.776000", "141016.779000", "141036.711000", "141036.714000", "141036.716000", "141036.719000", "141036.721000", "141036.724000", "141036.727000", "141036.729000", "141036.732000", "141036.734000", "141036.737000", "141036.740000", "141036.742000", "141036.745000", "141036.747000", "141036.750000", "141036.752000", "141036.755000", "141036.757000", "141036.760000", "141056.711000", "141056.714000", "141056.717000", "141056.719000", "141056.722000", "141056.725000", "141056.727000", "141056.730000", "141056.732000", "141056.735000", "141056.737000", "141056.740000", "141056.742000", "141056.745000", "141056.748000", "141056.750000", "141056.753000", "141056.755000", "141056.758000", "141056.760000", "141116.692000", "141116.695000", "141116.697000", "141116.700000", "141116.703000", "141116.705000", "141116.708000", "141116.711000", "141116.713000", "141116.716000", "141116.718000", "141116.721000", "141116.723000", "141116.726000", "141156.780000", "141156.782000", "141156.793000", "141156.796000", "141156.798000", "141156.801000", "141156.804000", "141156.806000", "141156.809000", "141156.811000", "141156.814000", "141156.817000", "141156.819000", "141156.822000", "141156.824000", "141156.827000", "141156.830000", "141156.832000", "141156.835000", "141156.837000", "141156.840000", "141156.842000", "141156.845000", "141156.848000", "141156.850000", "141156.853000", "141236.747000", "141236.750000", "141236.753000", "141236.755000", "141236.758000", "141236.760000", "141236.763000", "141236.765000", "141236.769000", "141236.772000", "141236.774000", "141236.777000", "141236.780000", "141236.782000", "141236.785000", "141236.787000", "141236.790000", "141236.792000", "141236.795000", "141236.797000", "141236.800000", "141236.802000", "141236.805000", "141236.808000", "141236.810000", "141236.813000", "141236.815000", "141316.761000", "141316.764000", "141316.767000", "141316.769000", "141316.772000", "141316.774000", "141316.777000", "141316.780000", "141316.782000", "141316.785000", "141316.787000", "141316.790000", "141316.792000", "141316.795000", "141316.797000", "141316.800000", "141316.802000", "141316.805000", "141316.807000", "141316.810000", "141316.812000", "141316.815000", "141316.818000", "141316.820000", "141316.823000", "141316.825000", "141316.828000", "141356.752000", "141356.755000", "141356.758000", "141356.760000", "141356.763000", "141356.765000", "141356.768000", "141356.770000", "141356.773000", "141356.776000", "141356.778000", "141356.781000", "141356.783000", "141356.786000", "141356.788000", "141356.791000", "141356.794000", "141356.796000", "141356.799000", "141356.801000", "141356.804000", "141356.806000", "141356.809000", "141356.811000", "141356.814000", "141356.816000", "141356.819000", "141436.771000", "141436.774000", "141436.777000", "141436.779000", "141436.782000", "141436.784000", "141436.787000", "141436.790000", "141436.792000", "141436.795000", "141436.797000", "141436.800000", "141436.802000", "141436.805000", "141436.807000", "141436.810000", "141436.812000", "141436.815000", "141436.817000", "141436.820000", "141436.822000", "141436.825000", "141436.827000", "141436.830000", "141436.833000", "141436.835000", "141436.838000", "141516.745000", "141516.748000", "141516.750000", "141516.753000", "141516.755000", "141516.758000", "141516.761000", "141516.763000", "141516.766000", "141516.769000", "141516.771000", "141516.774000", "141516.776000", "141516.779000", "141516.782000", "141516.784000", "141516.787000", "141516.789000", "141516.792000", "141516.794000", "141516.797000", "141516.799000", "141516.802000", "141516.805000", "141516.807000", "141516.810000", "141516.812000", "141556.742000", "141556.745000", "141556.748000", "141556.750000", "141556.753000", "141556.755000", "141556.758000", "141556.760000", "141556.763000", "141556.765000", "141556.768000", "141556.771000", "141556.773000", "141556.776000", "141556.778000", "141556.781000", "141556.783000", "141556.786000", "141556.788000", "141556.791000", "141556.794000", "141556.796000", "141556.799000", "141556.801000", "141556.804000", "141556.806000", "141556.809000", "141636.750000", "141636.753000", "141636.755000", "141636.758000", "141636.761000", "141636.763000", "141636.811000", "141636.814000", "141636.817000", "141636.832000", "141636.835000", "141636.837000", "141636.840000", "141636.843000", "141636.845000", "141636.848000", "141636.850000", "141636.853000", "141636.855000", "141636.858000", "141636.860000", "141636.863000", "141636.865000", "141636.868000", "141636.870000", "141636.873000", "141716.746000", "141716.748000", "141716.751000", "141716.754000", "141716.756000", "141716.759000", "141716.761000", "141716.764000", "141716.767000", "141716.814000", "141716.817000", "141716.819000", "141716.822000", "141716.824000", "141716.827000", "141716.830000", "141716.832000", "141716.835000", "141716.837000", "141716.840000", "141716.842000", "141716.845000", "141716.847000", "141716.850000", "141716.853000", "141716.855000", "141716.858000", "141756.749000", "141756.752000", "141756.754000", "141756.757000", "141756.760000", "141756.762000", "141756.765000", "141756.768000", "141756.853000", "141756.856000", "141756.858000", "141756.861000", "141756.863000", "141756.866000", "141756.868000", "141756.871000", "141756.874000", "141756.876000", "141756.879000", "141756.881000", "141756.884000", "141756.886000", "141756.889000", "141756.892000", "141756.894000", "141756.897000", "141756.899000", "141836.763000", "141836.766000", "141836.843000", "141836.845000", "141836.848000", "141836.851000", "141836.853000", "141836.856000", "141836.859000", "141836.861000", "141836.864000", "141836.866000", "141836.869000", "141836.871000", "141836.874000", "141836.877000", "141836.879000", "141836.882000", "141836.884000", "141836.887000", "141836.889000", "141836.892000", "141836.895000", "141836.897000", "141836.900000", "141836.902000", "141836.905000", "141916.777000", "141916.780000", "141916.782000", "141916.785000", "141916.788000", "141916.790000", "141916.793000", "141916.795000", "141916.798000", "141916.800000", "141916.803000", "141916.806000", "141916.808000", "141916.811000", "141916.813000", "141916.816000", "141916.819000", "141916.821000", "141916.824000", "141916.826000", "141916.829000", "141916.831000", "141916.834000", "141916.837000", "141916.839000", "141916.842000", "141916.844000", "141956.751000", "141956.754000", "141956.756000", "141956.759000", "141956.761000", "141956.764000", "141956.767000", "141956.813000", "141956.816000", "141956.818000", "141956.821000", "141956.824000", "141956.826000", "141956.829000", "141956.831000", "141956.834000", "141956.836000", "141956.839000", "141956.841000", "141956.844000", "141956.847000", "141956.849000", "141956.852000", "141956.854000", "141956.857000", "141956.859000", "141956.862000", "142036.755000", "142036.757000", "142036.760000", "142036.762000", "142036.802000", "142036.804000", "142036.807000", "142036.810000", "142036.812000", "142036.815000", "142036.817000", "142036.820000", "142036.823000", "142036.825000", "142036.828000", "142036.830000", "142036.833000", "142036.836000", "142036.838000", "142036.841000", "142036.843000", "142036.846000", "142036.848000", "142036.851000", "142036.854000", "142036.856000", "142041.912000", "142041.914000", "142041.917000", "142041.920000"],
