{
  "AcquisitionMatrixPE": 104,
  "AcquisitionNumber": 1,
  "AcquisitionTime": "13:53:35.685000",
  "BandwidthPerPixelPhaseEncode": 17.17,
  "BaseResolution": 104,
  "BodyPartExamined": "BRAIN",
  "CoilCombinationMethod": "Sum of Squares",
  "ConsistencyInfo": "N4_VE11C_LATEST_20160120",
  "ConversionSoftware": "dcm2niix",
  "ConversionSoftwareVersion": "v1.0.20211006",
  "DerivedVendorReportedEchoSpacing": 0.000560011,
  "DeviceSerialNumber": "167006",
  "DwellTime": 2.1e-06,
  "EchoTime": 0.037,
  "EchoTrainLength": 104,
  "EffectiveEchoSpacing": 0.000560011,
  "FlipAngle": 52,
  "HeudiconvVersion": "0.5.3.post569+g418601f",
  "ImageComments": "Unaliased MB4/PE3/LB",
  "ImageOrientationPatientDICOM": [0.999523, 0.0215614, 0.0220903, -0.0148294, 0.96303, -0.268985],
  "ImageOrientationText": "Tra>Cor(-15.6)>Sag(1.6)",
  "ImageType": [
    "ORIGINAL",
    "PRIMARY",
    "M",
    "MB",
    "ND",
    "MOSAIC"
],
  "ImagingFrequency": 123.259,
  "InPlanePhaseEncodingDirectionDICOM": "COL",
  "InstitutionAddress": "Chemin Queen-Mary 4565,Montreal,District,CA,H3W 1W5",
  "InstitutionName": "IUGM",
  "InstitutionalDepartmentName": "Department",
  "MRAcquisitionType": "2D",
  "MagneticFieldStrength": 3,
  "Manufacturer": "Siemens",
  "ManufacturersModelName": "Prisma_fit",
  "MatrixCoilMode": "SENSE",
  "Modality": "MR",
  "MultibandAccelerationFactor": 4,
  "PartialFourier": 1,
  "PatientPosition": "HFS",
  "PercentPhaseFOV": 100,
  "PercentSampling": 100,
  "PhaseEncodingDirection": "j",
  "PhaseEncodingSteps": 104,
  "PhaseResolution": 1,
  "PixelBandwidth": 2290,
  "ProcedureStepDescription": "games^mario",
  "ProtocolName": "func_task-mario_run-01",
  "PulseSequenceDetails": "%CustomerSeq%\\cmrr_mbep2d_bold",
  "ReceiveCoilActiveElements": "HC1-7;NC1,2",
  "ReceiveCoilName": "HeadNeck_64",
  "ReconMatrixPE": 104,
  "RepetitionTime": 1.49,
  "SAR": 0.0548282,
  "ScanOptions": "FS",
  "ScanningSequence": "EP",
  "SequenceName": "epfid2d1_104",
  "SequenceVariant": "SK\\SS",
  "SeriesDescription": "func_task-mario_run-01",
  "SeriesNumber": 10,
  "ShimSetting": [637, -7209, -8810, 714, 41, -14, 33, -11],
  "SliceThickness": 2,
  "SliceTiming": [0, 0.7825, 0.0975, 0.88, 0.195, 0.98, 0.2925, 1.0775, 0.39, 1.175, 0.49, 1.2725, 0.5875, 1.37, 0.685, 0, 0.7825, 0.0975, 0.88, 0.195, 0.98, 0.2925, 1.0775, 0.39, 1.175, 0.49, 1.2725, 0.5875, 1.37, 0.685, 0, 0.7825, 0.0975, 0.88, 0.195, 0.98, 0.2925, 1.0775, 0.39, 1.175, 0.49, 1.2725, 0.5875, 1.37, 0.685, 0, 0.7825, 0.0975, 0.88, 0.195, 0.98, 0.2925, 1.0775, 0.39, 1.175, 0.49, 1.2725, 0.5875, 1.37, 0.685],
  "SoftwareVersions": "syngo MR E11",
  "SpacingBetweenSlices": 2,
  "StationName": "MRC35049",
  "TaskName": "mario",
  "TotalReadoutTime": 0.0576811,
  "TxRefAmp": 234.744,
  "WipMemBlock": "8dda92d3-83df-411e-ab32-74ee41de606f||Sequence: R016 ve11c/master r/e634e98; Dec 19 2017 11:00:25 by eja",
  "dcmmeta_affine": [
    [-1.9990469217300415, -0.02965872548520565, 0.054146621376276016, 108.39876556396484],
    [-0.04312273859977722, 1.9260605573654175, -0.5370580554008484, -70.12000274658203],
    [0.04418060556054115, 0.5379695892333984, 1.9257822036743164, -69.45690155029297],
    [0.0, 0.0, 0.0, 1.0]
],
  "dcmmeta_reorient_transform": [
    [0.0, -1.0, 0.0, 103.0],
    [1.0, 0.0, 0.0, 0.0],
    [0.0, 0.0, 1.0, 0.0],
    [0.0, 0.0, 0.0, 1.0]
],
  "dcmmeta_shape": [104, 104, 60, 461],
  "dcmmeta_slice_dim": 2,
  "dcmmeta_version": 0.6,
  "global": {
    "const": {
      "AcquisitionMatrix": [104, 0, 0, 104],
      "AngioFlag": "N",
      "BitsAllocated": 16,
      "BitsStored": 16,
      "BodyPartExamined": "BRAIN",
      "Columns": 832,
      "EchoNumbers": 1,
      "EchoTime": 37.0,
      "EchoTrainLength": 104,
      "FlipAngle": 52.0,
      "HighBit": 15,
      "ImageOrientationPatient": [0.99952344940886, 0.02156136919289, 0.02209030195249, -0.0148293623381, 0.96303025287239, -0.2689847989482],
      "ImagePositionPatient": [-822.20121161543, -845.04693259176, 165.69316089249],
      "ImageType": [
        "ORIGINAL",
        "PRIMARY",
        "M",
        "MB",
        "ND",
        "MOSAIC"
],
      "ImagedNucleus": "1H",
      "ImagingFrequency": 123.258848,
      "InPlanePhaseEncodingDirection": "COL",
      "MRAcquisitionType": "2D",
      "MagneticFieldStrength": 3.0,
      "Manufacturer": "SIEMENS",
      "ManufacturerModelName": "Prisma_fit",
      "Modality": "MR",
      "NumberOfAverages": 1.0,
      "NumberOfPhaseEncodingSteps": 104,
      "PercentPhaseFieldOfView": 100.0,
      "PercentSampling": 100.0,
      "PerformedProcedureStepStartTime": "130719.866000",
      "PhotometricInterpretation": "MONOCHROME2",
      "PixelBandwidth": 2290.0,
      "PixelRepresentation": 0,
      "PixelSpacing": [2.0, 2.0],
      "ProtocolName": "func_task-mario_run-01",
      "RepetitionTime": 1490.0,
      "Rows": 832,
      "SAR": 0.05482824824118,
      "SamplesPerPixel": 1,
      "ScanOptions": "FS",
      "ScanningSequence": "EP",
      "SequenceName": "epfid2d1_104",
      "SequenceVariant": [
        "SK",
        "SS"
],
      "SeriesDescription": "func_task-mario_run-01",
      "SeriesNumber": 10,
      "SeriesTime": "135503.450000",
      "SliceLocation": -45.115460688196,
      "SliceThickness": 2.0,
      "SmallestImagePixelValue": 0,
      "SoftwareVersions": "syngo MR E11",
      "SpacingBetweenSlices": 2.0000000295695,
      "SpecificCharacterSet": "ISO_IR 100",
      "StudyID": "1",
      "StudyTime": "130719.804000",
      "TransmitCoilName": "Body",
      "VariableFlipAngleFlag": "N",
      "WindowCenterWidthExplanation": "Algo1",
      "dBdt": 0.0},
    "slices": {}
  },
  "time": {
    "samples": {
      "AcquisitionNumber": [1, 2, 3, 4, 5, 6, 7, 8, 9, 10, 11, 12, 13, 14, 15, 16, 17, 18, 19, 20, 21, 22, 23, 24, 25, 26, 27, 28, 29, 30, 31, 32, 33, 34, 35, 36, 37, 38, 39, 40, 41, 42, 43, 44, 45, 46, 47, 48, 49, 50, 51, 52, 53, 54, 55, 56, 57, 58, 59, 60, 61, 62, 63, 64, 65, 66, 67, 68, 69, 70, 71, 72, 73, 74, 75, 76, 77, 78, 79, 80, 81, 82, 83, 84, 85, 86, 87, 88, 89, 90, 91, 92, 93, 94, 95, 96, 97, 98, 99, 100, 101, 102, 103, 104, 105, 106, 107, 108, 109, 110, 111, 112, 113, 114, 115, 116, 117, 118, 119, 120, 121, 122, 123, 124, 125, 126, 127, 128, 129, 130, 131, 132, 133, 134, 135, 136, 137, 138, 139, 140, 141, 142, 143, 144, 145, 146, 147, 148, 149, 150, 151, 152, 153, 154, 155, 156, 157, 158, 159, 160, 161, 162, 163, 164, 165, 166, 167, 168, 169, 170, 171, 172, 173, 174, 175, 176, 177, 178, 179, 180, 181, 182, 183, 184, 185, 186, 187, 188, 189, 190, 191, 192, 193, 194, 195, 196, 197, 198, 199, 200, 201, 202, 203, 204, 205, 206, 207, 208, 209, 210, 211, 212, 213, 214, 215, 216, 217, 218, 219, 220, 221, 222, 223, 224, 225, 226, 227, 228, 229, 230, 231, 232, 233, 234, 235, 236, 237, 238, 239, 240, 241, 242, 243, 244, 245, 246, 247, 248, 249, 250, 251, 252, 253, 254, 255, 256, 257, 258, 259, 260, 261, 262, 263, 264, 265, 266, 267, 268, 269, 270, 271, 272, 273, 274, 275, 276, 277, 278, 279, 280, 281, 282, 283, 284, 285, 286, 287, 288, 289, 290, 291, 292, 293, 294, 295, 296, 297, 298, 299, 300, 301, 302, 303, 304, 305, 306, 307, 308, 309, 310, 311, 312, 313, 314, 315, 316, 317, 318, 319, 320, 321, 322, 323, 324, 325, 326, 327, 328, 329, 330, 331, 332, 333, 334, 335, 336, 337, 338, 339, 340, 341, 342, 343, 344, 345, 346, 347, 348, 349, 350, 351, 352, 353, 354, 355, 356, 357, 358, 359, 360, 361, 362, 363, 364, 365, 366, 367, 368, 369, 370, 371, 372, 373, 374, 375, 376, 377, 378, 379, 380, 381, 382, 383, 384, 385, 386, 387, 388, 389, 390, 391, 392, 393, 394, 395, 396, 397, 398, 399, 400, 401, 402, 403, 404, 405, 406, 407, 408, 409, 410, 411, 412, 413, 414, 415, 416, 417, 418, 419, 420, 421, 422, 423, 424, 425, 426, 427, 428, 429, 430, 431, 432, 433, 434, 435, 436, 437, 438, 439, 440, 441, 442, 443, 444, 445, 446, 447, 448, 449, 450, 451, 452, 453, 454, 455, 456, 457, 458, 459, 460, 461],
      "AcquisitionTime": ["135335.685000", "135337.175000", "135338.665000", "135340.155000", "135341.645000", "135343.135000", "135344.625000", "135346.115000", "135347.605000", "135349.095000", "135350.585000", "135352.075000", "135353.565000", "135355.055000", "135356.545000", "135358.035000", "135359.525000", "135401.015000", "135402.505000", "135403.995000", "135405.485000", "135406.975000", "135408.465000", "135409.955000", "135411.445000", "135412.935000", "135414.425000", "135415.915000", "135417.405000", "135418.895000", "135420.385000", "135421.875000", "135423.365000", "135424.855000", "135426.345000", "135427.835000", "135429.325000", "135430.815000", "135432.305000", "135433.795000", "135435.285000", "135436.775000", "135438.265000", "135439.755000", "135441.245000", "135442.735000", "135444.225000", "135445.715000", "135447.205000", "135448.695000", "135450.185000", "135451.675000", "135453.165000", "135454.655000", "135456.145000", "135457.635000", "135459.125000", "135500.615000", "135502.105000", "135503.595000", "135505.085000", "135506.575000", "135508.065000", "135509.555000", "135511.045000", "135512.535000", "135514.025000", "135515.515000", "135517.005000", "135518.495000", "135519.985000", "135521.475000", "135522.965000", "135524.455000", "135525.945000", "135527.435000", "135528.925000", "135530.415000", "135531.905000", "135533.395000", "135534.885000", "135536.375000", "135537.865000", "135539.355000", "135540.845000", "135542.335000", "135543.825000", "135545.315000", "135546.805000", "135548.295000", "135549.785000", "135551.275000", "135552.765000", "135554.255000", "135555.745000", "135557.235000", "135558.725000", "135600.215000", "135601.705000", "135603.195000", "135604.685000", "135606.175000", "135607.665000", "135609.155000", "135610.645000", "135612.135000", "135613.625000", "135615.115000", "135616.605000", "135618.095000", "135619.585000", "135621.075000", "135622.565000", "135624.055000", "135625.545000", "135627.035000", "135628.525000", "135630.015000", "135631.505000", "135632.995000", "135634.485000", "135635.975000", "135637.465000", "135638.955000", "135640.445000", "135641.935000", "135643.425000", "135644.915000", "135646.405000", "135647.895000", "135649.385000", "135650.875000", "135652.365000", "135653.855000", "135655.345000", "135656.835000", "135658.325000", "135659.815000", "135701.305000", "135702.795000", "135704.285000", "135705.775000", "135707.265000", "135708.755000", "135710.245000", "135711.735000", "135713.225000", "135714.715000", "135716.205000", "135717.695000", "135719.185000", "135720.675000", "135722.165000", "135723.655000", "135725.145000", "135726.635000", "135728.125000", "135729.615000", "135731.105000", "135732.595000", "135734.085000", "135735.575000", "135737.065000", "135738.555000", "135740.045000", "135741.535000", "135743.025000", "135744.515000", "135746.005000", "135747.495000", "135748.985000", "135750.475000", "135751.965000", "135753.455000", "135754.945000", "135756.435000", "135757.925000", "135759.415000", "135800.905000", "135802.395000", "135803.885000", "135805.375000", "135806.865000", "135808.355000", "135809.845000", "135811.335000", "135812.825000", "135814.315000", "135815.805000", "135817.295000", "135818.785000", "135820.275000", "135821.765000", "135823.255000", "135824.745000", "135826.235000", "135827.725000", "135829.215000", "135830.705000", "135832.195000", "135833.685000", "135835.175000", "135836.665000", "135838.155000", "135839.645000", "135841.135000", "135842.625000", "135844.115000", "135845.605000", "135847.095000", "135848.585000", "135850.075000", "135851.565000", "135853.055000", "135854.545000", "135856.035000", "135857.525000", "135859.015000", "135900.505000", "135901.995000", "135903.485000", "135904.975000", "135906.465000", "135907.955000", "135909.445000", "135910.935000", "135912.425000", "135913.915000", "135915.405000", "135916.895000", "135918.385000", "135919.875000", "135921.365000", "135922.855000", "135924.345000", "135925.835000", "135927.325000", "135928.815000", "135930.305000", "135931.795000", "135933.285000", "135934.775000", "135936.265000", "135937.755000", "135939.245000", "135940.735000", "135942.225000", "135943.715000", "135945.205000", "135946.695000", "135948.185000", "135949.675000", "135951.165000", "135952.655000", "135954.145000", "135955.635000", "135957.125000", "135958.615000", "140000.105000", "140001.595000", "140003.085000", "140004.575000", "140006.065000", "140007.555000", "140009.045000", "140010.535000", "140012.025000", "140013.515000", "140015.005000", "140016.495000", "140017.985000", "140019.475000", "140020.965000", "140022.455000", "140023.945000", "140025.435000", "140026.925000", "140028.415000", "140029.905000", "140031.395000", "140032.885000", "140034.375000", "140035.865000", "140037.355000", "140038.845000", "140040.335000", "140041.825000", "140043.315000", "140044.805000", "140046.295000", "140047.785000", "140049.275000", "140050.765000", "140052.255000", "140053.745000", "140055.235000", "140056.725000", "140058.215000", "140059.705000", "140101.195000", "140102.685000", "140104.175000", "140105.665000", "140107.155000", "140108.645000", "140110.135000", "140111.625000", "140113.115000", "140114.605000", "140116.095000", "140117.585000", "140119.075000", "140120.565000", "140122.055000", "140123.545000", "140125.035000", "140126.525000", "140128.015000", "140129.505000", "140130.995000", "140132.485000", "140133.975000", "140135.465000", "140136.955000", "140138.445000", "140139.935000", "140141.425000", "140142.915000", "140144.405000", "140145.895000", "140147.385000", "140148.875000", "140150.365000", "140151.855000", "140153.345000", "140154.835000", "140156.325000", "140157.815000", "140159.305000", "140200.795000", "140202.285000", "140203.775000", "140205.265000", "140206.755000", "140208.245000", "140209.735000", "140211.225000", "140212.715000", "140214.205000", "140215.695000", "140217.185000", "140218.675000", "140220.165000", "140221.655000", "140223.145000", "140224.635000", "140226.125000", "140227.615000", "140229.105000", "140230.595000", "140232.085000", "140233.575000", "140235.065000", "140236.555000", "140238.045000", "140239.535000", "140241.025000", "140242.515000", "140244.005000", "140245.495000", "140246.985000", "140248.475000", "140249.965000", "140251.455000", "140252.945000", "140254.435000", "140255.925000", "140257.415000", "140258.905000", "140300.395000", "140301.885000", "140303.375000", "140304.865000", "140306.355000", "140307.845000", "140309.335000", "140310.825000", "140312.315000", "140313.805000", "140315.295000", "140316.785000", "140318.275000", "140319.765000", "140321.255000", "140322.745000", "140324.235000", "140325.725000", "140327.215000", "140328.705000", "140330.195000", "140331.685000", "140333.175000", "140334.665000", "140336.155000", "140337.645000", "140339.135000", "140340.625000", "140342.115000", "140343.605000", "140345.095000", "140346.585000", "140348.075000", "140349.565000", "140351.055000", "140352.545000", "140354.035000", "140355.525000", "140357.015000", "140358.505000", "140359.995000", "140401.485000", "140402.975000", "140404.465000", "140405.955000", "140407.445000", "140408.935000", "140410.425000", "140411.915000", "140413.405000", "140414.895000", "140416.385000", "140417.875000", "140419.365000", "140420.855000", "140422.345000", "140423.835000", "140425.325000", "140426.815000", "140428.305000", "140429.795000", "140431.285000", "140432.775000", "140434.265000", "140435.755000", "140437.245000", "140438.735000", "140440.225000", "140441.715000", "140443.205000", "140444.695000", "140446.185000", "140447.675000", "140449.165000", "140450.655000", "140452.145000", "140453.635000", "140455.125000", "140456.615000", "140458.105000", "140459.595000", "140501.085000"],
      "ContentTime": ["135503.453000", "135503.457000", "135503.460000", "135503.464000", "135503.467000", "135503.471000", "135503.474000", "135503.477000", "135503.481000", "135503.484000", "135503.487000", "135503.491000", "135503.494000", "135503.505000", "135503.508000", "135503.511000", "135503.515000", "135503.518000", "135503.522000", "135503.525000", "135503.529000", "135503.532000", "135503.536000", "135503.539000", "135503.542000", "135503.546000", "135503.549000", "135503.553000", "135503.556000", "135503.559000", "135503.563000", "135543.416000", "135543.420000", "135543.424000", "135543.427000", "135543.430000", "135543.434000", "135543.437000", "135543.441000", "135543.444000", "135543.447000", "135543.451000", "135543.454000", "135543.457000", "135543.461000", "135543.464000", "135543.468000", "135543.471000", "135543.474000", "135543.478000", "135543.481000", "135543.484000", "135543.488000", "135543.500000", "135543.503000", "135543.507000", "135543.510000", "135543.514000", "135543.517000", "135543.520000", "135543.524000", "135543.527000", "135543.531000", "135543.534000", "135543.537000", "135543.541000", "135543.544000", "135543.547000", "135543.551000", "135543.554000", "135543.558000", "135603.416000", "135603.420000", "135603.423000", "135603.427000", "135603.430000", "135603.433000", "135603.437000", "135603.440000", "135603.444000", "135603.447000", "135603.450000", "135603.454000", "135603.457000", "135603.460000", "135603.464000", "135603.467000", "135603.479000", "135603.483000", "135603.486000", "135603.489000", "135623.417000", "135623.421000", "135623.425000", "135623.428000", "135623.431000", "135623.435000", "135623.438000", "135623.442000", "135623.445000", "135623.449000", "135623.452000", "135623.455000", "135623.459000", "135623.462000", "135623.466000", "135623.469000", "135623.472000", "135623.476000", "135623.479000", "135623.483000", "135703.416000", "135703.420000", "135703.423000", "135703.427000", "135703.430000", "135703.434000", "135703.437000", "135703.440000", "135703.444000", "135703.447000", "135703.451000", "135703.454000", "135703.457000", "135703.461000", "135703.464000", "135703.467000", "135703.471000", "135703.474000", "135703.478000", "135703.481000", "135703.485000", "135703.488000", "135703.492000", "135703.495000", "135703.498000", "135703.502000", "135703.505000", "135703.509000", "135743.416000", "135743.420000", "135743.424000", "135743.427000", "135743.431000", "135743.434000", "135743.438000", "135743.442000", "135743.445000", "135743.449000", "135743.452000", "135743.475000", "135743.478000", "135743.482000", "135743.485000", "135743.488000", "135743.492000", "135743.495000", "135743.499000", "135743.503000", "135743.506000", "135743.510000", "135743.514000", "135743.518000", "135743.524000", "135743.527000", "135823.416000", "135823.420000", "135823.424000", "135823.427000", "135823.431000", "135823.434000", "135823.437000", "135823.441000", "135823.444000", "135823.448000", "135823.451000", "135823.455000", "135823.458000", "135823.461000", "135823.465000", "135823.468000", "135823.472000", "135823.475000", "135823.479000", "135823.482000", "135823.485000", "135823.489000", "135823.492000", "135823.496000", "135823.499000", "135823.503000", "135823.506000", "135903.416000", "135903.420000", "135903.423000", "135903.427000", "135903.430000", "135903.434000", "135903.437000", "135903.441000", "135903.444000", "135903.448000", "135903.451000", "135903.454000", "135903.458000", "135903.461000", "135903.465000", "135903.468000", "135903.471000", "135903.475000", "135903.478000", "135903.482000", "135903.485000", "135903.489000", "135903.492000", "135903.496000", "135903.499000", "135903.502000", "135903.506000", "135943.416000", "135943.420000", "135943.424000", "135943.427000", "135943.430000", "135943.434000", "135943.437000", "135943.441000", "135943.444000", "135943.447000", "135943.451000", "135943.454000", "135943.457000", "135943.461000", "135943.464000", "135943.468000", "135943.471000", "135943.475000", "135943.478000", "135943.482000", "135943.485000", "135943.488000", "135943.492000", "135943.495000", "135943.499000", "135943.502000", "135943.506000", "140023.429000", "140023.433000", "140023.437000", "140023.440000", "140023.443000", "140023.447000", "140023.450000", "140023.454000", "140023.457000", "140023.460000", "140023.464000", "140023.467000", "140023.471000", "140023.474000", "140023.477000", "140023.481000", "140023.484000", "140023.488000", "140023.491000", "140023.495000", "140023.498000", "140023.502000", "140023.505000", "140023.509000", "140023.512000", "140023.515000", "140023.519000", "140103.417000", "140103.421000", "140103.425000", "140103.428000", "140103.431000", "140103.435000", "140103.438000", "140103.442000", "140103.445000", "140103.448000", "140103.452000", "140103.455000", "140103.459000", "140103.462000", "140103.466000", "140103.469000", "140103.472000", "140103.476000", "140103.479000", "140103.483000", "140103.486000", "140103.489000", "140103.493000", "140103.496000", "140103.500000", "140103.503000", "140103.507000", "140123.416000", "140123.420000", "140123.423000", "140123.427000", "140123.430000", "140123.434000", "140123.437000", "140123.441000", "140123.444000", "140123.447000", "140123.451000", "140123.454000", "140123.457000", "140203.416000", "140203.420000", "140203.424000", "140203.427000", "140203.430000", "140203.434000", "140203.437000", "140203.441000", "140203.444000", "140203.447000", "140203.451000", "140203.454000", "140203.458000", "140203.461000", "140203.465000", "140203.468000", "140203.471000", "140203.475000", "140203.478000", "140203.482000", "140203.485000", "140203.488000", "140203.492000", "140203.495000", "140203.499000", "140203.502000", "140203.505000", "140243.416000", "140243.420000", "140243.423000", "140243.427000", "140243.430000", "140243.434000", "140243.437000", "140243.441000", "140243.444000", "140243.447000", "140243.451000", "140243.454000", "140243.458000", "140243.461000", "140243.464000", "140243.468000", "140243.471000", "140243.475000", "140243.478000", "140243.482000", "140243.485000", "140243.488000", "140243.492000", "140243.495000", "140243.499000", "140243.502000", "140243.505000", "140323.417000", "140323.421000", "140323.425000", "140323.428000", "140323.431000", "140323.435000", "140323.440000", "140323.443000", "140323.447000", "140323.450000", "140323.453000", "140323.457000", "140323.460000", "140323.464000", "140323.467000", "140323.470000", "140323.474000", "140323.477000", "140323.481000", "140323.484000", "140323.487000", "140323.491000", "140323.494000", "140323.498000", "140323.501000", "140323.504000", "140323.508000", "140403.417000", "140403.420000", "140403.424000", "140403.427000", "140403.431000", "140403.434000", "140403.437000", "140403.441000", "140403.444000", "140403.448000", "140403.452000", "140403.455000", "140403.459000", "140403.462000", "140403.467000", "140403.471000", "140403.476000", "140403.480000", "140403.484000", "140403.487000", "140403.491000", "140403.494000", "140403.498000", "140403.501000", "140403.505000", "140403.508000", "140443.416000", "140443.420000", "140443.437000", "140443.441000", "140443.444000", "140443.448000", "140443.451000", "140443.454000", "140443.458000", "140443.461000", "140443.465000", "140443.468000", "140443.472000", "140443.475000", "140443.478000", "140443.482000", "140443.485000", "140443.489000", "140443.492000", "140443.496000", "140443.499000", "140443.502000", "140443.506000", "140443.509000", "140443.513000", "140443.516000", "140443.520000", "140504.171000", "140504.175000", "140504.179000", "140504.182000", "140504.185000", "140504.189000", "140504.192000", "140504.196000", "140504.199000", "140504.203000", "140504.206000", "140504.210000", "140504.213000", "140504.217000"],
