{
  "AcquisitionMatrixPE": 104,
  "AcquisitionNumber": 1,
  "AcquisitionTime": "14:08:18.777500",
  "BandwidthPerPixelPhaseEncode": 17.17,
  "BaseResolution": 104,
  "BodyPartExamined": "BRAIN",
  "CoilCombinationMethod": "Sum of Squares",
  "ConsistencyInfo": "N4_VE11C_LATEST_20160120",
  "ConversionSoftware": "dcm2niix",
  "ConversionSoftwareVersion": "v1.0.20211006",
  "DerivedVendorReportedEchoSpacing": 0.000560011,
  "DeviceSerialNumber": "167006",
  "DwellTime": 2.1e-06,
  "EchoTime": 0.037,
  "EchoTrainLength": 104,
  "EffectiveEchoSpacing": 0.000560011,
  "FlipAngle": 52,
  "HeudiconvVersion": "0.5.3.post569+g418601f",
  "ImageComments": "Unaliased MB4/PE3/LB",
  "ImageOrientationPatientDICOM": [0.999523, 0.0215614, 0.0220903, -0.0148294, 0.96303, -0.268985],
  "ImageOrientationText": "Tra>Cor(-15.6)>Sag(1.6)",
  "ImageType": [
    "ORIGINAL",
    "PRIMARY",
    "M",
    "MB",
    "ND",
    "MOSAIC"
],
  "ImagingFrequency": 123.259,
  "InPlanePhaseEncodingDirectionDICOM": "COL",
  "InstitutionAddress": "Chemin Queen-Mary 4565,Montreal,District,CA,H3W 1W5",
  "InstitutionName": "IUGM",
  "InstitutionalDepartmentName": "Department",
  "MRAcquisitionType": "2D",
  "MagneticFieldStrength": 3,
  "Manufacturer": "Siemens",
  "ManufacturersModelName": "Prisma_fit",
  "MatrixCoilMode": "SENSE",
  "Modality": "MR",
  "MultibandAccelerationFactor": 4,
  "PartialFourier": 1,
  "PatientPosition": "HFS",
  "PercentPhaseFOV": 100,
  "PercentSampling": 100,
  "PhaseEncodingDirection": "j",
  "PhaseEncodingSteps": 104,
  "PhaseResolution": 1,
  "PixelBandwidth": 2290,
  "ProcedureStepDescription": "games^mario",
  "ProtocolName": "func_task-mario_run-02",
  "PulseSequenceDetails": "%CustomerSeq%\\cmrr_mbep2d_bold",
  "ReceiveCoilActiveElements": "HC1-7;NC1,2",
  "ReceiveCoilName": "HeadNeck_64",
  "ReconMatrixPE": 104,
  "RepetitionTime": 1.49,
  "SAR": 0.0548282,
  "ScanOptions": "FS",
  "ScanningSequence": "EP",
  "SequenceName": "epfid2d1_104",
  "SequenceVariant": "SK\\SS",
  "SeriesDescription": "func_task-mario_run-02",
  "SeriesNumber": 13,
  "ShimSetting": [637, -7209, -8810, 714, 41, -14, 33, -11],
  "SliceThickness": 2,
  "SliceTiming": [0, 0.785, 0.0975, 0.8825, 0.1975, 0.98, 0.295, 1.0775, 0.3925, 1.1775, 0.49, 1.275, 0.5875, 1.3725, 0.6875, 0, 0.785, 0.0975, 0.8825, 0.1975, 0.98, 0.295, 1.0775, 0.3925, 1.1775, 0.49, 1.275, 0.5875, 1.3725, 0.6875, 0, 0.785, 0.0975, 0.8825, 0.1975, 0.98, 0.295, 1.0775, 0.3925, 1.1775, 0.49, 1.275, 0.5875, 1.3725, 0.6875, 0, 0.785, 0.0975, 0.8825, 0.1975, 0.98, 0.295, 1.0775, 0.3925, 1.1775, 0.49, 1.275, 0.5875, 1.3725, 0.6875],
  "SoftwareVersions": "syngo MR E11",
  "SpacingBetweenSlices": 2,
  "StationName": "MRC35049",
  "TaskName": "mario",
  "TotalReadoutTime": 0.0576811,
  "TxRefAmp": 234.744,
  "WipMemBlock": "28da0bdc-cbfb-4402-bb31-b0534e88594b||Sequence: R016 ve11c/master r/e634e98; Dec 19 2017 11:00:25 by eja",
  "dcmmeta_affine": [
    [-1.9990469217300415, -0.02965872548520565, 0.054146621376276016, 108.39876556396484],
    [-0.04312273859977722, 1.9260605573654175, -0.5370580554008484, -70.12000274658203],
    [0.04418060556054115, 0.5379695892333984, 1.9257822036743164, -69.45690155029297],
    [0.0, 0.0, 0.0, 1.0]
],
  "dcmmeta_reorient_transform": [
    [0.0, -1.0, 0.0, 103.0],
    [1.0, 0.0, 0.0, 0.0],
    [0.0, 0.0, 1.0, 0.0],
    [0.0, 0.0, 0.0, 1.0]
],
  "dcmmeta_shape": [104, 104, 60, 498],
  "dcmmeta_slice_dim": 2,
  "dcmmeta_version": 0.6,
  "global": {
    "const": {
      "AcquisitionMatrix": [104, 0, 0, 104],
      "AngioFlag": "N",
      "BitsAllocated": 16,
      "BitsStored": 16,
      "BodyPartExamined": "BRAIN",
      "Columns": 832,
      "EchoNumbers": 1,
      "EchoTime": 37.0,
      "EchoTrainLength": 104,
      "FlipAngle": 52.0,
      "HighBit": 15,
      "ImageOrientationPatient": [0.99952344940886, 0.02156136919289, 0.02209030195249, -0.0148293623381, 0.96303025287239, -0.2689847989482],
      "ImagePositionPatient": [-822.20121161543, -845.04693259176, 165.69316089249],
      "ImageType": [
        "ORIGINAL",
        "PRIMARY",
        "M",
        "MB",
        "ND",
        "MOSAIC"
],
      "ImagedNucleus": "1H",
      "ImagingFrequency": 123.25886,
      "InPlanePhaseEncodingDirection": "COL",
      "MRAcquisitionType": "2D",
      "MagneticFieldStrength": 3.0,
      "Manufacturer": "SIEMENS",
      "ManufacturerModelName": "Prisma_fit",
      "Modality": "MR",
      "NumberOfAverages": 1.0,
      "NumberOfPhaseEncodingSteps": 104,
      "PercentPhaseFieldOfView": 100.0,
      "PercentSampling": 100.0,
      "PerformedProcedureStepStartTime": "130719.866000",
      "PhotometricInterpretation": "MONOCHROME2",
      "PixelBandwidth": 2290.0,
      "PixelRepresentation": 0,
      "PixelSpacing": [2.0, 2.0],
      "ProtocolName": "func_task-mario_run-02",
      "RepetitionTime": 1490.0,
      "Rows": 832,
      "SAR": 0.05482824824118,
      "SamplesPerPixel": 1,
      "ScanOptions": "FS",
      "ScanningSequence": "EP",
      "SequenceName": "epfid2d1_104",
      "SequenceVariant": [
        "SK",
        "SS"
],
      "SeriesDescription": "func_task-mario_run-02",
      "SeriesNumber": 13,
      "SeriesTime": "140936.636000",
      "SliceLocation": -45.115460688196,
      "SliceThickness": 2.0,
      "SmallestImagePixelValue": 0,
      "SoftwareVersions": "syngo MR E11",
      "SpacingBetweenSlices": 2.0000000295695,
      "SpecificCharacterSet": "ISO_IR 100",
      "StudyID": "1",
      "StudyTime": "130719.804000",
      "TransmitCoilName": "Body",
      "VariableFlipAngleFlag": "N",
      "WindowCenterWidthExplanation": "Algo1",
      "dBdt": 0.0},
    "slices": {}
  },
  "time": {
    "samples": {
      "AcquisitionNumber": [1, 2, 3, 4, 5, 6, 7, 8, 9, 10, 11, 12, 13, 14, 15, 16, 17, 18, 19, 20, 21, 22, 23, 24, 25, 26, 27, 28, 29, 30, 31, 32, 33, 34, 35, 36, 37, 38, 39, 40, 41, 42, 43, 44, 45, 46, 47, 48, 49, 50, 51, 52, 53, 54, 55, 56, 57, 58, 59, 60, 61, 62, 63, 64, 65, 66, 67, 68, 69, 70, 71, 72, 73, 74, 75, 76, 77, 78, 79, 80, 81, 82, 83, 84, 85, 86, 87, 88, 89, 90, 91, 92, 93, 94, 95, 96, 97, 98, 99, 100, 101, 102, 103, 104, 105, 106, 107, 108, 109, 110, 111, 112, 113, 114, 115, 116, 117, 118, 119, 120, 121, 122, 123, 124, 125, 126, 127, 128, 129, 130, 131, 132, 133, 134, 135, 136, 137, 138, 139, 140, 141, 142, 143, 144, 145, 146, 147, 148, 149, 150, 151, 152, 153, 154, 155, 156, 157, 158, 159, 160, 161, 162, 163, 164, 165, 166, 167, 168, 169, 170, 171, 172, 173, 174, 175, 176, 177, 178, 179, 180, 181, 182, 183, 184, 185, 186, 187, 188, 189, 190, 191, 192, 193, 194, 195, 196, 197, 198, 199, 200, 201, 202, 203, 204, 205, 206, 207, 208, 209, 210, 211, 212, 213, 214, 215, 216, 217, 218, 219, 220, 221, 222, 223, 224, 225, 226, 227, 228, 229, 230, 231, 232, 233, 234, 235, 236, 237, 238, 239, 240, 241, 242, 243, 244, 245, 246, 247, 248, 249, 250, 251, 252, 253, 254, 255, 256, 257, 258, 259, 260, 261, 262, 263, 264, 265, 266, 267, 268, 269, 270, 271, 272, 273, 274, 275, 276, 277, 278, 279, 280, 281, 282, 283, 284, 285, 286, 287, 288, 289, 290, 291, 292, 293, 294, 295, 296, 297, 298, 299, 300, 301, 302, 303, 304, 305, 306, 307, 308, 309, 310, 311, 312, 313, 314, 315, 316, 317, 318, 319, 320, 321, 322, 323, 324, 325, 326, 327, 328, 329, 330, 331, 332, 333, 334, 335, 336, 337, 338, 339, 340, 341, 342, 343, 344, 345, 346, 347, 348, 349, 350, 351, 352, 353, 354, 355, 356, 357, 358, 359, 360, 361, 362, 363, 364, 365, 366, 367, 368, 369, 370, 371, 372, 373, 374, 375, 376, 377, 378, 379, 380, 381, 382, 383, 384, 385, 386, 387, 388, 389, 390, 391, 392, 393, 394, 395, 396, 397, 398, 399, 400, 401, 402, 403, 404, 405, 406, 407, 408, 409, 410, 411, 412, 413, 414, 415, 416, 417, 418, 419, 420, 421, 422, 423, 424, 425, 426, 427, 428, 429, 430, 431, 432, 433, 434, 435, 436, 437, 438, 439, 440, 441, 442, 443, 444, 445, 446, 447, 448, 449, 450, 451, 452, 453, 454, 455, 456, 457, 458, 459, 460, 461, 462, 463, 464, 465, 466, 467, 468, 469, 470, 471, 472, 473, 474, 475, 476, 477, 478, 479, 480, 481, 482, 483, 484, 485, 486, 487, 488, 489, 490, 491, 492, 493, 494, 495, 496, 497, 498],
      "AcquisitionTime": ["140818.777500", "140820.267500", "140821.757500", "140823.247500", "140824.737500", "140826.227500", "140827.717500", "140829.207500", "140830.697500", "140832.187500", "140833.677500", "140835.167500", "140836.657500", "140838.147500", "140839.637500", "140841.127500", "140842.617500", "140844.107500", "140845.597500", "140847.087500", "140848.577500", "140850.067500", "140851.557500", "140853.047500", "140854.537500", "140856.027500", "140857.517500", "140859.007500", "140900.497500", "140901.987500", "140903.477500", "140904.967500", "140906.457500", "140907.947500", "140909.437500", "140910.927500", "140912.417500", "140913.907500", "140915.397500", "140916.887500", "140918.377500", "140919.867500", "140921.357500", "140922.847500", "140924.337500", "140925.827500", "140927.317500", "140928.807500", "140930.297500", "140931.787500", "140933.277500", "140934.767500", "140936.257500", "140937.747500", "140939.237500", "140940.727500", "140942.217500", "140943.707500", "140945.197500", "140946.687500", "140948.177500", "140949.667500", "140951.157500", "140952.647500", "140954.137500", "140955.627500", "140957.117500", "140958.607500", "141000.097500", "141001.587500", "141003.077500", "141004.567500", "141006.057500", "141007.547500", "141009.037500", "141010.527500", "141012.017500", "141013.507500", "141014.997500", "141016.487500", "141017.977500", "141019.467500", "141020.957500", "141022.447500", "141023.937500", "141025.427500", "141026.917500", "141028.407500", "141029.897500", "141031.387500", "141032.877500", "141034.367500", "141035.857500", "141037.347500", "141038.837500", "141040.327500", "141041.817500", "141043.307500", "141044.797500", "141046.287500", "141047.777500", "141049.267500", "141050.757500", "141052.247500", "141053.737500", "141055.227500", "141056.717500", "141058.207500", "141059.697500", "141101.187500", "141102.677500", "141104.167500", "141105.657500", "141107.147500", "141108.637500", "141110.127500", "141111.617500", "141113.107500", "141114.597500", "141116.087500", "141117.577500", "141119.067500", "141120.557500", "141122.047500", "141123.537500", "141125.027500", "141126.517500", "141128.007500", "141129.497500", "141130.987500", "141132.477500", "141133.967500", "141135.457500", "141136.947500", "141138.437500", "141139.927500", "141141.417500", "141142.907500", "141144.397500", "141145.887500", "141147.377500", "141148.867500", "141150.357500", "141151.847500", "141153.337500", "141154.827500", "141156.317500", "141157.807500", "141159.297500", "141200.787500", "141202.277500", "141203.767500", "141205.257500", "141206.747500", "141208.237500", "141209.727500", "141211.217500", "141212.707500", "141214.197500", "141215.687500", "141217.177500", "141218.667500", "141220.157500", "141221.647500", "141223.137500", "141224.627500", "141226.117500", "141227.607500", "141229.097500", "141230.587500", "141232.077500", "141233.567500", "141235.057500", "141236.547500", "141238.037500", "141239.527500", "141241.017500", "141242.507500", "141243.997500", "141245.487500", "141246.977500", "141248.467500", "141249.957500", "141251.447500", "141252.937500", "141254.427500", "141255.917500", "141257.407500", "141258.897500", "141300.387500", "141301.877500", "141303.367500", "141304.857500", "141306.347500", "141307.837500", "141309.327500", "141310.817500", "141312.307500", "141313.797500", "141315.287500", "141316.777500", "141318.267500", "141319.757500", "141321.247500", "141322.737500", "141324.227500", "141325.717500", "141327.207500", "141328.697500", "141330.187500", "141331.677500", "141333.167500", "141334.657500", "141336.147500", "141337.637500", "141339.127500", "141340.617500", "141342.107500", "141343.597500", "141345.087500", "141346.577500", "141348.067500", "141349.557500", "141351.047500", "141352.537500", "141354.027500", "141355.517500", "141357.007500", "141358.497500", "141359.987500", "141401.477500", "141402.967500", "141404.457500", "141405.947500", "141407.437500", "141408.927500", "141410.417500", "141411.907500", "141413.397500", "141414.887500", "141416.377500", "141417.867500", "141419.357500", "141420.847500", "141422.337500", "141423.827500", "141425.317500", "141426.807500", "141428.297500", "141429.787500", "141431.277500", "141432.767500", "141434.257500", "141435.747500", "141437.237500", "141438.727500", "141440.217500", "141441.707500", "141443.197500", "141444.687500", "141446.177500", "141447.667500", "141449.157500", "141450.647500", "141452.137500", "141453.627500", "141455.117500", "141456.607500", "141458.097500", "141459.587500", "141501.077500", "141502.567500", "141504.057500", "141505.547500", "141507.037500", "141508.527500", "141510.017500", "141511.507500", "141512.997500", "141514.487500", "141515.977500", "141517.467500", "141518.957500", "141520.447500", "141521.937500", "141523.427500", "141524.917500", "141526.407500", "141527.897500", "141529.387500", "141530.877500", "141532.367500", "141533.857500", "141535.347500", "141536.837500", "141538.327500", "141539.817500", "141541.307500", "141542.797500", "141544.287500", "141545.777500", "141547.267500", "141548.757500", "141550.247500", "141551.737500", "141553.227500", "141554.717500", "141556.207500", "141557.697500", "141559.187500", "141600.677500", "141602.167500", "141603.657500", "141605.147500", "141606.637500", "141608.127500", "141609.617500", "141611.107500", "141612.597500", "141614.087500", "141615.577500", "141617.067500", "141618.557500", "141620.047500", "141621.537500", "141623.027500", "141624.517500", "141626.007500", "141627.497500", "141628.987500", "141630.477500", "141631.967500", "141633.457500", "141634.947500", "141636.437500", "141637.927500", "141639.417500", "141640.907500", "141642.397500", "141643.887500", "141645.377500", "141646.867500", "141648.357500", "141649.847500", "141651.337500", "141652.827500", "141654.317500", "141655.807500", "141657.297500", "141658.787500", "141700.277500", "141701.767500", "141703.257500", "141704.747500", "141706.237500", "141707.727500", "141709.217500", "141710.707500", "141712.197500", "141713.687500", "141715.177500", "141716.667500", "141718.157500", "141719.647500", "141721.137500", "141722.627500", "141724.117500", "141725.607500", "141727.097500", "141728.587500", "141730.077500", "141731.567500", "141733.057500", "141734.547500", "141736.037500", "141737.527500", "141739.017500", "141740.507500", "141741.997500", "141743.487500", "141744.977500", "141746.467500", "141747.957500", "141749.447500", "141750.937500", "141752.427500", "141753.917500", "141755.407500", "141756.897500", "141758.387500", "141759.877500", "141801.367500", "141802.857500", "141804.347500", "141805.837500", "141807.327500", "141808.817500", "141810.307500", "141811.797500", "141813.287500", "141814.777500", "141816.267500", "141817.757500", "141819.247500", "141820.737500", "141822.227500", "141823.717500", "141825.207500", "141826.697500", "141828.187500", "141829.677500", "141831.167500", "141832.657500", "141834.147500", "141835.637500", "141837.127500", "141838.617500", "141840.107500", "141841.597500", "141843.087500", "141844.577500", "141846.067500", "141847.557500", "141849.047500", "141850.537500", "141852.027500", "141853.517500", "141855.007500", "141856.497500", "141857.987500", "141859.477500", "141900.967500", "141902.457500", "141903.947500", "141905.437500", "141906.927500", "141908.417500", "141909.907500", "141911.397500", "141912.887500", "141914.377500", "141915.867500", "141917.357500", "141918.847500", "141920.337500", "141921.827500", "141923.317500", "141924.807500", "141926.297500", "141927.787500", "141929.277500", "141930.767500", "141932.257500", "141933.747500", "141935.237500", "141936.727500", "141938.217500", "141939.707500", "141941.197500", "141942.687500", "141944.177500", "141945.667500", "141947.157500", "141948.647500", "141950.137500", "141951.627500", "141953.117500", "141954.607500", "141956.097500", "141957.587500", "141959.077500", "142000.567500", "142002.057500", "142003.547500", "142005.037500", "142006.527500", "142008.017500", "142009.507500", "142010.997500", "142012.487500", "142013.977500", "142015.467500", "142016.957500", "142018.447500", "142019.937500", "142021.427500", "142022.917500", "142024.407500", "142025.897500", "142027.387500", "142028.877500", "142030.367500", "142031.857500", "142033.347500", "142034.837500", "142036.327500", "142037.817500", "142039.307500"],
      "ContentTime": ["140936.640000", "140936.644000", "140936.647000", "140936.650000", "140936.654000", "140936.657000", "140936.661000", "140936.664000", "140936.668000", "140936.671000", "140936.674000", "140936.678000", "140936.681000", "140936.685000", "140936.688000", "140936.692000", "140936.695000", "140936.699000", "140936.702000", "140936.705000", "140936.709000", "140936.712000", "140936.716000", "140936.719000", "140956.601000", "140956.605000", "140956.608000", "140956.612000", "140956.615000", "140956.619000", "140956.622000", "140956.625000", "140956.629000", "140956.632000", "140956.636000", "140956.639000", "140956.643000", "140956.646000", "140956.649000", "140956.653000", "140956.656000", "140956.660000", "140956.663000", "140956.667000", "141016.615000", "141016.618000", "141016.622000", "141016.625000", "141016.629000", "141016.632000", "141016.635000", "141016.639000", "141016.642000", "141016.646000", "141016.649000", "141016.653000", "141016.656000", "141016.659000", "141016.663000", "141016.666000", "141016.670000", "141016.673000", "141016.676000", "141016.680000", "141016.683000", "141036.601000", "141036.605000", "141036.609000", "141036.612000", "141036.615000", "141036.626000", "141036.629000", "141036.632000", "141036.636000", "141036.640000", "141036.643000", "141036.647000", "141036.650000", "141036.654000", "141036.657000", "141036.660000", "141036.664000", "141036.667000", "141036.670000", "141036.674000", "141056.602000", "141056.606000", "141056.610000", "141056.613000", "141056.616000", "141056.620000", "141056.623000", "141056.627000", "141056.630000", "141056.634000", "141056.637000", "141056.640000", "141056.644000", "141056.647000", "141056.651000", "141056.654000", "141056.657000", "141056.661000", "141056.664000", "141056.668000", "141116.603000", "141116.606000", "141116.610000", "141116.613000", "141116.617000", "141116.620000", "141116.624000", "141116.627000", "141116.630000", "141116.634000", "141116.637000", "141116.641000", "141116.644000", "141116.648000", "141156.601000", "141156.605000", "141156.609000", "141156.612000", "141156.615000", "141156.619000", "141156.622000", "141156.626000", "141156.629000", "141156.633000", "141156.636000", "141156.640000", "141156.643000", "141156.646000", "141156.650000", "141156.653000", "141156.657000", "141156.660000", "141156.664000", "141156.669000", "141156.673000", "141156.677000", "141156.680000", "141156.684000", "141156.687000", "141156.691000", "141236.601000", "141236.605000", "141236.609000", "141236.612000", "141236.615000", "141236.619000", "141236.622000", "141236.625000", "141236.629000", "141236.632000", "141236.636000", "141236.639000", "141236.642000", "141236.646000", "141236.649000", "141236.653000", "141236.656000", "141236.659000", "141236.663000", "141236.666000", "141236.670000", "141236.673000", "141236.676000", "141236.680000", "141236.683000", "141236.686000", "141236.690000", "141316.602000", "141316.606000", "141316.610000", "141316.613000", "141316.616000", "141316.620000", "141316.623000", "141316.627000", "141316.630000", "141316.633000", "141316.637000", "141316.640000", "141316.644000", "141316.647000", "141316.651000", "141316.654000", "141316.657000", "141316.661000", "141316.664000", "141316.668000", "141316.671000", "141316.674000", "141316.678000", "141316.681000", "141316.684000", "141316.688000", "141316.691000", "141356.601000", "141356.605000", "141356.608000", "141356.612000", "141356.615000", "141356.619000", "141356.622000", "141356.625000", "141356.629000", "141356.632000", "141356.636000", "141356.639000", "141356.642000", "141356.646000", "141356.649000", "141356.653000", "141356.656000", "141356.659000", "141356.663000", "141356.666000", "141356.669000", "141356.673000", "141356.676000", "141356.680000", "141356.683000", "141356.686000", "141356.690000", "141436.601000", "141436.605000", "141436.609000", "141436.612000", "141436.615000", "141436.619000", "141436.622000", "141436.626000", "141436.629000", "141436.632000", "141436.636000", "141436.639000", "141436.643000", "141436.646000", "141436.649000", "141436.667000", "141436.670000", "141436.673000", "141436.677000", "141436.680000", "141436.684000", "141436.687000", "141436.690000", "141436.694000", "141436.697000", "141436.701000", "141436.704000", "141516.601000", "141516.605000", "141516.609000", "141516.612000", "141516.615000", "141516.619000", "141516.622000", "141516.626000", "141516.629000", "141516.632000", "141516.636000", "141516.639000", "141516.643000", "141516.646000", "141516.649000", "141516.653000", "141516.656000", "141516.660000", "141516.663000", "141516.666000", "141516.670000", "141516.673000", "141516.677000", "141516.680000", "141516.683000", "141516.687000", "141516.690000", "141556.602000", "141556.606000", "141556.610000", "141556.613000", "141556.616000", "141556.620000", "141556.623000", "141556.627000", "141556.630000", "141556.634000", "141556.637000", "141556.640000", "141556.644000", "141556.647000", "141556.651000", "141556.654000", "141556.657000", "141556.661000", "141556.664000", "141556.668000", "141556.671000", "141556.674000", "141556.678000", "141556.681000", "141556.684000", "141556.688000", "141556.691000", "141636.602000", "141636.605000", "141636.609000", "141636.612000", "141636.616000", "141636.619000", "141636.622000", "141636.626000", "141636.629000", "141636.637000", "141636.640000", "141636.644000", "141636.647000", "141636.651000", "141636.655000", "141636.659000", "141636.662000", "141636.666000", "141636.669000", "141636.673000", "141636.676000", "141636.679000", "141636.683000", "141636.686000", "141636.690000", "141636.693000", "141716.601000", "141716.605000", "141716.609000", "141716.612000", "141716.616000", "141716.619000", "141716.623000", "141716.626000", "141716.630000", "141716.633000", "141716.637000", "141716.640000", "141716.643000", "141716.647000", "141716.650000", "141716.654000", "141716.657000", "141716.661000", "141716.664000", "141716.668000", "141716.671000", "141716.675000", "141716.678000", "141716.681000", "141716.685000", "141716.688000", "141716.692000", "141756.602000", "141756.606000", "141756.610000", "141756.613000", "141756.617000", "141756.620000", "141756.624000", "141756.627000", "141756.631000", "141756.635000", "141756.639000", "141756.643000", "141756.646000", "141756.649000", "141756.653000", "141756.656000", "141756.660000", "141756.663000", "141756.667000", "141756.670000", "141756.673000", "141756.677000", "141756.681000", "141756.684000", "141756.688000", "141756.691000", "141756.695000", "141836.601000", "141836.605000", "141836.609000", "141836.612000", "141836.616000", "141836.619000", "141836.623000", "141836.626000", "141836.630000", "141836.633000", "141836.637000", "141836.640000", "141836.644000", "141836.647000", "141836.650000", "141836.654000", "141836.657000", "141836.661000", "141836.664000", "141836.668000", "141836.671000", "141836.674000", "141836.678000", "141836.681000", "141836.685000", "141836.688000", "141836.691000", "141916.601000", "141916.621000", "141916.624000", "141916.628000", "141916.631000", "141916.635000", "141916.638000", "141916.642000", "141916.645000", "141916.648000", "141916.652000", "141916.660000", "141916.664000", "141916.667000", "141916.671000", "141916.674000", "141916.678000", "141916.681000", "141916.685000", "141916.688000", "141916.691000", "141916.695000", "141916.698000", "141916.702000", "141916.705000", "141916.709000", "141916.712000", "141956.601000", "141956.605000", "141956.609000", "141956.613000", "141956.616000", "141956.620000", "141956.623000", "141956.627000", "141956.630000", "141956.634000", "141956.637000", "141956.641000", "141956.644000", "141956.647000", "141956.651000", "141956.654000", "141956.658000", "141956.661000", "141956.665000", "141956.668000", "141956.672000", "141956.675000", "141956.679000", "141956.682000", "141956.686000", "141956.689000", "141956.692000", "142036.602000", "142036.606000", "142036.609000", "142036.613000", "142036.616000", "142036.620000", "142036.623000", "142036.627000", "142036.630000", "142036.633000", "142036.637000", "142036.640000", "142036.644000", "142036.647000", "142036.650000", "142036.654000", "142036.658000", "142036.662000", "142036.666000", "142036.669000", "142036.673000", "142036.677000", "142036.681000", "142036.684000", "142036.688000", "142036.692000", "142041.870000", "142041.874000", "142041.878000", "142041.881000"],
