{
  "AcquisitionMatrixPE": 104,
  "AcquisitionNumber": 1,
  "AcquisitionTime": "18:36:0.722500",
  "BandwidthPerPixelPhaseEncode": 17.17,
  "BaseResolution": 104,
  "BodyPartExamined": "BRAIN",
  "CoilCombinationMethod": "Sum of Squares",
  "ConsistencyInfo": "N4_VE11C_LATEST_20160120",
  "ConversionSoftware": "dcm2niix",
  "ConversionSoftwareVersion": "v1.0.20211006",
  "DerivedVendorReportedEchoSpacing": 0.000560011,
  "DeviceSerialNumber": "167006",
  "DwellTime": 2.1e-06,
  "EchoTime": 0.037,
  "EchoTime1": 0.037,
  "EchoTime2": 0.001,
  "EchoTrainLength": 104,
  "EffectiveEchoSpacing": 0.000560011,
  "FlipAngle": 52,
  "HeudiconvVersion": "0.11.3.post9+gc939bf8",
  "ImageComments": "Unaliased MB4/PE3/LB",
  "ImageOrientationPatientDICOM": [0.999873, -0.0142094, -0.0072798, 0.0106455, 0.933168, -0.359284],
  "ImageOrientationText": "Tra>Cor(-21.1)>Sag(-0.7)",
  "ImageType": [
    "ORIGINAL",
    "PRIMARY",
    "P",
    "MB",
    "ND",
    "MOSAIC",
    "PHASE"
],
  "ImagingFrequency": 123.259,
  "InPlanePhaseEncodingDirectionDICOM": "COL",
  "InstitutionAddress": "Chemin Queen-Mary 4565,Montreal,District,CA,H3W 1W5",
  "InstitutionName": "IUGM",
  "InstitutionalDepartmentName": "Department",
  "MRAcquisitionType": "2D",
  "MagneticFieldStrength": 3,
  "Manufacturer": "Siemens",
  "ManufacturersModelName": "Prisma_fit",
  "MatrixCoilMode": "SENSE",
  "Modality": "MR",
  "MultibandAccelerationFactor": 4,
  "PartialFourier": 1,
  "PatientPosition": "HFS",
  "PercentPhaseFOV": 100,
  "PercentSampling": 100,
  "PhaseEncodingDirection": "j",
  "PhaseEncodingSteps": 104,
  "PhaseResolution": 1,
  "PixelBandwidth": 2290,
  "ProcedureStepDescription": "games^mario",
  "ProtocolName": "func_task-mario_run-05",
  "PulseSequenceDetails": "%CustomerSeq%\\cmrr_mbep2d_bold",
  "ReceiveCoilActiveElements": "HC1-7;NC1,2",
  "ReceiveCoilName": "HeadNeck_64",
  "ReconMatrixPE": 104,
  "RepetitionTime": 1.49,
  "SAR": 0.0734165,
  "ScanOptions": "FS",
  "ScanningSequence": "EP",
  "SequenceName": "epfid2d1_104",
  "SequenceVariant": "SK\\SS",
  "SeriesDescription": "func_task-mario_run-05",
  "SeriesNumber": 23,
  "ShimSetting": [601, -7260, -8833, 388, -2, -338, 14, 38],
  "SliceThickness": 2,
  "SliceTiming": [0, 0.785, 0.0975, 0.8825, 0.1975, 0.98, 0.295, 1.0775, 0.3925, 1.175, 0.49, 1.275, 0.5875, 1.3725, 0.6875, 0, 0.785, 0.0975, 0.8825, 0.1975, 0.98, 0.295, 1.0775, 0.3925, 1.175, 0.49, 1.275, 0.5875, 1.3725, 0.6875, 0, 0.785, 0.0975, 0.8825, 0.1975, 0.98, 0.295, 1.0775, 0.3925, 1.175, 0.49, 1.275, 0.5875, 1.3725, 0.6875, 0, 0.785, 0.0975, 0.8825, 0.1975, 0.98, 0.295, 1.0775, 0.3925, 1.175, 0.49, 1.275, 0.5875, 1.3725, 0.6875],
  "SoftwareVersions": "syngo MR E11",
  "SpacingBetweenSlices": 2,
  "StationName": "MRC35049",
  "TaskName": "mario",
  "TotalReadoutTime": 0.0576811,
  "TxRefAmp": 296.655,
  "WipMemBlock": "f1af6069-88a5-403d-b08a-3c968ff91e64||Sequence: R017 ve11c/master r/75a17815+; Jun 28 2022 16:32:11 by eja",
  "dcmmeta_affine": [
    [-1.9997451305389404, 0.0212910957634449, -0.023796938359737396, 103.47882843017578],
    [0.028418706730008125, 1.866335153579712, -0.7183214426040649, -63.493988037109375],
    [-0.014559605158865452, 0.7185680270195007, 1.8663997650146484, -63.795509338378906],
    [0.0, 0.0, 0.0, 1.0]
],
  "dcmmeta_reorient_transform": [
    [0.0, -1.0, 0.0, 103.0],
    [1.0, 0.0, 0.0, 0.0],
    [0.0, 0.0, 1.0, 0.0],
    [0.0, 0.0, 0.0, 1.0]
],
  "dcmmeta_shape": [104, 104, 60, 432],
  "dcmmeta_slice_dim": 2,
  "dcmmeta_version": 0.6,
  "global": {
    "const": {
      "AcquisitionMatrix": [104, 0, 0, 104],
      "AngioFlag": "N",
      "BitsAllocated": 16,
      "BitsStored": 16,
      "BodyPartExamined": "BRAIN",
      "Columns": 832,
      "EchoNumbers": 1,
      "EchoTime": 37.0,
      "EchoTrainLength": 104,
      "FlipAngle": 52.0,
      "HighBit": 15,
      "ImageOrientationPatient": [0.99987254125292, -0.0142093534195, -0.0072798024583, 0.01064554771021, 0.93316754710645, -0.3592840120869],
      "ImagePositionPatient": [-841.32898362681, -797.74009107942, 277.07545405321],
      "ImageType": [
        "ORIGINAL",
        "PRIMARY",
        "P",
        "MB",
        "ND",
        "MOSAIC"
],
      "ImagedNucleus": "1H",
      "ImagingFrequency": 123.258787,
      "InPlanePhaseEncodingDirection": "COL",
      "LargestImagePixelValue": 4095,
      "MRAcquisitionType": "2D",
      "MagneticFieldStrength": 3.0,
      "Manufacturer": "SIEMENS",
      "ManufacturerModelName": "Prisma_fit",
      "Modality": "MR",
      "NumberOfAverages": 1.0,
      "NumberOfPhaseEncodingSteps": 104,
      "PercentPhaseFieldOfView": 100.0,
      "PercentSampling": 100.0,
      "PerformedProcedureStepStartTime": "174025.388000",
      "PhotometricInterpretation": "MONOCHROME2",
      "PixelBandwidth": 2290.0,
      "PixelRepresentation": 0,
      "PixelSpacing": [2.0, 2.0],
      "ProtocolName": "func_task-mario_run-05",
      "RepetitionTime": 1490.0,
      "RescaleIntercept": -4096.0,
      "RescaleSlope": 2.0,
      "RescaleType": "US",
      "Rows": 832,
      "SAR": 0.07341652525566,
      "SamplesPerPixel": 1,
      "ScanOptions": "FS",
      "ScanningSequence": "EP",
      "SequenceName": "epfid2d1_104",
      "SequenceVariant": [
        "SK",
        "SS"
],
      "SeriesDescription": "func_task-mario_run-05",
      "SeriesNumber": 23,
      "SeriesTime": "183729.387000",
      "SliceLocation": -37.960654248654,
      "SliceThickness": 2.0,
      "SmallestImagePixelValue": 0,
      "SoftwareVersions": "syngo MR E11",
      "SpacingBetweenSlices": 1.9999999883461,
      "SpecificCharacterSet": "ISO_IR 100",
      "StudyID": "1",
      "StudyTime": "174025.317000",
      "TransmitCoilName": "Body",
      "VariableFlipAngleFlag": "N",
      "WindowCenterWidthExplanation": "Algo1",
      "dBdt": 0.0},
    "slices": {}
  },
  "time": {
    "samples": {
      "AcquisitionNumber": [1, 2, 3, 4, 5, 6, 7, 8, 9, 10, 11, 12, 13, 14, 15, 16, 17, 18, 19, 20, 21, 22, 23, 24, 25, 26, 27, 28, 29, 30, 31, 32, 33, 34, 35, 36, 37, 38, 39, 40, 41, 42, 43, 44, 45, 46, 47, 48, 49, 50, 51, 52, 53, 54, 55, 56, 57, 58, 59, 60, 61, 62, 63, 64, 65, 66, 67, 68, 69, 70, 71, 72, 73, 74, 75, 76, 77, 78, 79, 80, 81, 82, 83, 84, 85, 86, 87, 88, 89, 90, 91, 92, 93, 94, 95, 96, 97, 98, 99, 100, 101, 102, 103, 104, 105, 106, 107, 108, 109, 110, 111, 112, 113, 114, 115, 116, 117, 118, 119, 120, 121, 122, 123, 124, 125, 126, 127, 128, 129, 130, 131, 132, 133, 134, 135, 136, 137, 138, 139, 140, 141, 142, 143, 144, 145, 146, 147, 148, 149, 150, 151, 152, 153, 154, 155, 156, 157, 158, 159, 160, 161, 162, 163, 164, 165, 166, 167, 168, 169, 170, 171, 172, 173, 174, 175, 176, 177, 178, 179, 180, 181, 182, 183, 184, 185, 186, 187, 188, 189, 190, 191, 192, 193, 194, 195, 196, 197, 198, 199, 200, 201, 202, 203, 204, 205, 206, 207, 208, 209, 210, 211, 212, 213, 214, 215, 216, 217, 218, 219, 220, 221, 222, 223, 224, 225, 226, 227, 228, 229, 230, 231, 232, 233, 234, 235, 236, 237, 238, 239, 240, 241, 242, 243, 244, 245, 246, 247, 248, 249, 250, 251, 252, 253, 254, 255, 256, 257, 258, 259, 260, 261, 262, 263, 264, 265, 266, 267, 268, 269, 270, 271, 272, 273, 274, 275, 276, 277, 278, 279, 280, 281, 282, 283, 284, 285, 286, 287, 288, 289, 290, 291, 292, 293, 294, 295, 296, 297, 298, 299, 300, 301, 302, 303, 304, 305, 306, 307, 308, 309, 310, 311, 312, 313, 314, 315, 316, 317, 318, 319, 320, 321, 322, 323, 324, 325, 326, 327, 328, 329, 330, 331, 332, 333, 334, 335, 336, 337, 338, 339, 340, 341, 342, 343, 344, 345, 346, 347, 348, 349, 350, 351, 352, 353, 354, 355, 356, 357, 358, 359, 360, 361, 362, 363, 364, 365, 366, 367, 368, 369, 370, 371, 372, 373, 374, 375, 376, 377, 378, 379, 380, 381, 382, 383, 384, 385, 386, 387, 388, 389, 390, 391, 392, 393, 394, 395, 396, 397, 398, 399, 400, 401, 402, 403, 404, 405, 406, 407, 408, 409, 410, 411, 412, 413, 414, 415, 416, 417, 418, 419, 420, 421, 422, 423, 424, 425, 426, 427, 428, 429, 430, 431, 432],
      "AcquisitionTime": ["183600.722500", "183602.212500", "183603.702500", "183605.192500", "183606.682500", "183608.172500", "183609.662500", "183611.152500", "183612.642500", "183614.132500", "183615.622500", "183617.112500", "183618.602500", "183620.092500", "183621.582500", "183623.072500", "183624.562500", "183626.052500", "183627.542500", "183629.032500", "183630.522500", "183632.012500", "183633.502500", "183634.992500", "183636.482500", "183637.972500", "183639.462500", "183640.952500", "183642.442500", "183643.932500", "183645.422500", "183646.912500", "183648.402500", "183649.892500", "183651.382500", "183652.872500", "183654.362500", "183655.852500", "183657.342500", "183658.832500", "183700.322500", "183701.812500", "183703.302500", "183704.792500", "183706.282500", "183707.772500", "183709.262500", "183710.752500", "183712.242500", "183713.732500", "183715.222500", "183716.712500", "183718.202500", "183719.692500", "183721.182500", "183722.672500", "183724.162500", "183725.652500", "183727.142500", "183728.632500", "183730.122500", "183731.612500", "183733.102500", "183734.592500", "183736.082500", "183737.572500", "183739.062500", "183740.552500", "183742.042500", "183743.532500", "183745.022500", "183746.512500", "183748.002500", "183749.492500", "183750.982500", "183752.472500", "183753.962500", "183755.452500", "183756.942500", "183758.432500", "183759.922500", "183801.412500", "183802.902500", "183804.392500", "183805.882500", "183807.372500", "183808.862500", "183810.352500", "183811.842500", "183813.332500", "183814.822500", "183816.312500", "183817.802500", "183819.292500", "183820.782500", "183822.272500", "183823.762500", "183825.252500", "183826.742500", "183828.232500", "183829.722500", "183831.212500", "183832.702500", "183834.192500", "183835.682500", "183837.172500", "183838.662500", "183840.152500", "183841.642500", "183843.132500", "183844.622500", "183846.112500", "183847.602500", "183849.092500", "183850.582500", "183852.072500", "183853.562500", "183855.052500", "183856.542500", "183858.032500", "183859.522500", "183901.012500", "183902.502500", "183903.992500", "183905.482500", "183906.972500", "183908.462500", "183909.952500", "183911.442500", "183912.932500", "183914.422500", "183915.912500", "183917.402500", "183918.892500", "183920.382500", "183921.872500", "183923.362500", "183924.852500", "183926.342500", "183927.832500", "183929.322500", "183930.812500", "183932.302500", "183933.792500", "183935.282500", "183936.772500", "183938.262500", "183939.752500", "183941.242500", "183942.732500", "183944.222500", "183945.712500", "183947.202500", "183948.692500", "183950.182500", "183951.672500", "183953.162500", "183954.652500", "183956.142500", "183957.632500", "183959.122500", "184000.612500", "184002.102500", "184003.592500", "184005.082500", "184006.572500", "184008.062500", "184009.552500", "184011.042500", "184012.532500", "184014.022500", "184015.512500", "184017.002500", "184018.492500", "184019.982500", "184021.472500", "184022.962500", "184024.452500", "184025.942500", "184027.432500", "184028.922500", "184030.412500", "184031.902500", "184033.392500", "184034.882500", "184036.372500", "184037.862500", "184039.352500", "184040.842500", "184042.332500", "184043.822500", "184045.312500", "184046.802500", "184048.292500", "184049.782500", "184051.272500", "184052.762500", "184054.252500", "184055.742500", "184057.232500", "184058.722500", "184100.212500", "184101.702500", "184103.192500", "184104.682500", "184106.172500", "184107.662500", "184109.152500", "184110.642500", "184112.132500", "184113.622500", "184115.112500", "184116.602500", "184118.092500", "184119.582500", "184121.072500", "184122.562500", "184124.052500", "184125.542500", "184127.032500", "184128.522500", "184130.012500", "184131.502500", "184132.992500", "184134.482500", "184135.972500", "184137.462500", "184138.952500", "184140.442500", "184141.932500", "184143.422500", "184144.912500", "184146.402500", "184147.892500", "184149.382500", "184150.872500", "184152.362500", "184153.852500", "184155.342500", "184156.832500", "184158.322500", "184159.812500", "184201.302500", "184202.792500", "184204.282500", "184205.772500", "184207.262500", "184208.752500", "184210.242500", "184211.732500", "184213.222500", "184214.712500", "184216.202500", "184217.692500", "184219.182500", "184220.672500", "184222.162500", "184223.652500", "184225.142500", "184226.632500", "184228.122500", "184229.612500", "184231.102500", "184232.592500", "184234.082500", "184235.572500", "184237.062500", "184238.552500", "184240.042500", "184241.532500", "184243.022500", "184244.512500", "184246.002500", "184247.492500", "184248.982500", "184250.472500", "184251.962500", "184253.452500", "184254.942500", "184256.432500", "184257.922500", "184259.412500", "184300.902500", "184302.392500", "184303.882500", "184305.372500", "184306.862500", "184308.352500", "184309.842500", "184311.332500", "184312.822500", "184314.312500", "184315.802500", "184317.292500", "184318.782500", "184320.272500", "184321.762500", "184323.252500", "184324.742500", "184326.232500", "184327.722500", "184329.212500", "184330.702500", "184332.192500", "184333.682500", "184335.172500", "184336.662500", "184338.152500", "184339.642500", "184341.132500", "184342.622500", "184344.112500", "184345.602500", "184347.092500", "184348.582500", "184350.072500", "184351.562500", "184353.052500", "184354.542500", "184356.032500", "184357.522500", "184359.012500", "184400.502500", "184401.992500", "184403.482500", "184404.972500", "184406.462500", "184407.952500", "184409.442500", "184410.932500", "184412.422500", "184413.912500", "184415.402500", "184416.892500", "184418.382500", "184419.872500", "184421.362500", "184422.852500", "184424.342500", "184425.832500", "184427.322500", "184428.812500", "184430.302500", "184431.792500", "184433.282500", "184434.772500", "184436.262500", "184437.752500", "184439.242500", "184440.732500", "184442.222500", "184443.712500", "184445.202500", "184446.692500", "184448.182500", "184449.672500", "184451.162500", "184452.652500", "184454.142500", "184455.632500", "184457.122500", "184458.612500", "184500.102500", "184501.592500", "184503.082500", "184504.572500", "184506.062500", "184507.552500", "184509.042500", "184510.532500", "184512.022500", "184513.512500", "184515.002500", "184516.492500", "184517.982500", "184519.472500", "184520.962500", "184522.452500", "184523.942500", "184525.432500", "184526.922500", "184528.412500", "184529.902500", "184531.392500", "184532.882500", "184534.372500", "184535.862500", "184537.352500", "184538.842500", "184540.332500", "184541.822500", "184543.312500", "184544.802500", "184546.292500", "184547.782500", "184549.272500", "184550.762500", "184552.252500", "184553.742500", "184555.232500", "184556.722500", "184558.212500", "184559.702500", "184601.192500", "184602.682500", "184604.172500", "184605.662500", "184607.152500", "184608.642500", "184610.132500", "184611.622500", "184613.112500", "184614.602500", "184616.092500", "184617.582500", "184619.072500", "184620.562500", "184622.052500", "184623.542500", "184625.032500", "184626.522500", "184628.012500", "184629.502500", "184630.992500", "184632.482500", "184633.972500", "184635.462500", "184636.952500", "184638.442500", "184639.932500", "184641.422500", "184642.912500"],
      "ContentTime": ["183729.389000", "183729.391000", "183729.394000", "183729.397000", "183729.399000", "183729.401000", "183729.404000", "183729.406000", "183729.409000", "183729.411000", "183729.414000", "183729.416000", "183729.419000", "183729.421000", "183729.423000", "183729.426000", "183729.428000", "183729.431000", "183729.433000", "183729.436000", "183729.438000", "183729.441000", "183729.443000", "183729.445000", "183729.448000", "183729.451000", "183729.454000", "183729.456000", "183729.458000", "183729.461000", "183729.464000", "183729.466000", "183729.469000", "183729.471000", "183729.474000", "183729.476000", "183729.479000", "183729.481000", "183729.484000", "183729.486000", "183749.261000", "183749.264000", "183749.266000", "183749.269000", "183749.271000", "183749.274000", "183749.276000", "183749.278000", "183749.281000", "183749.284000", "183749.286000", "183749.289000", "183749.291000", "183749.293000", "183749.296000", "183749.298000", "183749.301000", "183749.303000", "183749.306000", "183749.308000", "183809.259000", "183809.261000", "183809.264000", "183809.266000", "183809.269000", "183809.271000", "183809.274000", "183809.276000", "183809.279000", "183809.281000", "183809.284000", "183809.286000", "183809.289000", "183809.291000", "183809.293000", "183809.296000", "183809.298000", "183809.301000", "183809.303000", "183809.306000", "183849.313000", "183849.316000", "183849.318000", "183849.320000", "183849.333000", "183849.335000", "183849.338000", "183849.340000", "183849.343000", "183849.345000", "183849.348000", "183849.350000", "183849.353000", "183849.355000", "183849.358000", "183849.360000", "183849.363000", "183849.365000", "183849.368000", "183849.370000", "183849.373000", "183849.375000", "183849.377000", "183849.380000", "183849.382000", "183849.385000", "183849.387000", "183849.390000", "183849.392000", "183849.395000", "183849.397000", "183849.400000", "183929.287000", "183929.290000", "183929.292000", "183929.295000", "183929.297000", "183929.299000", "183929.302000", "183929.304000", "183929.307000", "183929.309000", "183929.312000", "183929.314000", "183929.317000", "183929.319000", "183929.322000", "183929.324000", "183929.327000", "183929.329000", "183929.332000", "183929.334000", "183929.337000", "183929.339000", "183929.342000", "183929.344000", "183929.346000", "183929.349000", "183929.351000", "183949.227000", "183949.230000", "183949.233000", "183949.235000", "183949.238000", "183949.240000", "183949.242000", "183949.246000", "183949.249000", "183949.251000", "183949.254000", "183949.256000", "183949.258000", "184029.304000", "184029.307000", "184029.309000", "184029.312000", "184029.314000", "184029.316000", "184029.319000", "184029.321000", "184029.324000", "184029.326000", "184029.329000", "184029.331000", "184029.334000", "184029.336000", "184029.339000", "184029.341000", "184029.343000", "184029.346000", "184029.348000", "184029.351000", "184029.353000", "184029.356000", "184029.358000", "184029.361000", "184029.363000", "184029.365000", "184029.368000", "184109.289000", "184109.291000", "184109.294000", "184109.296000", "184109.299000", "184109.301000", "184109.304000", "184109.306000", "184109.309000", "184109.311000", "184109.314000", "184109.316000", "184109.319000", "184109.321000", "184109.323000", "184109.326000", "184109.328000", "184109.331000", "184109.333000", "184109.336000", "184109.338000", "184109.341000", "184109.343000", "184109.346000", "184109.348000", "184109.351000", "184109.353000", "184149.286000", "184149.288000", "184149.291000", "184149.293000", "184149.296000", "184149.298000", "184149.301000", "184149.303000", "184149.306000", "184149.308000", "184149.311000", "184149.313000", "184149.316000", "184149.318000", "184149.321000", "184149.323000", "184149.325000", "184149.328000", "184149.330000", "184149.333000", "184149.335000", "184149.338000", "184149.340000", "184149.343000", "184149.345000", "184149.348000", "184149.350000", "184229.299000", "184229.302000", "184229.305000", "184229.307000", "184229.309000", "184229.312000", "184229.314000", "184229.317000", "184229.319000", "184229.322000", "184229.324000", "184229.327000", "184229.329000", "184229.332000", "184229.334000", "184229.337000", "184229.339000", "184229.342000", "184229.347000", "184229.350000", "184229.352000", "184229.355000", "184229.357000", "184229.360000", "184229.362000", "184229.365000", "184229.367000", "184309.729000", "184309.732000", "184309.734000", "184309.737000", "184309.739000", "184309.742000", "184309.744000", "184309.747000", "184309.749000", "184309.752000", "184309.754000", "184309.757000", "184309.759000", "184309.762000", "184309.764000", "184309.767000", "184309.769000", "184309.772000", "184309.774000", "184309.777000", "184309.779000", "184309.782000", "184309.784000", "184309.786000", "184309.789000", "184309.791000", "184309.794000", "184349.293000", "184349.296000", "184349.298000", "184349.300000", "184349.303000", "184349.305000", "184349.308000", "184349.310000", "184349.313000", "184349.315000", "184349.318000", "184349.320000", "184349.323000", "184349.325000", "184349.328000", "184349.330000", "184349.333000", "184349.335000", "184349.338000", "184349.340000", "184349.343000", "184349.345000", "184349.348000", "184349.350000", "184349.353000", "184349.355000", "184429.306000", "184429.309000", "184429.311000", "184429.314000", "184429.316000", "184429.319000", "184429.321000", "184429.324000", "184429.326000", "184429.329000", "184429.331000", "184429.334000", "184429.336000", "184429.339000", "184429.341000", "184429.343000", "184429.346000", "184429.348000", "184429.351000", "184429.353000", "184429.356000", "184429.358000", "184429.362000", "184429.365000", "184429.367000", "184429.370000", "184429.372000", "184509.297000", "184509.300000", "184509.302000", "184509.305000", "184509.307000", "184509.310000", "184509.312000", "184509.315000", "184509.317000", "184509.320000", "184509.322000", "184509.325000", "184509.327000", "184509.330000", "184509.332000", "184509.335000", "184509.337000", "184509.339000", "184509.342000", "184509.344000", "184509.347000", "184509.368000", "184509.371000", "184509.373000", "184509.375000", "184509.378000", "184509.380000", "184549.294000", "184549.296000", "184549.299000", "184549.302000", "184549.304000", "184549.306000", "184549.309000", "184549.311000", "184549.314000", "184549.316000", "184549.319000", "184549.321000", "184549.324000", "184549.326000", "184549.329000", "184549.331000", "184549.333000", "184549.336000", "184549.338000", "184549.341000", "184549.343000", "184549.346000", "184549.348000", "184549.351000", "184549.353000", "184549.356000", "184549.358000", "184629.286000", "184629.289000", "184629.291000", "184629.294000", "184629.296000", "184629.299000", "184629.301000", "184629.304000", "184629.306000", "184629.309000", "184629.311000", "184629.314000", "184629.316000", "184629.319000", "184629.321000", "184629.323000", "184629.326000", "184629.328000", "184629.331000", "184629.333000", "184629.336000", "184629.338000", "184629.341000", "184629.343000", "184629.346000", "184629.348000", "184629.351000", "184645.707000", "184645.710000", "184645.712000", "184645.715000", "184645.717000", "184645.720000", "184645.722000", "184645.725000", "184645.727000", "184645.730000", "184645.732000"],
