{
  "AcquisitionMatrixPE": 104,
  "AcquisitionNumber": 1,
  "AcquisitionTime": "17:56:59.635000",
  "BandwidthPerPixelPhaseEncode": 17.17,
  "BaseResolution": 104,
  "BodyPartExamined": "BRAIN",
  "CoilCombinationMethod": "Sum of Squares",
  "ConsistencyInfo": "N4_VE11C_LATEST_20160120",
  "ConversionSoftware": "dcm2niix",
  "ConversionSoftwareVersion": "v1.0.20211006",
  "DerivedVendorReportedEchoSpacing": 0.000560011,
  "DeviceSerialNumber": "167006",
  "DwellTime": 2.1e-06,
  "EchoTime": 0.037,
  "EchoTrainLength": 104,
  "EffectiveEchoSpacing": 0.000560011,
  "FlipAngle": 52,
  "HeudiconvVersion": "0.11.3.post9+gc939bf8",
  "ImageComments": "Unaliased MB4/PE3/LB",
  "ImageOrientationPatientDICOM": [0.999873, -0.0142094, -0.0072798, 0.0106455, 0.933168, -0.359284],
  "ImageOrientationText": "Tra>Cor(-21.1)>Sag(-0.7)",
  "ImageType": [
    "ORIGINAL",
    "PRIMARY",
    "M",
    "MB",
    "ND",
    "MOSAIC"
],
  "ImagingFrequency": 123.259,
  "InPlanePhaseEncodingDirectionDICOM": "COL",
  "InstitutionAddress": "Chemin Queen-Mary 4565,Montreal,District,CA,H3W 1W5",
  "InstitutionName": "IUGM",
  "InstitutionalDepartmentName": "Department",
  "MRAcquisitionType": "2D",
  "MagneticFieldStrength": 3,
  "Manufacturer": "Siemens",
  "ManufacturersModelName": "Prisma_fit",
  "MatrixCoilMode": "SENSE",
  "Modality": "MR",
  "MultibandAccelerationFactor": 4,
  "PartialFourier": 1,
  "PatientPosition": "HFS",
  "PercentPhaseFOV": 100,
  "PercentSampling": 100,
  "PhaseEncodingDirection": "j",
  "PhaseEncodingSteps": 104,
  "PhaseResolution": 1,
  "PixelBandwidth": 2290,
  "ProcedureStepDescription": "games^mario",
  "ProtocolName": "func_task-mario_run-02",
  "PulseSequenceDetails": "%CustomerSeq%\\cmrr_mbep2d_bold",
  "ReceiveCoilActiveElements": "HC1-7;NC1,2",
  "ReceiveCoilName": "HeadNeck_64",
  "ReconMatrixPE": 104,
  "RepetitionTime": 1.49,
  "SAR": 0.0734165,
  "ScanOptions": "FS",
  "ScanningSequence": "EP",
  "SequenceName": "epfid2d1_104",
  "SequenceVariant": "SK\\SS",
  "SeriesDescription": "func_task-mario_run-02",
  "SeriesNumber": 13,
  "ShimSetting": [601, -7260, -8833, 388, -2, -338, 14, 38],
  "SliceThickness": 2,
  "SliceTiming": [0, 0.7825, 0.0975, 0.8825, 0.195, 0.98, 0.2925, 1.0775, 0.3925, 1.175, 0.49, 1.2725, 0.5875, 1.3725, 0.685, 0, 0.7825, 0.0975, 0.8825, 0.195, 0.98, 0.2925, 1.0775, 0.3925, 1.175, 0.49, 1.2725, 0.5875, 1.3725, 0.685, 0, 0.7825, 0.0975, 0.8825, 0.195, 0.98, 0.2925, 1.0775, 0.3925, 1.175, 0.49, 1.2725, 0.5875, 1.3725, 0.685, 0, 0.7825, 0.0975, 0.8825, 0.195, 0.98, 0.2925, 1.0775, 0.3925, 1.175, 0.49, 1.2725, 0.5875, 1.3725, 0.685],
  "SoftwareVersions": "syngo MR E11",
  "SpacingBetweenSlices": 2,
  "StationName": "MRC35049",
  "TaskName": "mario",
  "TotalReadoutTime": 0.0576811,
  "TxRefAmp": 296.655,
  "WipMemBlock": "a3e90294-2293-4d6f-959a-2e2f601a6fd7||Sequence: R017 ve11c/master r/75a17815+; Jun 28 2022 16:32:11 by eja",
  "dcmmeta_affine": [
    [-1.9997451305389404, 0.0212910957634449, -0.023796938359737396, 103.47882843017578],
    [0.028418706730008125, 1.866335153579712, -0.7183214426040649, -63.493988037109375],
    [-0.014559605158865452, 0.7185680270195007, 1.8663997650146484, -63.795509338378906],
    [0.0, 0.0, 0.0, 1.0]
],
  "dcmmeta_reorient_transform": [
    [0.0, -1.0, 0.0, 103.0],
    [1.0, 0.0, 0.0, 0.0],
    [0.0, 0.0, 1.0, 0.0],
    [0.0, 0.0, 0.0, 1.0]
],
  "dcmmeta_shape": [104, 104, 60, 474],
  "dcmmeta_slice_dim": 2,
  "dcmmeta_version": 0.6,
  "global": {
    "const": {
      "AcquisitionMatrix": [104, 0, 0, 104],
      "AngioFlag": "N",
      "BitsAllocated": 16,
      "BitsStored": 16,
      "BodyPartExamined": "BRAIN",
      "Columns": 832,
      "EchoNumbers": 1,
      "EchoTime": 37.0,
      "EchoTrainLength": 104,
      "FlipAngle": 52.0,
      "HighBit": 15,
      "ImageOrientationPatient": [0.99987254125292, -0.0142093534195, -0.0072798024583, 0.01064554771021, 0.93316754710645, -0.3592840120869],
      "ImagePositionPatient": [-841.32898362681, -797.74009107942, 277.07545405321],
      "ImageType": [
        "ORIGINAL",
        "PRIMARY",
        "M",
        "MB",
        "ND",
        "MOSAIC"
],
      "ImagedNucleus": "1H",
      "ImagingFrequency": 123.258776,
      "InPlanePhaseEncodingDirection": "COL",
      "MRAcquisitionType": "2D",
      "MagneticFieldStrength": 3.0,
      "Manufacturer": "SIEMENS",
      "ManufacturerModelName": "Prisma_fit",
      "Modality": "MR",
      "NumberOfAverages": 1.0,
      "NumberOfPhaseEncodingSteps": 104,
      "PercentPhaseFieldOfView": 100.0,
      "PercentSampling": 100.0,
      "PerformedProcedureStepStartTime": "174025.388000",
      "PhotometricInterpretation": "MONOCHROME2",
      "PixelBandwidth": 2290.0,
      "PixelRepresentation": 0,
      "PixelSpacing": [2.0, 2.0],
      "ProtocolName": "func_task-mario_run-02",
      "RepetitionTime": 1490.0,
      "Rows": 832,
      "SAR": 0.07341652525566,
      "SamplesPerPixel": 1,
      "ScanOptions": "FS",
      "ScanningSequence": "EP",
      "SequenceName": "epfid2d1_104",
      "SequenceVariant": [
        "SK",
        "SS"
],
      "SeriesDescription": "func_task-mario_run-02",
      "SeriesNumber": 13,
      "SeriesTime": "175809.185000",
      "SliceLocation": -37.960654248654,
      "SliceThickness": 2.0,
      "SmallestImagePixelValue": 0,
      "SoftwareVersions": "syngo MR E11",
      "SpacingBetweenSlices": 1.9999999883461,
      "SpecificCharacterSet": "ISO_IR 100",
      "StudyID": "1",
      "StudyTime": "174025.317000",
      "TransmitCoilName": "Body",
      "VariableFlipAngleFlag": "N",
      "WindowCenterWidthExplanation": "Algo1",
      "dBdt": 0.0},
    "slices": {}
  },
  "time": {
    "samples": {
      "AcquisitionNumber": [1, 2, 3, 4, 5, 6, 7, 8, 9, 10, 11, 12, 13, 14, 15, 16, 17, 18, 19, 20, 21, 22, 23, 24, 25, 26, 27, 28, 29, 30, 31, 32, 33, 34, 35, 36, 37, 38, 39, 40, 41, 42, 43, 44, 45, 46, 47, 48, 49, 50, 51, 52, 53, 54, 55, 56, 57, 58, 59, 60, 61, 62, 63, 64, 65, 66, 67, 68, 69, 70, 71, 72, 73, 74, 75, 76, 77, 78, 79, 80, 81, 82, 83, 84, 85, 86, 87, 88, 89, 90, 91, 92, 93, 94, 95, 96, 97, 98, 99, 100, 101, 102, 103, 104, 105, 106, 107, 108, 109, 110, 111, 112, 113, 114, 115, 116, 117, 118, 119, 120, 121, 122, 123, 124, 125, 126, 127, 128, 129, 130, 131, 132, 133, 134, 135, 136, 137, 138, 139, 140, 141, 142, 143, 144, 145, 146, 147, 148, 149, 150, 151, 152, 153, 154, 155, 156, 157, 158, 159, 160, 161, 162, 163, 164, 165, 166, 167, 168, 169, 170, 171, 172, 173, 174, 175, 176, 177, 178, 179, 180, 181, 182, 183, 184, 185, 186, 187, 188, 189, 190, 191, 192, 193, 194, 195, 196, 197, 198, 199, 200, 201, 202, 203, 204, 205, 206, 207, 208, 209, 210, 211, 212, 213, 214, 215, 216, 217, 218, 219, 220, 221, 222, 223, 224, 225, 226, 227, 228, 229, 230, 231, 232, 233, 234, 235, 236, 237, 238, 239, 240, 241, 242, 243, 244, 245, 246, 247, 248, 249, 250, 251, 252, 253, 254, 255, 256, 257, 258, 259, 260, 261, 262, 263, 264, 265, 266, 267, 268, 269, 270, 271, 272, 273, 274, 275, 276, 277, 278, 279, 280, 281, 282, 283, 284, 285, 286, 287, 288, 289, 290, 291, 292, 293, 294, 295, 296, 297, 298, 299, 300, 301, 302, 303, 304, 305, 306, 307, 308, 309, 310, 311, 312, 313, 314, 315, 316, 317, 318, 319, 320, 321, 322, 323, 324, 325, 326, 327, 328, 329, 330, 331, 332, 333, 334, 335, 336, 337, 338, 339, 340, 341, 342, 343, 344, 345, 346, 347, 348, 349, 350, 351, 352, 353, 354, 355, 356, 357, 358, 359, 360, 361, 362, 363, 364, 365, 366, 367, 368, 369, 370, 371, 372, 373, 374, 375, 376, 377, 378, 379, 380, 381, 382, 383, 384, 385, 386, 387, 388, 389, 390, 391, 392, 393, 394, 395, 396, 397, 398, 399, 400, 401, 402, 403, 404, 405, 406, 407, 408, 409, 410, 411, 412, 413, 414, 415, 416, 417, 418, 419, 420, 421, 422, 423, 424, 425, 426, 427, 428, 429, 430, 431, 432, 433, 434, 435, 436, 437, 438, 439, 440, 441, 442, 443, 444, 445, 446, 447, 448, 449, 450, 451, 452, 453, 454, 455, 456, 457, 458, 459, 460, 461, 462, 463, 464, 465, 466, 467, 468, 469, 470, 471, 472, 473, 474],
      "AcquisitionTime": ["175659.635000", "175701.125000", "175702.615000", "175704.105000", "175705.595000", "175707.085000", "175708.575000", "175710.065000", "175711.555000", "175713.045000", "175714.535000", "175716.025000", "175717.515000", "175719.005000", "175720.495000", "175721.985000", "175723.475000", "175724.965000", "175726.455000", "175727.945000", "175729.435000", "175730.925000", "175732.415000", "175733.905000", "175735.395000", "175736.885000", "175738.375000", "175739.865000", "175741.355000", "175742.845000", "175744.335000", "175745.825000", "175747.315000", "175748.805000", "175750.295000", "175751.785000", "175753.275000", "175754.765000", "175756.255000", "175757.745000", "175759.235000", "175800.725000", "175802.215000", "175803.705000", "175805.195000", "175806.685000", "175808.175000", "175809.665000", "175811.155000", "175812.645000", "175814.135000", "175815.625000", "175817.115000", "175818.605000", "175820.095000", "175821.585000", "175823.075000", "175824.565000", "175826.055000", "175827.545000", "175829.035000", "175830.525000", "175832.015000", "175833.505000", "175834.995000", "175836.485000", "175837.975000", "175839.465000", "175840.955000", "175842.445000", "175843.935000", "175845.425000", "175846.915000", "175848.405000", "175849.895000", "175851.385000", "175852.875000", "175854.365000", "175855.855000", "175857.345000", "175858.835000", "175900.325000", "175901.815000", "175903.305000", "175904.795000", "175906.285000", "175907.775000", "175909.265000", "175910.755000", "175912.245000", "175913.735000", "175915.225000", "175916.715000", "175918.205000", "175919.695000", "175921.185000", "175922.675000", "175924.165000", "175925.655000", "175927.145000", "175928.635000", "175930.125000", "175931.615000", "175933.105000", "175934.595000", "175936.085000", "175937.575000", "175939.065000", "175940.555000", "175942.045000", "175943.535000", "175945.025000", "175946.515000", "175948.005000", "175949.495000", "175950.985000", "175952.475000", "175953.965000", "175955.455000", "175956.945000", "175958.435000", "175959.925000", "180001.415000", "180002.905000", "180004.395000", "180005.885000", "180007.375000", "180008.865000", "180010.355000", "180011.845000", "180013.335000", "180014.825000", "180016.315000", "180017.805000", "180019.295000", "180020.785000", "180022.275000", "180023.765000", "180025.255000", "180026.745000", "180028.235000", "180029.725000", "180031.215000", "180032.705000", "180034.195000", "180035.685000", "180037.175000", "180038.665000", "180040.155000", "180041.645000", "180043.135000", "180044.625000", "180046.115000", "180047.605000", "180049.095000", "180050.585000", "180052.075000", "180053.565000", "180055.055000", "180056.545000", "180058.035000", "180059.525000", "180101.015000", "180102.505000", "180103.995000", "180105.485000", "180106.975000", "180108.465000", "180109.955000", "180111.445000", "180112.935000", "180114.425000", "180115.915000", "180117.405000", "180118.895000", "180120.385000", "180121.875000", "180123.365000", "180124.855000", "180126.345000", "180127.835000", "180129.325000", "180130.815000", "180132.305000", "180133.795000", "180135.285000", "180136.775000", "180138.265000", "180139.755000", "180141.245000", "180142.735000", "180144.225000", "180145.715000", "180147.205000", "180148.695000", "180150.185000", "180151.675000", "180153.165000", "180154.655000", "180156.145000", "180157.635000", "180159.125000", "180200.615000", "180202.105000", "180203.595000", "180205.085000", "180206.575000", "180208.065000", "180209.555000", "180211.045000", "180212.535000", "180214.025000", "180215.515000", "180217.005000", "180218.495000", "180219.985000", "180221.475000", "180222.965000", "180224.455000", "180225.945000", "180227.435000", "180228.925000", "180230.415000", "180231.905000", "180233.395000", "180234.885000", "180236.375000", "180237.865000", "180239.355000", "180240.845000", "180242.335000", "180243.825000", "180245.315000", "180246.805000", "180248.295000", "180249.785000", "180251.275000", "180252.765000", "180254.255000", "180255.745000", "180257.235000", "180258.725000", "180300.215000", "180301.705000", "180303.195000", "180304.685000", "180306.175000", "180307.665000", "180309.155000", "180310.645000", "180312.135000", "180313.625000", "180315.115000", "180316.605000", "180318.095000", "180319.585000", "180321.075000", "180322.565000", "180324.055000", "180325.545000", "180327.035000", "180328.525000", "180330.015000", "180331.505000", "180332.995000", "180334.485000", "180335.975000", "180337.465000", "180338.955000", "180340.445000", "180341.935000", "180343.425000", "180344.915000", "180346.405000", "180347.895000", "180349.385000", "180350.875000", "180352.365000", "180353.855000", "180355.345000", "180356.835000", "180358.325000", "180359.815000", "180401.305000", "180402.795000", "180404.285000", "180405.775000", "180407.265000", "180408.755000", "180410.245000", "180411.735000", "180413.225000", "180414.715000", "180416.205000", "180417.695000", "180419.185000", "180420.675000", "180422.165000", "180423.655000", "180425.145000", "180426.635000", "180428.125000", "180429.615000", "180431.105000", "180432.595000", "180434.085000", "180435.575000", "180437.065000", "180438.555000", "180440.045000", "180441.535000", "180443.025000", "180444.515000", "180446.005000", "180447.495000", "180448.985000", "180450.475000", "180451.965000", "180453.455000", "180454.945000", "180456.435000", "180457.925000", "180459.415000", "180500.905000", "180502.395000", "180503.885000", "180505.375000", "180506.865000", "180508.355000", "180509.845000", "180511.335000", "180512.825000", "180514.315000", "180515.805000", "180517.295000", "180518.785000", "180520.275000", "180521.765000", "180523.255000", "180524.745000", "180526.235000", "180527.725000", "180529.215000", "180530.705000", "180532.195000", "180533.685000", "180535.175000", "180536.665000", "180538.155000", "180539.645000", "180541.135000", "180542.625000", "180544.115000", "180545.605000", "180547.095000", "180548.585000", "180550.075000", "180551.565000", "180553.055000", "180554.545000", "180556.035000", "180557.525000", "180559.015000", "180600.505000", "180601.995000", "180603.485000", "180604.975000", "180606.465000", "180607.955000", "180609.445000", "180610.935000", "180612.425000", "180613.915000", "180615.405000", "180616.895000", "180618.385000", "180619.875000", "180621.365000", "180622.855000", "180624.345000", "180625.835000", "180627.325000", "180628.815000", "180630.305000", "180631.795000", "180633.285000", "180634.775000", "180636.265000", "180637.755000", "180639.245000", "180640.735000", "180642.225000", "180643.715000", "180645.205000", "180646.695000", "180648.185000", "180649.675000", "180651.165000", "180652.655000", "180654.145000", "180655.635000", "180657.125000", "180658.615000", "180700.105000", "180701.595000", "180703.085000", "180704.575000", "180706.065000", "180707.555000", "180709.045000", "180710.535000", "180712.025000", "180713.515000", "180715.005000", "180716.495000", "180717.985000", "180719.475000", "180720.965000", "180722.455000", "180723.945000", "180725.435000", "180726.925000", "180728.415000", "180729.905000", "180731.395000", "180732.885000", "180734.375000", "180735.865000", "180737.355000", "180738.845000", "180740.335000", "180741.825000", "180743.315000", "180744.805000", "180746.295000", "180747.785000", "180749.275000", "180750.765000", "180752.255000", "180753.745000", "180755.235000", "180756.725000", "180758.215000", "180759.705000", "180801.195000", "180802.685000", "180804.175000", "180805.665000", "180807.155000", "180808.645000", "180810.135000", "180811.625000", "180813.115000", "180814.605000", "180816.095000", "180817.585000", "180819.075000", "180820.565000", "180822.055000", "180823.545000", "180825.035000", "180826.525000", "180828.015000", "180829.505000", "180830.995000", "180832.485000", "180833.975000", "180835.465000", "180836.955000", "180838.445000", "180839.935000", "180841.425000", "180842.915000", "180844.405000"],
      "ContentTime": ["175809.188000", "175809.192000", "175809.195000", "175809.198000", "175809.205000", "175809.209000", "175809.212000", "175809.215000", "175809.219000", "175809.234000", "175809.237000", "175809.240000", "175809.243000", "175809.247000", "175809.250000", "175809.253000", "175809.257000", "175809.260000", "175809.263000", "175809.266000", "175809.270000", "175829.154000", "175829.158000", "175829.161000", "175829.164000", "175829.168000", "175829.171000", "175829.174000", "175829.177000", "175829.181000", "175829.184000", "175829.187000", "175829.190000", "175829.194000", "175829.197000", "175829.200000", "175829.203000", "175829.207000", "175829.210000", "175829.213000", "175829.216000", "175849.154000", "175849.158000", "175849.161000", "175849.164000", "175849.167000", "175849.171000", "175849.174000", "175849.177000", "175849.181000", "175849.184000", "175849.187000", "175849.190000", "175849.194000", "175849.197000", "175849.200000", "175849.209000", "175849.213000", "175849.216000", "175849.219000", "175849.222000", "175909.154000", "175909.158000", "175909.161000", "175909.164000", "175909.168000", "175909.171000", "175909.174000", "175909.177000", "175909.181000", "175909.184000", "175909.187000", "175909.190000", "175909.207000", "175909.210000", "175909.214000", "175909.217000", "175909.220000", "175909.223000", "175909.227000", "175909.230000", "175949.155000", "175949.160000", "175949.163000", "175949.166000", "175949.170000", "175949.173000", "175949.176000", "175949.180000", "175949.183000", "175949.186000", "175949.200000", "175949.203000", "175949.207000", "175949.210000", "175949.213000", "175949.216000", "175949.220000", "175949.223000", "175949.226000", "175949.229000", "175949.233000", "175949.236000", "175949.239000", "175949.243000", "175949.246000", "175949.249000", "175949.252000", "175949.256000", "175949.259000", "175949.262000", "175949.265000", "175949.269000", "180029.154000", "180029.158000", "180029.161000", "180029.165000", "180029.168000", "180029.171000", "180029.175000", "180029.178000", "180029.181000", "180029.184000", "180029.188000", "180029.191000", "180029.194000", "180029.197000", "180029.201000", "180029.204000", "180029.207000", "180029.211000", "180029.214000", "180029.217000", "180029.220000", "180029.224000", "180029.227000", "180029.230000", "180029.234000", "180029.237000", "180029.240000", "180109.154000", "180109.158000", "180109.161000", "180109.164000", "180109.168000", "180109.171000", "180109.174000", "180109.177000", "180109.181000", "180109.184000", "180109.187000", "180109.191000", "180109.194000", "180109.197000", "180109.201000", "180109.204000", "180109.207000", "180109.210000", "180109.214000", "180109.217000", "180109.220000", "180109.224000", "180109.227000", "180109.230000", "180109.233000", "180109.237000", "180109.240000", "180149.154000", "180149.158000", "180149.161000", "180149.165000", "180149.169000", "180149.172000", "180149.191000", "180149.194000", "180149.197000", "180149.201000", "180149.204000", "180149.207000", "180149.210000", "180149.214000", "180149.217000", "180149.220000", "180149.224000", "180149.227000", "180149.230000", "180149.234000", "180149.237000", "180149.240000", "180149.244000", "180149.247000", "180149.250000", "180149.253000", "180229.154000", "180229.158000", "180229.161000", "180229.165000", "180229.168000", "180229.171000", "180229.175000", "180229.178000", "180229.181000", "180229.184000", "180229.188000", "180229.191000", "180229.194000", "180229.198000", "180229.201000", "180229.204000", "180229.207000", "180229.211000", "180229.214000", "180229.217000", "180229.220000", "180229.224000", "180229.227000", "180229.230000", "180229.234000", "180229.237000", "180229.240000", "180309.154000", "180309.158000", "180309.161000", "180309.165000", "180309.168000", "180309.171000", "180309.175000", "180309.178000", "180309.181000", "180309.184000", "180309.188000", "180309.192000", "180309.195000", "180309.198000", "180309.202000", "180309.205000", "180309.208000", "180309.211000", "180309.215000", "180309.218000", "180309.221000", "180309.225000", "180309.228000", "180309.231000", "180309.234000", "180309.238000", "180309.241000", "180349.154000", "180349.158000", "180349.161000", "180349.164000", "180349.168000", "180349.171000", "180349.174000", "180349.178000", "180349.181000", "180349.184000", "180349.188000", "180349.191000", "180349.194000", "180349.198000", "180349.201000", "180349.204000", "180349.207000", "180349.211000", "180349.214000", "180349.217000", "180349.221000", "180349.224000", "180349.227000", "180349.231000", "180349.234000", "180349.237000", "180349.240000", "180429.155000", "180429.159000", "180429.162000", "180429.166000", "180429.169000", "180429.172000", "180429.176000", "180429.179000", "180429.182000", "180429.186000", "180429.189000", "180429.192000", "180429.195000", "180429.199000", "180429.202000", "180429.205000", "180429.209000", "180429.212000", "180429.215000", "180429.218000", "180429.222000", "180429.225000", "180429.228000", "180429.232000", "180429.235000", "180429.238000", "180429.242000", "180509.154000", "180509.158000", "180509.161000", "180509.165000", "180509.168000", "180509.171000", "180509.175000", "180509.178000", "180509.181000", "180509.185000", "180509.188000", "180509.191000", "180509.194000", "180509.198000", "180509.201000", "180509.204000", "180509.208000", "180509.211000", "180509.214000", "180509.217000", "180509.221000", "180509.224000", "180509.227000", "180509.230000", "180509.234000", "180509.237000", "180509.240000", "180549.154000", "180549.158000", "180549.161000", "180549.165000", "180549.168000", "180549.172000", "180549.175000", "180549.178000", "180549.182000", "180549.185000", "180549.188000", "180549.192000", "180549.195000", "180549.199000", "180549.202000", "180549.205000", "180549.208000", "180549.212000", "180549.215000", "180549.218000", "180549.222000", "180549.225000", "180549.228000", "180549.231000", "180549.235000", "180549.238000", "180629.154000", "180629.158000", "180629.161000", "180629.165000", "180629.168000", "180629.171000", "180629.184000", "180629.187000", "180629.191000", "180629.194000", "180629.197000", "180629.201000", "180629.204000", "180629.207000", "180629.211000", "180629.214000", "180629.217000", "180629.220000", "180629.224000", "180629.227000", "180629.230000", "180629.234000", "180629.237000", "180629.240000", "180629.244000", "180629.247000", "180629.250000", "180709.154000", "180709.158000", "180709.161000", "180709.165000", "180709.168000", "180709.171000", "180709.175000", "180709.178000", "180709.181000", "180709.185000", "180709.188000", "180709.191000", "180709.194000", "180709.198000", "180709.202000", "180709.205000", "180709.208000", "180709.211000", "180709.215000", "180709.218000", "180709.221000", "180709.225000", "180709.228000", "180709.231000", "180709.235000", "180709.238000", "180709.241000", "180749.154000", "180749.158000", "180749.161000", "180749.164000", "180749.168000", "180749.171000", "180749.174000", "180749.178000", "180749.181000", "180749.184000", "180749.188000", "180749.191000", "180749.194000", "180749.198000", "180749.201000", "180749.204000", "180749.208000", "180749.211000", "180749.214000", "180749.218000", "180749.221000", "180749.224000", "180749.228000", "180749.231000", "180749.234000", "180749.237000", "180749.241000", "180829.154000", "180829.158000", "180829.161000", "180829.164000", "180829.168000", "180829.171000", "180829.174000", "180829.178000", "180829.181000", "180829.184000", "180829.188000", "180829.191000", "180829.194000", "180829.198000", "180829.201000", "180829.204000", "180829.208000", "180829.211000", "180829.214000", "180829.218000", "180829.232000", "180829.235000", "180829.239000", "180829.242000", "180829.245000", "180829.248000", "180829.252000", "180847.114000", "180847.118000", "180847.121000", "180847.125000", "180847.128000", "180847.131000", "180847.135000", "180847.138000", "180847.141000", "180847.144000", "180847.148000", "180847.151000"],
