{
  "AcquisitionMatrixPE": 104,
  "AcquisitionNumber": 1,
  "AcquisitionTime": "18:36:0.722500",
  "BandwidthPerPixelPhaseEncode": 17.17,
  "BaseResolution": 104,
  "BodyPartExamined": "BRAIN",
  "CoilCombinationMethod": "Sum of Squares",
  "ConsistencyInfo": "N4_VE11C_LATEST_20160120",
  "ConversionSoftware": "dcm2niix",
  "ConversionSoftwareVersion": "v1.0.20211006",
  "DerivedVendorReportedEchoSpacing": 0.000560011,
  "DeviceSerialNumber": "167006",
  "DwellTime": 2.1e-06,
  "EchoTime": 0.037,
  "EchoTrainLength": 104,
  "EffectiveEchoSpacing": 0.000560011,
  "FlipAngle": 52,
  "HeudiconvVersion": "0.11.3.post9+gc939bf8",
  "ImageComments": "Unaliased MB4/PE3/LB",
  "ImageOrientationPatientDICOM": [0.999873, -0.0142094, -0.0072798, 0.0106455, 0.933168, -0.359284],
  "ImageOrientationText": "Tra>Cor(-21.1)>Sag(-0.7)",
  "ImageType": [
    "ORIGINAL",
    "PRIMARY",
    "M",
    "MB",
    "ND",
    "MOSAIC"
],
  "ImagingFrequency": 123.259,
  "InPlanePhaseEncodingDirectionDICOM": "COL",
  "InstitutionAddress": "Chemin Queen-Mary 4565,Montreal,District,CA,H3W 1W5",
  "InstitutionName": "IUGM",
  "InstitutionalDepartmentName": "Department",
  "MRAcquisitionType": "2D",
  "MagneticFieldStrength": 3,
  "Manufacturer": "Siemens",
  "ManufacturersModelName": "Prisma_fit",
  "MatrixCoilMode": "SENSE",
  "Modality": "MR",
  "MultibandAccelerationFactor": 4,
  "PartialFourier": 1,
  "PatientPosition": "HFS",
  "PercentPhaseFOV": 100,
  "PercentSampling": 100,
  "PhaseEncodingDirection": "j",
  "PhaseEncodingSteps": 104,
  "PhaseResolution": 1,
  "PixelBandwidth": 2290,
  "ProcedureStepDescription": "games^mario",
  "ProtocolName": "func_task-mario_run-05",
  "PulseSequenceDetails": "%CustomerSeq%\\cmrr_mbep2d_bold",
  "ReceiveCoilActiveElements": "HC1-7;NC1,2",
  "ReceiveCoilName": "HeadNeck_64",
  "ReconMatrixPE": 104,
  "RepetitionTime": 1.49,
  "SAR": 0.0734165,
  "ScanOptions": "FS",
  "ScanningSequence": "EP",
  "SequenceName": "epfid2d1_104",
  "SequenceVariant": "SK\\SS",
  "SeriesDescription": "func_task-mario_run-05",
  "SeriesNumber": 22,
  "ShimSetting": [601, -7260, -8833, 388, -2, -338, 14, 38],
  "SliceThickness": 2,
  "SliceTiming": [0, 0.785, 0.0975, 0.8825, 0.1975, 0.98, 0.295, 1.0775, 0.3925, 1.175, 0.49, 1.275, 0.5875, 1.3725, 0.6875, 0, 0.785, 0.0975, 0.8825, 0.1975, 0.98, 0.295, 1.0775, 0.3925, 1.175, 0.49, 1.275, 0.5875, 1.3725, 0.6875, 0, 0.785, 0.0975, 0.8825, 0.1975, 0.98, 0.295, 1.0775, 0.3925, 1.175, 0.49, 1.275, 0.5875, 1.3725, 0.6875, 0, 0.785, 0.0975, 0.8825, 0.1975, 0.98, 0.295, 1.0775, 0.3925, 1.175, 0.49, 1.275, 0.5875, 1.3725, 0.6875],
  "SoftwareVersions": "syngo MR E11",
  "SpacingBetweenSlices": 2,
  "StationName": "MRC35049",
  "TaskName": "mario",
  "TotalReadoutTime": 0.0576811,
  "TxRefAmp": 296.655,
  "WipMemBlock": "f1af6069-88a5-403d-b08a-3c968ff91e64||Sequence: R017 ve11c/master r/75a17815+; Jun 28 2022 16:32:11 by eja",
  "dcmmeta_affine": [
    [-1.9997451305389404, 0.0212910957634449, -0.023796938359737396, 103.47882843017578],
    [0.028418706730008125, 1.866335153579712, -0.7183214426040649, -63.493988037109375],
    [-0.014559605158865452, 0.7185680270195007, 1.8663997650146484, -63.795509338378906],
    [0.0, 0.0, 0.0, 1.0]
],
  "dcmmeta_reorient_transform": [
    [0.0, -1.0, 0.0, 103.0],
    [1.0, 0.0, 0.0, 0.0],
    [0.0, 0.0, 1.0, 0.0],
    [0.0, 0.0, 0.0, 1.0]
],
  "dcmmeta_shape": [104, 104, 60, 432],
  "dcmmeta_slice_dim": 2,
  "dcmmeta_version": 0.6,
  "global": {
    "const": {
      "AcquisitionMatrix": [104, 0, 0, 104],
      "AngioFlag": "N",
      "BitsAllocated": 16,
      "BitsStored": 16,
      "BodyPartExamined": "BRAIN",
      "Columns": 832,
      "EchoNumbers": 1,
      "EchoTime": 37.0,
      "EchoTrainLength": 104,
      "FlipAngle": 52.0,
      "HighBit": 15,
      "ImageOrientationPatient": [0.99987254125292, -0.0142093534195, -0.0072798024583, 0.01064554771021, 0.93316754710645, -0.3592840120869],
      "ImagePositionPatient": [-841.32898362681, -797.74009107942, 277.07545405321],
      "ImageType": [
        "ORIGINAL",
        "PRIMARY",
        "M",
        "MB",
        "ND",
        "MOSAIC"
],
      "ImagedNucleus": "1H",
      "ImagingFrequency": 123.258787,
      "InPlanePhaseEncodingDirection": "COL",
      "MRAcquisitionType": "2D",
      "MagneticFieldStrength": 3.0,
      "Manufacturer": "SIEMENS",
      "ManufacturerModelName": "Prisma_fit",
      "Modality": "MR",
      "NumberOfAverages": 1.0,
      "NumberOfPhaseEncodingSteps": 104,
      "PercentPhaseFieldOfView": 100.0,
      "PercentSampling": 100.0,
      "PerformedProcedureStepStartTime": "174025.388000",
      "PhotometricInterpretation": "MONOCHROME2",
      "PixelBandwidth": 2290.0,
      "PixelRepresentation": 0,
      "PixelSpacing": [2.0, 2.0],
      "ProtocolName": "func_task-mario_run-05",
      "RepetitionTime": 1490.0,
      "Rows": 832,
      "SAR": 0.07341652525566,
      "SamplesPerPixel": 1,
      "ScanOptions": "FS",
      "ScanningSequence": "EP",
      "SequenceName": "epfid2d1_104",
      "SequenceVariant": [
        "SK",
        "SS"
],
      "SeriesDescription": "func_task-mario_run-05",
      "SeriesNumber": 22,
      "SeriesTime": "183729.192000",
      "SliceLocation": -37.960654248654,
      "SliceThickness": 2.0,
      "SmallestImagePixelValue": 0,
      "SoftwareVersions": "syngo MR E11",
      "SpacingBetweenSlices": 1.9999999883461,
      "SpecificCharacterSet": "ISO_IR 100",
      "StudyID": "1",
      "StudyTime": "174025.317000",
      "TransmitCoilName": "Body",
      "VariableFlipAngleFlag": "N",
      "WindowCenterWidthExplanation": "Algo1",
      "dBdt": 0.0},
    "slices": {}
  },
  "time": {
    "samples": {
      "AcquisitionNumber": [1, 2, 3, 4, 5, 6, 7, 8, 9, 10, 11, 12, 13, 14, 15, 16, 17, 18, 19, 20, 21, 22, 23, 24, 25, 26, 27, 28, 29, 30, 31, 32, 33, 34, 35, 36, 37, 38, 39, 40, 41, 42, 43, 44, 45, 46, 47, 48, 49, 50, 51, 52, 53, 54, 55, 56, 57, 58, 59, 60, 61, 62, 63, 64, 65, 66, 67, 68, 69, 70, 71, 72, 73, 74, 75, 76, 77, 78, 79, 80, 81, 82, 83, 84, 85, 86, 87, 88, 89, 90, 91, 92, 93, 94, 95, 96, 97, 98, 99, 100, 101, 102, 103, 104, 105, 106, 107, 108, 109, 110, 111, 112, 113, 114, 115, 116, 117, 118, 119, 120, 121, 122, 123, 124, 125, 126, 127, 128, 129, 130, 131, 132, 133, 134, 135, 136, 137, 138, 139, 140, 141, 142, 143, 144, 145, 146, 147, 148, 149, 150, 151, 152, 153, 154, 155, 156, 157, 158, 159, 160, 161, 162, 163, 164, 165, 166, 167, 168, 169, 170, 171, 172, 173, 174, 175, 176, 177, 178, 179, 180, 181, 182, 183, 184, 185, 186, 187, 188, 189, 190, 191, 192, 193, 194, 195, 196, 197, 198, 199, 200, 201, 202, 203, 204, 205, 206, 207, 208, 209, 210, 211, 212, 213, 214, 215, 216, 217, 218, 219, 220, 221, 222, 223, 224, 225, 226, 227, 228, 229, 230, 231, 232, 233, 234, 235, 236, 237, 238, 239, 240, 241, 242, 243, 244, 245, 246, 247, 248, 249, 250, 251, 252, 253, 254, 255, 256, 257, 258, 259, 260, 261, 262, 263, 264, 265, 266, 267, 268, 269, 270, 271, 272, 273, 274, 275, 276, 277, 278, 279, 280, 281, 282, 283, 284, 285, 286, 287, 288, 289, 290, 291, 292, 293, 294, 295, 296, 297, 298, 299, 300, 301, 302, 303, 304, 305, 306, 307, 308, 309, 310, 311, 312, 313, 314, 315, 316, 317, 318, 319, 320, 321, 322, 323, 324, 325, 326, 327, 328, 329, 330, 331, 332, 333, 334, 335, 336, 337, 338, 339, 340, 341, 342, 343, 344, 345, 346, 347, 348, 349, 350, 351, 352, 353, 354, 355, 356, 357, 358, 359, 360, 361, 362, 363, 364, 365, 366, 367, 368, 369, 370, 371, 372, 373, 374, 375, 376, 377, 378, 379, 380, 381, 382, 383, 384, 385, 386, 387, 388, 389, 390, 391, 392, 393, 394, 395, 396, 397, 398, 399, 400, 401, 402, 403, 404, 405, 406, 407, 408, 409, 410, 411, 412, 413, 414, 415, 416, 417, 418, 419, 420, 421, 422, 423, 424, 425, 426, 427, 428, 429, 430, 431, 432],
      "AcquisitionTime": ["183600.722500", "183602.212500", "183603.702500", "183605.192500", "183606.682500", "183608.172500", "183609.662500", "183611.152500", "183612.642500", "183614.132500", "183615.622500", "183617.112500", "183618.602500", "183620.092500", "183621.582500", "183623.072500", "183624.562500", "183626.052500", "183627.542500", "183629.032500", "183630.522500", "183632.012500", "183633.502500", "183634.992500", "183636.482500", "183637.972500", "183639.462500", "183640.952500", "183642.442500", "183643.932500", "183645.422500", "183646.912500", "183648.402500", "183649.892500", "183651.382500", "183652.872500", "183654.362500", "183655.852500", "183657.342500", "183658.832500", "183700.322500", "183701.812500", "183703.302500", "183704.792500", "183706.282500", "183707.772500", "183709.262500", "183710.752500", "183712.242500", "183713.732500", "183715.222500", "183716.712500", "183718.202500", "183719.692500", "183721.182500", "183722.672500", "183724.162500", "183725.652500", "183727.142500", "183728.632500", "183730.122500", "183731.612500", "183733.102500", "183734.592500", "183736.082500", "183737.572500", "183739.062500", "183740.552500", "183742.042500", "183743.532500", "183745.022500", "183746.512500", "183748.002500", "183749.492500", "183750.982500", "183752.472500", "183753.962500", "183755.452500", "183756.942500", "183758.432500", "183759.922500", "183801.412500", "183802.902500", "183804.392500", "183805.882500", "183807.372500", "183808.862500", "183810.352500", "183811.842500", "183813.332500", "183814.822500", "183816.312500", "183817.802500", "183819.292500", "183820.782500", "183822.272500", "183823.762500", "183825.252500", "183826.742500", "183828.232500", "183829.722500", "183831.212500", "183832.702500", "183834.192500", "183835.682500", "183837.172500", "183838.662500", "183840.152500", "183841.642500", "183843.132500", "183844.622500", "183846.112500", "183847.602500", "183849.092500", "183850.582500", "183852.072500", "183853.562500", "183855.052500", "183856.542500", "183858.032500", "183859.522500", "183901.012500", "183902.502500", "183903.992500", "183905.482500", "183906.972500", "183908.462500", "183909.952500", "183911.442500", "183912.932500", "183914.422500", "183915.912500", "183917.402500", "183918.892500", "183920.382500", "183921.872500", "183923.362500", "183924.852500", "183926.342500", "183927.832500", "183929.322500", "183930.812500", "183932.302500", "183933.792500", "183935.282500", "183936.772500", "183938.262500", "183939.752500", "183941.242500", "183942.732500", "183944.222500", "183945.712500", "183947.202500", "183948.692500", "183950.182500", "183951.672500", "183953.162500", "183954.652500", "183956.142500", "183957.632500", "183959.122500", "184000.612500", "184002.102500", "184003.592500", "184005.082500", "184006.572500", "184008.062500", "184009.552500", "184011.042500", "184012.532500", "184014.022500", "184015.512500", "184017.002500", "184018.492500", "184019.982500", "184021.472500", "184022.962500", "184024.452500", "184025.942500", "184027.432500", "184028.922500", "184030.412500", "184031.902500", "184033.392500", "184034.882500", "184036.372500", "184037.862500", "184039.352500", "184040.842500", "184042.332500", "184043.822500", "184045.312500", "184046.802500", "184048.292500", "184049.782500", "184051.272500", "184052.762500", "184054.252500", "184055.742500", "184057.232500", "184058.722500", "184100.212500", "184101.702500", "184103.192500", "184104.682500", "184106.172500", "184107.662500", "184109.152500", "184110.642500", "184112.132500", "184113.622500", "184115.112500", "184116.602500", "184118.092500", "184119.582500", "184121.072500", "184122.562500", "184124.052500", "184125.542500", "184127.032500", "184128.522500", "184130.012500", "184131.502500", "184132.992500", "184134.482500", "184135.972500", "184137.462500", "184138.952500", "184140.442500", "184141.932500", "184143.422500", "184144.912500", "184146.402500", "184147.892500", "184149.382500", "184150.872500", "184152.362500", "184153.852500", "184155.342500", "184156.832500", "184158.322500", "184159.812500", "184201.302500", "184202.792500", "184204.282500", "184205.772500", "184207.262500", "184208.752500", "184210.242500", "184211.732500", "184213.222500", "184214.712500", "184216.202500", "184217.692500", "184219.182500", "184220.672500", "184222.162500", "184223.652500", "184225.142500", "184226.632500", "184228.122500", "184229.612500", "184231.102500", "184232.592500", "184234.082500", "184235.572500", "184237.062500", "184238.552500", "184240.042500", "184241.532500", "184243.022500", "184244.512500", "184246.002500", "184247.492500", "184248.982500", "184250.472500", "184251.962500", "184253.452500", "184254.942500", "184256.432500", "184257.922500", "184259.412500", "184300.902500", "184302.392500", "184303.882500", "184305.372500", "184306.862500", "184308.352500", "184309.842500", "184311.332500", "184312.822500", "184314.312500", "184315.802500", "184317.292500", "184318.782500", "184320.272500", "184321.762500", "184323.252500", "184324.742500", "184326.232500", "184327.722500", "184329.212500", "184330.702500", "184332.192500", "184333.682500", "184335.172500", "184336.662500", "184338.152500", "184339.642500", "184341.132500", "184342.622500", "184344.112500", "184345.602500", "184347.092500", "184348.582500", "184350.072500", "184351.562500", "184353.052500", "184354.542500", "184356.032500", "184357.522500", "184359.012500", "184400.502500", "184401.992500", "184403.482500", "184404.972500", "184406.462500", "184407.952500", "184409.442500", "184410.932500", "184412.422500", "184413.912500", "184415.402500", "184416.892500", "184418.382500", "184419.872500", "184421.362500", "184422.852500", "184424.342500", "184425.832500", "184427.322500", "184428.812500", "184430.302500", "184431.792500", "184433.282500", "184434.772500", "184436.262500", "184437.752500", "184439.242500", "184440.732500", "184442.222500", "184443.712500", "184445.202500", "184446.692500", "184448.182500", "184449.672500", "184451.162500", "184452.652500", "184454.142500", "184455.632500", "184457.122500", "184458.612500", "184500.102500", "184501.592500", "184503.082500", "184504.572500", "184506.062500", "184507.552500", "184509.042500", "184510.532500", "184512.022500", "184513.512500", "184515.002500", "184516.492500", "184517.982500", "184519.472500", "184520.962500", "184522.452500", "184523.942500", "184525.432500", "184526.922500", "184528.412500", "184529.902500", "184531.392500", "184532.882500", "184534.372500", "184535.862500", "184537.352500", "184538.842500", "184540.332500", "184541.822500", "184543.312500", "184544.802500", "184546.292500", "184547.782500", "184549.272500", "184550.762500", "184552.252500", "184553.742500", "184555.232500", "184556.722500", "184558.212500", "184559.702500", "184601.192500", "184602.682500", "184604.172500", "184605.662500", "184607.152500", "184608.642500", "184610.132500", "184611.622500", "184613.112500", "184614.602500", "184616.092500", "184617.582500", "184619.072500", "184620.562500", "184622.052500", "184623.542500", "184625.032500", "184626.522500", "184628.012500", "184629.502500", "184630.992500", "184632.482500", "184633.972500", "184635.462500", "184636.952500", "184638.442500", "184639.932500", "184641.422500", "184642.912500"],
      "ContentTime": ["183729.196000", "183729.199000", "183729.203000", "183729.206000", "183729.209000", "183729.212000", "183729.216000", "183729.219000", "183729.222000", "183729.226000", "183729.229000", "183729.232000", "183729.236000", "183729.239000", "183729.242000", "183729.246000", "183729.249000", "183729.252000", "183729.256000", "183729.259000", "183729.268000", "183729.272000", "183729.275000", "183729.278000", "183729.282000", "183729.285000", "183729.288000", "183729.292000", "183729.295000", "183729.298000", "183729.304000", "183729.308000", "183729.311000", "183729.314000", "183729.318000", "183729.321000", "183729.324000", "183729.328000", "183729.331000", "183729.334000", "183749.154000", "183749.158000", "183749.161000", "183749.164000", "183749.168000", "183749.171000", "183749.174000", "183749.177000", "183749.181000", "183749.184000", "183749.187000", "183749.190000", "183749.194000", "183749.197000", "183749.200000", "183749.204000", "183749.207000", "183749.210000", "183749.213000", "183749.217000", "183809.154000", "183809.158000", "183809.161000", "183809.164000", "183809.167000", "183809.171000", "183809.174000", "183809.177000", "183809.181000", "183809.184000", "183809.187000", "183809.190000", "183809.194000", "183809.207000", "183809.210000", "183809.213000", "183809.217000", "183809.220000", "183809.223000", "183809.226000", "183849.154000", "183849.158000", "183849.161000", "183849.164000", "183849.168000", "183849.171000", "183849.174000", "183849.178000", "183849.181000", "183849.184000", "183849.188000", "183849.191000", "183849.194000", "183849.198000", "183849.201000", "183849.204000", "183849.207000", "183849.211000", "183849.214000", "183849.218000", "183849.221000", "183849.224000", "183849.228000", "183849.231000", "183849.234000", "183849.237000", "183849.241000", "183849.244000", "183849.247000", "183849.250000", "183849.254000", "183849.257000", "183929.154000", "183929.158000", "183929.161000", "183929.164000", "183929.168000", "183929.171000", "183929.174000", "183929.177000", "183929.181000", "183929.184000", "183929.187000", "183929.191000", "183929.194000", "183929.197000", "183929.200000", "183929.204000", "183929.207000", "183929.210000", "183929.214000", "183929.217000", "183929.220000", "183929.223000", "183929.227000", "183929.230000", "183929.233000", "183929.237000", "183929.240000", "183949.154000", "183949.158000", "183949.161000", "183949.164000", "183949.168000", "183949.171000", "183949.174000", "183949.178000", "183949.181000", "183949.184000", "183949.188000", "183949.191000", "183949.194000", "184029.154000", "184029.158000", "184029.161000", "184029.164000", "184029.168000", "184029.171000", "184029.174000", "184029.178000", "184029.181000", "184029.184000", "184029.188000", "184029.191000", "184029.194000", "184029.197000", "184029.201000", "184029.204000", "184029.207000", "184029.211000", "184029.214000", "184029.217000", "184029.220000", "184029.224000", "184029.227000", "184029.245000", "184029.249000", "184029.252000", "184029.255000", "184109.154000", "184109.158000", "184109.161000", "184109.165000", "184109.168000", "184109.171000", "184109.175000", "184109.178000", "184109.181000", "184109.185000", "184109.188000", "184109.191000", "184109.194000", "184109.198000", "184109.201000", "184109.204000", "184109.208000", "184109.211000", "184109.214000", "184109.218000", "184109.221000", "184109.224000", "184109.228000", "184109.231000", "184109.234000", "184109.238000", "184109.241000", "184149.154000", "184149.158000", "184149.161000", "184149.164000", "184149.168000", "184149.171000", "184149.174000", "184149.178000", "184149.181000", "184149.184000", "184149.188000", "184149.191000", "184149.194000", "184149.197000", "184149.201000", "184149.204000", "184149.207000", "184149.211000", "184149.214000", "184149.217000", "184149.220000", "184149.224000", "184149.227000", "184149.230000", "184149.234000", "184149.237000", "184149.240000", "184229.154000", "184229.158000", "184229.161000", "184229.170000", "184229.173000", "184229.176000", "184229.180000", "184229.183000", "184229.186000", "184229.190000", "184229.193000", "184229.196000", "184229.199000", "184229.203000", "184229.206000", "184229.209000", "184229.213000", "184229.216000", "184229.219000", "184229.222000", "184229.226000", "184229.229000", "184229.232000", "184229.236000", "184229.239000", "184229.242000", "184229.245000", "184309.154000", "184309.158000", "184309.161000", "184309.165000", "184309.168000", "184309.171000", "184309.191000", "184309.194000", "184309.197000", "184309.201000", "184309.204000", "184309.207000", "184309.211000", "184309.214000", "184309.217000", "184309.221000", "184309.224000", "184309.227000", "184309.230000", "184309.234000", "184309.237000", "184309.240000", "184309.244000", "184309.247000", "184309.250000", "184309.253000", "184309.257000", "184349.155000", "184349.159000", "184349.162000", "184349.166000", "184349.169000", "184349.172000", "184349.175000", "184349.179000", "184349.182000", "184349.185000", "184349.189000", "184349.192000", "184349.195000", "184349.199000", "184349.202000", "184349.205000", "184349.209000", "184349.212000", "184349.215000", "184349.219000", "184349.222000", "184349.225000", "184349.228000", "184349.232000", "184349.235000", "184349.238000", "184429.154000", "184429.158000", "184429.161000", "184429.165000", "184429.168000", "184429.171000", "184429.174000", "184429.178000", "184429.181000", "184429.184000", "184429.188000", "184429.191000", "184429.194000", "184429.205000", "184429.208000", "184429.211000", "184429.215000", "184429.218000", "184429.221000", "184429.225000", "184429.228000", "184429.231000", "184429.235000", "184429.238000", "184429.241000", "184429.244000", "184429.248000", "184509.155000", "184509.159000", "184509.162000", "184509.165000", "184509.169000", "184509.172000", "184509.175000", "184509.179000", "184509.182000", "184509.185000", "184509.188000", "184509.192000", "184509.195000", "184509.198000", "184509.202000", "184509.205000", "184509.208000", "184509.212000", "184509.215000", "184509.218000", "184509.222000", "184509.225000", "184509.228000", "184509.232000", "184509.235000", "184509.240000", "184509.243000", "184549.154000", "184549.158000", "184549.161000", "184549.164000", "184549.168000", "184549.171000", "184549.174000", "184549.178000", "184549.181000", "184549.184000", "184549.187000", "184549.190000", "184549.194000", "184549.197000", "184549.200000", "184549.204000", "184549.207000", "184549.210000", "184549.213000", "184549.217000", "184549.220000", "184549.223000", "184549.227000", "184549.230000", "184549.233000", "184549.236000", "184549.240000", "184629.154000", "184629.158000", "184629.161000", "184629.164000", "184629.168000", "184629.171000", "184629.174000", "184629.177000", "184629.181000", "184629.184000", "184629.187000", "184629.191000", "184629.194000", "184629.197000", "184629.201000", "184629.204000", "184629.207000", "184629.210000", "184629.214000", "184629.217000", "184629.220000", "184629.224000", "184629.227000", "184629.230000", "184629.234000", "184629.237000", "184629.240000", "184645.632000", "184645.635000", "184645.639000", "184645.642000", "184645.645000", "184645.649000", "184645.652000", "184645.655000", "184645.659000", "184645.662000", "184645.665000"],
      "InstanceCreationTime": ["183729.196000", "183729.199000", "183729.203000", "183729.206000", "183729.209000", "183729.212000", "183729.216000", "183729.219000", "183729.222000", "183729.226000", "183729.229000", "183729.232000", "183729.236000", "183729.239000", "183729.242000", "183729.246000", "183729.249000", "183729.252000", "183729.256000", "183729.259000", "183729.268000", "183729.272000", "183729.275000", "183729.278000", "183729.282000", "183729.285000", "183729.288000", "183729.292000", "183729.295000", "183729.298000", "183729.304000", "183729.308000", "183729.311000", "183729.314000", "183729.318000", "183729.321000", "183729.324000", "183729.328000", "183729.331000", "183729.334000", "183749.154000", "183749.158000", "183749.161000", "183749.164000", "183749.168000", "183749.171000", "183749.174000", "183749.177000", "183749.181000", "183749.184000", "183749.187000", "183749.190000", "183749.194000", "183749.197000", "183749.200000", "183749.204000", "183749.207000", "183749.210000", "183749.213000", "183749.217000", "183809.154000", "183809.158000", "183809.161000", "183809.164000", "183809.167000", "183809.171000", "183809.174000", "183809.177000", "183809.181000", "183809.184000", "183809.187000", "183809.190000", "183809.194000", "183809.207000", "183809.210000", "183809.213000", "183809.217000", "183809.220000", "183809.223000", "183809.226000", "183849.154000", "183849.158000", "183849.161000", "183849.164000", "183849.168000", "183849.171000", "183849.174000", "183849.178000", "183849.181000", "183849.184000", "183849.188000", "183849.191000", "183849.194000", "183849.198000", "183849.201000", "183849.204000", "183849.207000", "183849.211000", "183849.214000", "183849.218000", "183849.221000", "183849.224000", "183849.228000", "183849.231000", "183849.234000", "183849.237000", "183849.241000", "183849.244000", "183849.247000", "183849.250000", "183849.254000", "183849.257000", "183929.154000", "183929.158000", "183929.161000", "183929.164000", "183929.168000", "183929.171000", "183929.174000", "183929.177000", "183929.181000", "183929.184000", "183929.187000", "183929.191000", "183929.194000", "183929.197000", "183929.200000", "183929.204000", "183929.207000", "183929.210000", "183929.214000", "183929.217000", "183929.220000", "183929.223000", "183929.227000", "183929.230000", "183929.233000", "183929.237000", "183929.240000", "183949.154000", "183949.158000", "183949.161000", "183949.164000", "183949.168000", "183949.171000", "183949.174000", "183949.178000", "183949.181000", "183949.184000", "183949.188000", "183949.191000", "183949.194000", "184029.154000", "184029.158000", "184029.161000", "184029.164000", "184029.168000", "184029.171000", "184029.174000", "184029.178000", "184029.181000", "184029.184000", "184029.188000", "184029.191000", "184029.194000", "184029.197000", "184029.201000", "184029.204000", "184029.207000", "184029.211000", "184029.214000", "184029.217000", "184029.220000", "184029.224000", "184029.227000", "184029.245000", "184029.249000", "184029.252000", "184029.255000", "184109.154000", "184109.158000", "184109.161000", "184109.165000", "184109.168000", "184109.171000", "184109.175000", "184109.178000", "184109.181000", "184109.185000", "184109.188000", "184109.191000", "184109.194000", "184109.198000", "184109.201000", "184109.204000", "184109.208000", "184109.211000", "184109.214000", "184109.218000", "184109.221000", "184109.224000", "184109.228000", "184109.231000", "184109.234000", "184109.238000", "184109.241000", "184149.154000", "184149.158000", "184149.161000", "184149.164000", "184149.168000", "184149.171000", "184149.174000", "184149.178000", "184149.181000", "184149.184000", "184149.188000", "184149.191000", "184149.194000", "184149.197000", "184149.201000", "184149.204000", "184149.207000", "184149.211000", "184149.214000", "184149.217000", "184149.220000", "184149.224000", "184149.227000", "184149.230000", "184149.234000", "184149.237000", "184149.240000", "184229.154000", "184229.158000", "184229.161000", "184229.170000", "184229.173000", "184229.176000", "184229.180000", "184229.183000", "184229.186000", "184229.190000", "184229.193000", "184229.196000", "184229.199000", "184229.203000", "184229.206000", "184229.209000", "184229.213000", "184229.216000", "184229.219000", "184229.222000", "184229.226000", "184229.229000", "184229.232000", "184229.236000", "184229.239000", "184229.242000", "184229.245000", "184309.154000", "184309.158000", "184309.161000", "184309.165000", "184309.168000", "184309.171000", "184309.191000", "184309.194000", "184309.197000", "184309.201000", "184309.204000", "184309.207000", "184309.211000", "184309.214000", "184309.217000", "184309.221000", "184309.224000", "184309.227000", "184309.230000", "184309.234000", "184309.237000", "184309.240000", "184309.244000", "184309.247000", "184309.250000", "184309.253000", "184309.257000", "184349.155000", "184349.159000", "184349.162000", "184349.166000", "184349.169000", "184349.172000", "184349.175000", "184349.179000", "184349.182000", "184349.185000", "184349.189000", "184349.192000", "184349.195000", "184349.199000", "184349.202000", "184349.205000", "184349.209000", "184349.212000", "184349.215000", "184349.219000", "184349.222000", "184349.225000", "184349.228000", "184349.232000", "184349.235000", "184349.238000", "184429.154000", "184429.158000", "184429.161000", "184429.165000", "184429.168000", "184429.171000", "184429.174000", "184429.178000", "184429.181000", "184429.184000", "184429.188000", "184429.191000", "184429.194000", "184429.205000", "184429.208000", "184429.211000", "184429.215000", "184429.218000", "184429.221000", "184429.225000", "184429.228000", "184429.231000", "184429.235000", "184429.238000", "184429.241000", "184429.244000", "184429.248000", "184509.155000", "184509.159000", "184509.162000", "184509.165000", "184509.169000", "184509.172000", "184509.175000", "184509.179000", "184509.182000", "184509.185000", "184509.188000", "184509.192000", "184509.195000", "184509.198000", "184509.202000", "184509.205000", "184509.208000", "184509.212000", "184509.215000", "184509.218000", "184509.222000", "184509.225000", "184509.228000", "184509.232000", "184509.235000", "184509.240000", "184509.243000", "184549.154000", "184549.158000", "184549.161000", "184549.164000", "184549.168000", "184549.171000", "184549.174000", "184549.178000", "184549.181000", "184549.184000", "184549.187000", "184549.190000", "184549.194000", "184549.197000", "184549.200000", "184549.204000", "184549.207000", "184549.210000", "184549.213000", "184549.217000", "184549.220000", "184549.223000", "184549.227000", "184549.230000", "184549.233000", "184549.236000", "184549.240000", "184629.154000", "184629.158000", "184629.161000", "184629.164000", "184629.168000", "184629.171000", "184629.174000", "184629.177000", "184629.181000", "184629.184000", "184629.187000", "184629.191000", "184629.194000", "184629.197000", "184629.201000", "184629.204000", "184629.207000", "184629.210000", "184629.214000", "184629.217000", "184629.220000", "184629.224000", "184629.227000", "184629.230000", "184629.234000", "184629.237000", "184629.240000", "184645.632000", "184645.635000", "184645.639000", "184645.642000", "184645.645000", "184645.649000", "184645.652000", "184645.655000", "184645.659000", "184645.662000", "184645.665000"],
