{
  "AcquisitionMatrixPE": 104,
  "AcquisitionNumber": 1,
  "AcquisitionTime": "18:23:17.095000",
  "BandwidthPerPixelPhaseEncode": 17.17,
  "BaseResolution": 104,
  "BodyPartExamined": "BRAIN",
  "CoilCombinationMethod": "Sum of Squares",
  "ConsistencyInfo": "N4_VE11C_LATEST_20160120",
  "ConversionSoftware": "dcm2niix",
  "ConversionSoftwareVersion": "v1.0.20211006",
  "DerivedVendorReportedEchoSpacing": 0.000560011,
  "DeviceSerialNumber": "167006",
  "DwellTime": 2.1e-06,
  "EchoTime": 0.037,
  "EchoTrainLength": 104,
  "EffectiveEchoSpacing": 0.000560011,
  "FlipAngle": 52,
  "HeudiconvVersion": "0.11.3.post9+gc939bf8",
  "ImageComments": "Unaliased MB4/PE3/LB",
  "ImageOrientationPatientDICOM": [0.999873, -0.0142094, -0.0072798, 0.0106455, 0.933168, -0.359284],
  "ImageOrientationText": "Tra>Cor(-21.1)>Sag(-0.7)",
  "ImageType": [
    "ORIGINAL",
    "PRIMARY",
    "M",
    "MB",
    "ND",
    "MOSAIC"
],
  "ImagingFrequency": 123.259,
  "InPlanePhaseEncodingDirectionDICOM": "COL",
  "InstitutionAddress": "Chemin Queen-Mary 4565,Montreal,District,CA,H3W 1W5",
  "InstitutionName": "IUGM",
  "InstitutionalDepartmentName": "Department",
  "MRAcquisitionType": "2D",
  "MagneticFieldStrength": 3,
  "Manufacturer": "Siemens",
  "ManufacturersModelName": "Prisma_fit",
  "MatrixCoilMode": "SENSE",
  "Modality": "MR",
  "MultibandAccelerationFactor": 4,
  "PartialFourier": 1,
  "PatientPosition": "HFS",
  "PercentPhaseFOV": 100,
  "PercentSampling": 100,
  "PhaseEncodingDirection": "j",
  "PhaseEncodingSteps": 104,
  "PhaseResolution": 1,
  "PixelBandwidth": 2290,
  "ProcedureStepDescription": "games^mario",
  "ProtocolName": "func_task-mario_run-04",
  "PulseSequenceDetails": "%CustomerSeq%\\cmrr_mbep2d_bold",
  "ReceiveCoilActiveElements": "HC1-7;NC1,2",
  "ReceiveCoilName": "HeadNeck_64",
  "ReconMatrixPE": 104,
  "RepetitionTime": 1.49,
  "SAR": 0.0734165,
  "ScanOptions": "FS",
  "ScanningSequence": "EP",
  "SequenceName": "epfid2d1_104",
  "SequenceVariant": "SK\\SS",
  "SeriesDescription": "func_task-mario_run-04",
  "SeriesNumber": 19,
  "ShimSetting": [601, -7260, -8833, 388, -2, -338, 14, 38],
  "SliceThickness": 2,
  "SliceTiming": [0, 0.785, 0.1, 0.8825, 0.1975, 0.98, 0.295, 1.08, 0.3925, 1.1775, 0.49, 1.275, 0.59, 1.3725, 0.6875, 0, 0.785, 0.1, 0.8825, 0.1975, 0.98, 0.295, 1.08, 0.3925, 1.1775, 0.49, 1.275, 0.59, 1.3725, 0.6875, 0, 0.785, 0.1, 0.8825, 0.1975, 0.98, 0.295, 1.08, 0.3925, 1.1775, 0.49, 1.275, 0.59, 1.3725, 0.6875, 0, 0.785, 0.1, 0.8825, 0.1975, 0.98, 0.295, 1.08, 0.3925, 1.1775, 0.49, 1.275, 0.59, 1.3725, 0.6875],
  "SoftwareVersions": "syngo MR E11",
  "SpacingBetweenSlices": 2,
  "StationName": "MRC35049",
  "TaskName": "mario",
  "TotalReadoutTime": 0.0576811,
  "TxRefAmp": 296.655,
  "WipMemBlock": "52fad9f6-a1da-467b-8810-063952dfc0fa||Sequence: R017 ve11c/master r/75a17815+; Jun 28 2022 16:32:11 by eja",
  "dcmmeta_affine": [
    [-1.9997451305389404, 0.0212910957634449, -0.023796938359737396, 103.47882843017578],
    [0.028418706730008125, 1.866335153579712, -0.7183214426040649, -63.493988037109375],
    [-0.014559605158865452, 0.7185680270195007, 1.8663997650146484, -63.795509338378906],
    [0.0, 0.0, 0.0, 1.0]
],
  "dcmmeta_reorient_transform": [
    [0.0, -1.0, 0.0, 103.0],
    [1.0, 0.0, 0.0, 0.0],
    [0.0, 0.0, 1.0, 0.0],
    [0.0, 0.0, 0.0, 1.0]
],
  "dcmmeta_shape": [104, 104, 60, 444],
  "dcmmeta_slice_dim": 2,
  "dcmmeta_version": 0.6,
  "global": {
    "const": {
      "AcquisitionMatrix": [104, 0, 0, 104],
      "AngioFlag": "N",
      "BitsAllocated": 16,
      "BitsStored": 16,
      "BodyPartExamined": "BRAIN",
      "Columns": 832,
      "EchoNumbers": 1,
      "EchoTime": 37.0,
      "EchoTrainLength": 104,
      "FlipAngle": 52.0,
      "HighBit": 15,
      "ImageOrientationPatient": [0.99987254125292, -0.0142093534195, -0.0072798024583, 0.01064554771021, 0.93316754710645, -0.3592840120869],
      "ImagePositionPatient": [-841.32898362681, -797.74009107942, 277.07545405321],
      "ImageType": [
        "ORIGINAL",
        "PRIMARY",
        "M",
        "MB",
        "ND",
        "MOSAIC"
],
      "ImagedNucleus": "1H",
      "ImagingFrequency": 123.258785,
      "InPlanePhaseEncodingDirection": "COL",
      "MRAcquisitionType": "2D",
      "MagneticFieldStrength": 3.0,
      "Manufacturer": "SIEMENS",
      "ManufacturerModelName": "Prisma_fit",
      "Modality": "MR",
      "NumberOfAverages": 1.0,
      "NumberOfPhaseEncodingSteps": 104,
      "PercentPhaseFieldOfView": 100.0,
      "PercentSampling": 100.0,
      "PerformedProcedureStepStartTime": "174025.388000",
      "PhotometricInterpretation": "MONOCHROME2",
      "PixelBandwidth": 2290.0,
      "PixelRepresentation": 0,
      "PixelSpacing": [2.0, 2.0],
      "ProtocolName": "func_task-mario_run-04",
      "RepetitionTime": 1490.0,
      "Rows": 832,
      "SAR": 0.07341652525566,
      "SamplesPerPixel": 1,
      "ScanOptions": "FS",
      "ScanningSequence": "EP",
      "SequenceName": "epfid2d1_104",
      "SequenceVariant": [
        "SK",
        "SS"
],
      "SeriesDescription": "func_task-mario_run-04",
      "SeriesNumber": 19,
      "SeriesTime": "182437.242000",
      "SliceLocation": -37.960654248654,
      "SliceThickness": 2.0,
      "SmallestImagePixelValue": 0,
      "SoftwareVersions": "syngo MR E11",
      "SpacingBetweenSlices": 1.9999999883461,
      "SpecificCharacterSet": "ISO_IR 100",
      "StudyID": "1",
      "StudyTime": "174025.317000",
      "TransmitCoilName": "Body",
      "VariableFlipAngleFlag": "N",
      "WindowCenterWidthExplanation": "Algo1",
      "dBdt": 0.0},
    "slices": {}
  },
  "time": {
    "samples": {
      "AcquisitionNumber": [1, 2, 3, 4, 5, 6, 7, 8, 9, 10, 11, 12, 13, 14, 15, 16, 17, 18, 19, 20, 21, 22, 23, 24, 25, 26, 27, 28, 29, 30, 31, 32, 33, 34, 35, 36, 37, 38, 39, 40, 41, 42, 43, 44, 45, 46, 47, 48, 49, 50, 51, 52, 53, 54, 55, 56, 57, 58, 59, 60, 61, 62, 63, 64, 65, 66, 67, 68, 69, 70, 71, 72, 73, 74, 75, 76, 77, 78, 79, 80, 81, 82, 83, 84, 85, 86, 87, 88, 89, 90, 91, 92, 93, 94, 95, 96, 97, 98, 99, 100, 101, 102, 103, 104, 105, 106, 107, 108, 109, 110, 111, 112, 113, 114, 115, 116, 117, 118, 119, 120, 121, 122, 123, 124, 125, 126, 127, 128, 129, 130, 131, 132, 133, 134, 135, 136, 137, 138, 139, 140, 141, 142, 143, 144, 145, 146, 147, 148, 149, 150, 151, 152, 153, 154, 155, 156, 157, 158, 159, 160, 161, 162, 163, 164, 165, 166, 167, 168, 169, 170, 171, 172, 173, 174, 175, 176, 177, 178, 179, 180, 181, 182, 183, 184, 185, 186, 187, 188, 189, 190, 191, 192, 193, 194, 195, 196, 197, 198, 199, 200, 201, 202, 203, 204, 205, 206, 207, 208, 209, 210, 211, 212, 213, 214, 215, 216, 217, 218, 219, 220, 221, 222, 223, 224, 225, 226, 227, 228, 229, 230, 231, 232, 233, 234, 235, 236, 237, 238, 239, 240, 241, 242, 243, 244, 245, 246, 247, 248, 249, 250, 251, 252, 253, 254, 255, 256, 257, 258, 259, 260, 261, 262, 263, 264, 265, 266, 267, 268, 269, 270, 271, 272, 273, 274, 275, 276, 277, 278, 279, 280, 281, 282, 283, 284, 285, 286, 287, 288, 289, 290, 291, 292, 293, 294, 295, 296, 297, 298, 299, 300, 301, 302, 303, 304, 305, 306, 307, 308, 309, 310, 311, 312, 313, 314, 315, 316, 317, 318, 319, 320, 321, 322, 323, 324, 325, 326, 327, 328, 329, 330, 331, 332, 333, 334, 335, 336, 337, 338, 339, 340, 341, 342, 343, 344, 345, 346, 347, 348, 349, 350, 351, 352, 353, 354, 355, 356, 357, 358, 359, 360, 361, 362, 363, 364, 365, 366, 367, 368, 369, 370, 371, 372, 373, 374, 375, 376, 377, 378, 379, 380, 381, 382, 383, 384, 385, 386, 387, 388, 389, 390, 391, 392, 393, 394, 395, 396, 397, 398, 399, 400, 401, 402, 403, 404, 405, 406, 407, 408, 409, 410, 411, 412, 413, 414, 415, 416, 417, 418, 419, 420, 421, 422, 423, 424, 425, 426, 427, 428, 429, 430, 431, 432, 433, 434, 435, 436, 437, 438, 439, 440, 441, 442, 443, 444],
      "AcquisitionTime": ["182317.095000", "182318.585000", "182320.075000", "182321.565000", "182323.055000", "182324.545000", "182326.035000", "182327.525000", "182329.015000", "182330.505000", "182331.995000", "182333.485000", "182334.975000", "182336.465000", "182337.955000", "182339.445000", "182340.935000", "182342.425000", "182343.915000", "182345.405000", "182346.895000", "182348.385000", "182349.875000", "182351.365000", "182352.855000", "182354.345000", "182355.835000", "182357.325000", "182358.815000", "182400.305000", "182401.795000", "182403.285000", "182404.775000", "182406.265000", "182407.755000", "182409.245000", "182410.735000", "182412.225000", "182413.715000", "182415.205000", "182416.695000", "182418.185000", "182419.675000", "182421.165000", "182422.655000", "182424.145000", "182425.635000", "182427.125000", "182428.615000", "182430.105000", "182431.595000", "182433.085000", "182434.575000", "182436.065000", "182437.555000", "182439.045000", "182440.535000", "182442.025000", "182443.515000", "182445.005000", "182446.495000", "182447.985000", "182449.475000", "182450.965000", "182452.455000", "182453.945000", "182455.435000", "182456.925000", "182458.415000", "182459.905000", "182501.395000", "182502.885000", "182504.375000", "182505.865000", "182507.355000", "182508.845000", "182510.335000", "182511.825000", "182513.315000", "182514.805000", "182516.295000", "182517.785000", "182519.275000", "182520.765000", "182522.255000", "182523.745000", "182525.235000", "182526.725000", "182528.215000", "182529.705000", "182531.195000", "182532.685000", "182534.175000", "182535.665000", "182537.155000", "182538.645000", "182540.135000", "182541.625000", "182543.115000", "182544.605000", "182546.095000", "182547.585000", "182549.075000", "182550.565000", "182552.055000", "182553.545000", "182555.035000", "182556.525000", "182558.015000", "182559.505000", "182600.995000", "182602.485000", "182603.975000", "182605.465000", "182606.955000", "182608.445000", "182609.935000", "182611.425000", "182612.915000", "182614.405000", "182615.895000", "182617.385000", "182618.875000", "182620.365000", "182621.855000", "182623.345000", "182624.835000", "182626.325000", "182627.815000", "182629.305000", "182630.795000", "182632.285000", "182633.775000", "182635.265000", "182636.755000", "182638.245000", "182639.735000", "182641.225000", "182642.715000", "182644.205000", "182645.695000", "182647.185000", "182648.675000", "182650.165000", "182651.655000", "182653.145000", "182654.635000", "182656.125000", "182657.615000", "182659.105000", "182700.595000", "182702.085000", "182703.575000", "182705.065000", "182706.555000", "182708.045000", "182709.535000", "182711.025000", "182712.515000", "182714.005000", "182715.495000", "182716.985000", "182718.475000", "182719.965000", "182721.455000", "182722.945000", "182724.435000", "182725.925000", "182727.415000", "182728.905000", "182730.395000", "182731.885000", "182733.375000", "182734.865000", "182736.355000", "182737.845000", "182739.335000", "182740.825000", "182742.315000", "182743.805000", "182745.295000", "182746.785000", "182748.275000", "182749.765000", "182751.255000", "182752.745000", "182754.235000", "182755.725000", "182757.215000", "182758.705000", "182800.195000", "182801.685000", "182803.175000", "182804.665000", "182806.155000", "182807.645000", "182809.135000", "182810.625000", "182812.115000", "182813.605000", "182815.095000", "182816.585000", "182818.075000", "182819.565000", "182821.055000", "182822.545000", "182824.035000", "182825.525000", "182827.015000", "182828.505000", "182829.995000", "182831.485000", "182832.975000", "182834.465000", "182835.955000", "182837.445000", "182838.935000", "182840.425000", "182841.915000", "182843.405000", "182844.895000", "182846.385000", "182847.875000", "182849.365000", "182850.855000", "182852.345000", "182853.835000", "182855.325000", "182856.815000", "182858.305000", "182859.795000", "182901.285000", "182902.775000", "182904.265000", "182905.755000", "182907.245000", "182908.735000", "182910.225000", "182911.715000", "182913.205000", "182914.695000", "182916.185000", "182917.675000", "182919.165000", "182920.655000", "182922.145000", "182923.635000", "182925.125000", "182926.615000", "182928.105000", "182929.595000", "182931.085000", "182932.575000", "182934.065000", "182935.555000", "182937.045000", "182938.535000", "182940.025000", "182941.515000", "182943.005000", "182944.495000", "182945.985000", "182947.475000", "182948.965000", "182950.455000", "182951.945000", "182953.435000", "182954.925000", "182956.415000", "182957.905000", "182959.395000", "183000.885000", "183002.375000", "183003.865000", "183005.355000", "183006.845000", "183008.335000", "183009.825000", "183011.315000", "183012.805000", "183014.295000", "183015.785000", "183017.275000", "183018.765000", "183020.255000", "183021.745000", "183023.235000", "183024.725000", "183026.215000", "183027.705000", "183029.195000", "183030.685000", "183032.175000", "183033.665000", "183035.155000", "183036.645000", "183038.135000", "183039.625000", "183041.115000", "183042.605000", "183044.095000", "183045.585000", "183047.075000", "183048.565000", "183050.055000", "183051.545000", "183053.035000", "183054.525000", "183056.015000", "183057.505000", "183058.995000", "183100.485000", "183101.975000", "183103.465000", "183104.955000", "183106.445000", "183107.935000", "183109.425000", "183110.915000", "183112.405000", "183113.895000", "183115.385000", "183116.875000", "183118.365000", "183119.855000", "183121.345000", "183122.835000", "183124.325000", "183125.815000", "183127.305000", "183128.795000", "183130.285000", "183131.775000", "183133.265000", "183134.755000", "183136.245000", "183137.735000", "183139.225000", "183140.715000", "183142.205000", "183143.695000", "183145.185000", "183146.675000", "183148.165000", "183149.655000", "183151.145000", "183152.635000", "183154.125000", "183155.615000", "183157.105000", "183158.595000", "183200.085000", "183201.575000", "183203.065000", "183204.555000", "183206.045000", "183207.535000", "183209.025000", "183210.515000", "183212.005000", "183213.495000", "183214.985000", "183216.475000", "183217.965000", "183219.455000", "183220.945000", "183222.435000", "183223.925000", "183225.415000", "183226.905000", "183228.395000", "183229.885000", "183231.375000", "183232.865000", "183234.355000", "183235.845000", "183237.335000", "183238.825000", "183240.315000", "183241.805000", "183243.295000", "183244.785000", "183246.275000", "183247.765000", "183249.255000", "183250.745000", "183252.235000", "183253.725000", "183255.215000", "183256.705000", "183258.195000", "183259.685000", "183301.175000", "183302.665000", "183304.155000", "183305.645000", "183307.135000", "183308.625000", "183310.115000", "183311.605000", "183313.095000", "183314.585000", "183316.075000", "183317.565000", "183319.055000", "183320.545000", "183322.035000", "183323.525000", "183325.015000", "183326.505000", "183327.995000", "183329.485000", "183330.975000", "183332.465000", "183333.955000", "183335.445000", "183336.935000", "183338.425000", "183339.915000", "183341.405000", "183342.895000", "183344.385000", "183345.875000", "183347.365000", "183348.855000", "183350.345000", "183351.835000", "183353.325000", "183354.815000", "183356.305000", "183357.795000", "183359.285000", "183400.775000", "183402.265000", "183403.755000", "183405.245000", "183406.735000", "183408.225000", "183409.715000", "183411.205000", "183412.695000", "183414.185000", "183415.675000", "183417.165000"],
      "ContentTime": ["182437.246000", "182437.250000", "182437.253000", "182437.256000", "182437.259000", "182437.263000", "182437.266000", "182437.269000", "182437.273000", "182437.276000", "182437.279000", "182437.283000", "182437.286000", "182437.296000", "182437.299000", "182437.303000", "182437.306000", "182437.309000", "182437.312000", "182437.316000", "182437.319000", "182437.322000", "182437.326000", "182437.329000", "182437.332000", "182437.336000", "182437.339000", "182437.342000", "182437.345000", "182457.208000", "182457.212000", "182457.215000", "182457.218000", "182457.222000", "182457.234000", "182457.237000", "182457.240000", "182457.244000", "182457.247000", "182457.250000", "182457.253000", "182457.257000", "182457.260000", "182457.263000", "182457.267000", "182457.270000", "182457.273000", "182457.285000", "182457.288000", "182517.208000", "182517.212000", "182517.216000", "182517.219000", "182517.222000", "182517.226000", "182517.229000", "182517.233000", "182517.236000", "182517.239000", "182517.243000", "182517.266000", "182517.270000", "182517.273000", "182517.276000", "182517.280000", "182517.283000", "182517.286000", "182517.289000", "182517.293000", "182537.208000", "182537.212000", "182537.215000", "182537.218000", "182537.222000", "182537.225000", "182537.228000", "182537.231000", "182537.235000", "182537.238000", "182537.241000", "182537.245000", "182537.248000", "182537.251000", "182537.255000", "182537.258000", "182537.261000", "182537.264000", "182537.268000", "182537.271000", "182537.274000", "182617.207000", "182617.211000", "182617.214000", "182617.217000", "182617.221000", "182617.224000", "182617.227000", "182617.231000", "182617.234000", "182617.238000", "182617.241000", "182617.245000", "182617.248000", "182617.251000", "182617.255000", "182617.258000", "182617.261000", "182617.265000", "182617.268000", "182617.271000", "182617.274000", "182617.278000", "182617.281000", "182617.284000", "182617.287000", "182617.291000", "182617.294000", "182617.297000", "182617.300000", "182617.304000", "182657.208000", "182657.212000", "182657.215000", "182657.218000", "182657.222000", "182657.226000", "182657.229000", "182657.232000", "182657.236000", "182657.239000", "182657.242000", "182657.246000", "182657.249000", "182657.252000", "182657.255000", "182657.259000", "182657.262000", "182657.265000", "182657.269000", "182657.272000", "182657.275000", "182657.278000", "182657.282000", "182657.285000", "182657.288000", "182657.291000", "182657.295000", "182737.208000", "182737.212000", "182737.215000", "182737.218000", "182737.222000", "182737.225000", "182737.228000", "182737.232000", "182737.235000", "182737.238000", "182737.241000", "182737.245000", "182737.248000", "182737.251000", "182737.255000", "182737.258000", "182737.261000", "182737.264000", "182737.268000", "182737.271000", "182737.274000", "182737.278000", "182737.281000", "182737.284000", "182737.288000", "182737.291000", "182737.294000", "182817.207000", "182817.211000", "182817.214000", "182817.218000", "182817.221000", "182817.224000", "182817.228000", "182817.231000", "182817.234000", "182817.238000", "182817.241000", "182817.244000", "182817.247000", "182817.251000", "182817.254000", "182817.258000", "182817.261000", "182817.264000", "182817.268000", "182817.271000", "182817.274000", "182817.278000", "182817.281000", "182817.284000", "182817.287000", "182817.291000", "182817.295000", "182857.208000", "182857.212000", "182857.215000", "182857.218000", "182857.222000", "182857.225000", "182857.229000", "182857.232000", "182857.235000", "182857.239000", "182857.242000", "182857.245000", "182857.248000", "182857.252000", "182857.255000", "182857.258000", "182857.261000", "182857.265000", "182857.268000", "182857.271000", "182857.275000", "182857.278000", "182857.281000", "182857.285000", "182857.288000", "182857.291000", "182857.294000", "182937.210000", "182937.214000", "182937.217000", "182937.221000", "182937.224000", "182937.228000", "182937.232000", "182937.235000", "182937.239000", "182937.242000", "182937.245000", "182937.248000", "182937.252000", "182937.255000", "182937.258000", "182937.262000", "182937.265000", "182937.268000", "182937.272000", "182937.275000", "182937.295000", "182937.298000", "182937.301000", "182937.305000", "182937.308000", "182937.311000", "183017.207000", "183017.211000", "183017.214000", "183017.218000", "183017.221000", "183017.224000", "183017.228000", "183017.231000", "183017.234000", "183017.238000", "183017.241000", "183017.244000", "183017.248000", "183017.251000", "183017.254000", "183017.258000", "183017.261000", "183017.264000", "183017.268000", "183017.271000", "183017.274000", "183017.278000", "183017.281000", "183017.284000", "183017.288000", "183017.291000", "183017.294000", "183057.207000", "183057.211000", "183057.214000", "183057.218000", "183057.221000", "183057.225000", "183057.228000", "183057.231000", "183057.235000", "183057.238000", "183057.241000", "183057.244000", "183057.248000", "183057.251000", "183057.255000", "183057.258000", "183057.261000", "183057.264000", "183057.268000", "183057.271000", "183057.275000", "183057.278000", "183057.281000", "183057.284000", "183057.288000", "183057.291000", "183057.294000", "183137.208000", "183137.212000", "183137.215000", "183137.219000", "183137.222000", "183137.225000", "183137.229000", "183137.232000", "183137.235000", "183137.238000", "183137.242000", "183137.245000", "183137.248000", "183137.252000", "183137.255000", "183137.258000", "183137.262000", "183137.265000", "183137.268000", "183137.272000", "183137.275000", "183137.278000", "183137.281000", "183137.285000", "183137.288000", "183137.291000", "183137.295000", "183217.208000", "183217.212000", "183217.216000", "183217.220000", "183217.223000", "183217.236000", "183217.239000", "183217.243000", "183217.246000", "183217.249000", "183217.252000", "183217.256000", "183217.259000", "183217.262000", "183217.266000", "183217.269000", "183217.272000", "183217.275000", "183217.279000", "183217.282000", "183217.286000", "183217.289000", "183217.292000", "183217.295000", "183217.299000", "183217.302000", "183217.305000", "183257.207000", "183257.211000", "183257.214000", "183257.217000", "183257.223000", "183257.226000", "183257.229000", "183257.233000", "183257.236000", "183257.239000", "183257.243000", "183257.246000", "183257.249000", "183257.252000", "183257.256000", "183257.259000", "183257.263000", "183257.266000", "183257.269000", "183257.273000", "183257.276000", "183257.279000", "183257.283000", "183257.286000", "183257.289000", "183257.292000", "183257.296000", "183337.208000", "183337.212000", "183337.215000", "183337.218000", "183337.222000", "183337.225000", "183337.228000", "183337.232000", "183337.235000", "183337.238000", "183337.242000", "183337.245000", "183337.248000", "183337.252000", "183337.255000", "183337.258000", "183337.261000", "183337.265000", "183337.268000", "183337.271000", "183337.275000", "183337.278000", "183337.281000", "183337.285000", "183337.288000", "183337.291000", "183337.294000", "183417.208000", "183417.212000", "183417.215000", "183417.219000", "183417.222000", "183417.225000", "183417.229000", "183417.232000", "183417.235000", "183417.239000", "183417.242000", "183417.267000", "183417.270000", "183417.273000", "183417.277000", "183417.280000", "183417.283000", "183417.287000", "183417.290000", "183417.293000", "183417.297000", "183417.300000", "183417.303000", "183417.306000", "183417.310000", "183417.313000", "183419.132000", "183419.136000"],
