{
  "AcquisitionMatrixPE": 104,
  "AcquisitionNumber": 1,
  "AcquisitionTime": "18:09:55.195000",
  "BandwidthPerPixelPhaseEncode": 17.17,
  "BaseResolution": 104,
  "BodyPartExamined": "BRAIN",
  "CoilCombinationMethod": "Sum of Squares",
  "ConsistencyInfo": "N4_VE11C_LATEST_20160120",
  "ConversionSoftware": "dcm2niix",
  "ConversionSoftwareVersion": "v1.0.20211006",
  "DerivedVendorReportedEchoSpacing": 0.000560011,
  "DeviceSerialNumber": "167006",
  "DwellTime": 2.1e-06,
  "EchoTime": 0.037,
  "EchoTrainLength": 104,
  "EffectiveEchoSpacing": 0.000560011,
  "FlipAngle": 52,
  "HeudiconvVersion": "0.11.3.post9+gc939bf8",
  "ImageComments": "Unaliased MB4/PE3/LB",
  "ImageOrientationPatientDICOM": [0.999873, -0.0142094, -0.0072798, 0.0106455, 0.933168, -0.359284],
  "ImageOrientationText": "Tra>Cor(-21.1)>Sag(-0.7)",
  "ImageType": [
    "ORIGINAL",
    "PRIMARY",
    "M",
    "MB",
    "ND",
    "MOSAIC"
],
  "ImagingFrequency": 123.259,
  "InPlanePhaseEncodingDirectionDICOM": "COL",
  "InstitutionAddress": "Chemin Queen-Mary 4565,Montreal,District,CA,H3W 1W5",
  "InstitutionName": "IUGM",
  "InstitutionalDepartmentName": "Department",
  "MRAcquisitionType": "2D",
  "MagneticFieldStrength": 3,
  "Manufacturer": "Siemens",
  "ManufacturersModelName": "Prisma_fit",
  "MatrixCoilMode": "SENSE",
  "Modality": "MR",
  "MultibandAccelerationFactor": 4,
  "PartialFourier": 1,
  "PatientPosition": "HFS",
  "PercentPhaseFOV": 100,
  "PercentSampling": 100,
  "PhaseEncodingDirection": "j",
  "PhaseEncodingSteps": 104,
  "PhaseResolution": 1,
  "PixelBandwidth": 2290,
  "ProcedureStepDescription": "games^mario",
  "ProtocolName": "func_task-mario_run-03",
  "PulseSequenceDetails": "%CustomerSeq%\\cmrr_mbep2d_bold",
  "ReceiveCoilActiveElements": "HC1-7;NC1,2",
  "ReceiveCoilName": "HeadNeck_64",
  "ReconMatrixPE": 104,
  "RepetitionTime": 1.49,
  "SAR": 0.0734165,
  "ScanOptions": "FS",
  "ScanningSequence": "EP",
  "SequenceName": "epfid2d1_104",
  "SequenceVariant": "SK\\SS",
  "SeriesDescription": "func_task-mario_run-03",
  "SeriesNumber": 16,
  "ShimSetting": [601, -7260, -8833, 388, -2, -338, 14, 38],
  "SliceThickness": 2,
  "SliceTiming": [0, 0.785, 0.1, 0.8825, 0.1975, 0.98, 0.295, 1.08, 0.3925, 1.1775, 0.49, 1.275, 0.59, 1.3725, 0.6875, 0, 0.785, 0.1, 0.8825, 0.1975, 0.98, 0.295, 1.08, 0.3925, 1.1775, 0.49, 1.275, 0.59, 1.3725, 0.6875, 0, 0.785, 0.1, 0.8825, 0.1975, 0.98, 0.295, 1.08, 0.3925, 1.1775, 0.49, 1.275, 0.59, 1.3725, 0.6875, 0, 0.785, 0.1, 0.8825, 0.1975, 0.98, 0.295, 1.08, 0.3925, 1.1775, 0.49, 1.275, 0.59, 1.3725, 0.6875],
  "SoftwareVersions": "syngo MR E11",
  "SpacingBetweenSlices": 2,
  "StationName": "MRC35049",
  "TaskName": "mario",
  "TotalReadoutTime": 0.0576811,
  "TxRefAmp": 296.655,
  "WipMemBlock": "08c7e892-cf28-443d-b2ae-e3f5cb5f66bf||Sequence: R017 ve11c/master r/75a17815+; Jun 28 2022 16:32:11 by eja",
  "dcmmeta_affine": [
    [-1.9997451305389404, 0.0212910957634449, -0.023796938359737396, 103.47882843017578],
    [0.028418706730008125, 1.866335153579712, -0.7183214426040649, -63.493988037109375],
    [-0.014559605158865452, 0.7185680270195007, 1.8663997650146484, -63.795509338378906],
    [0.0, 0.0, 0.0, 1.0]
],
  "dcmmeta_reorient_transform": [
    [0.0, -1.0, 0.0, 103.0],
    [1.0, 0.0, 0.0, 0.0],
    [0.0, 0.0, 1.0, 0.0],
    [0.0, 0.0, 0.0, 1.0]
],
  "dcmmeta_shape": [104, 104, 60, 476],
  "dcmmeta_slice_dim": 2,
  "dcmmeta_version": 0.6,
  "global": {
    "const": {
      "AcquisitionMatrix": [104, 0, 0, 104],
      "AngioFlag": "N",
      "BitsAllocated": 16,
      "BitsStored": 16,
      "BodyPartExamined": "BRAIN",
      "Columns": 832,
      "EchoNumbers": 1,
      "EchoTime": 37.0,
      "EchoTrainLength": 104,
      "FlipAngle": 52.0,
      "HighBit": 15,
      "ImageOrientationPatient": [0.99987254125292, -0.0142093534195, -0.0072798024583, 0.01064554771021, 0.93316754710645, -0.3592840120869],
      "ImagePositionPatient": [-841.32898362681, -797.74009107942, 277.07545405321],
      "ImageType": [
        "ORIGINAL",
        "PRIMARY",
        "M",
        "MB",
        "ND",
        "MOSAIC"
],
      "ImagedNucleus": "1H",
      "ImagingFrequency": 123.258781,
      "InPlanePhaseEncodingDirection": "COL",
      "MRAcquisitionType": "2D",
      "MagneticFieldStrength": 3.0,
      "Manufacturer": "SIEMENS",
      "ManufacturerModelName": "Prisma_fit",
      "Modality": "MR",
      "NumberOfAverages": 1.0,
      "NumberOfPhaseEncodingSteps": 104,
      "PercentPhaseFieldOfView": 100.0,
      "PercentSampling": 100.0,
      "PerformedProcedureStepStartTime": "174025.388000",
      "PhotometricInterpretation": "MONOCHROME2",
      "PixelBandwidth": 2290.0,
      "PixelRepresentation": 0,
      "PixelSpacing": [2.0, 2.0],
      "ProtocolName": "func_task-mario_run-03",
      "RepetitionTime": 1490.0,
      "Rows": 832,
      "SAR": 0.07341652525566,
      "SamplesPerPixel": 1,
      "ScanOptions": "FS",
      "ScanningSequence": "EP",
      "SequenceName": "epfid2d1_104",
      "SequenceVariant": [
        "SK",
        "SS"
],
      "SeriesDescription": "func_task-mario_run-03",
      "SeriesNumber": 16,
      "SeriesTime": "181044.328000",
      "SliceLocation": -37.960654248654,
      "SliceThickness": 2.0,
      "SmallestImagePixelValue": 0,
      "SoftwareVersions": "syngo MR E11",
      "SpacingBetweenSlices": 1.9999999883461,
      "SpecificCharacterSet": "ISO_IR 100",
      "StudyID": "1",
      "StudyTime": "174025.317000",
      "TransmitCoilName": "Body",
      "VariableFlipAngleFlag": "N",
      "WindowCenterWidthExplanation": "Algo1",
      "dBdt": 0.0},
    "slices": {}
  },
  "time": {
    "samples": {
      "AcquisitionNumber": [1, 2, 3, 4, 5, 6, 7, 8, 9, 10, 11, 12, 13, 14, 15, 16, 17, 18, 19, 20, 21, 22, 23, 24, 25, 26, 27, 28, 29, 30, 31, 32, 33, 34, 35, 36, 37, 38, 39, 40, 41, 42, 43, 44, 45, 46, 47, 48, 49, 50, 51, 52, 53, 54, 55, 56, 57, 58, 59, 60, 61, 62, 63, 64, 65, 66, 67, 68, 69, 70, 71, 72, 73, 74, 75, 76, 77, 78, 79, 80, 81, 82, 83, 84, 85, 86, 87, 88, 89, 90, 91, 92, 93, 94, 95, 96, 97, 98, 99, 100, 101, 102, 103, 104, 105, 106, 107, 108, 109, 110, 111, 112, 113, 114, 115, 116, 117, 118, 119, 120, 121, 122, 123, 124, 125, 126, 127, 128, 129, 130, 131, 132, 133, 134, 135, 136, 137, 138, 139, 140, 141, 142, 143, 144, 145, 146, 147, 148, 149, 150, 151, 152, 153, 154, 155, 156, 157, 158, 159, 160, 161, 162, 163, 164, 165, 166, 167, 168, 169, 170, 171, 172, 173, 174, 175, 176, 177, 178, 179, 180, 181, 182, 183, 184, 185, 186, 187, 188, 189, 190, 191, 192, 193, 194, 195, 196, 197, 198, 199, 200, 201, 202, 203, 204, 205, 206, 207, 208, 209, 210, 211, 212, 213, 214, 215, 216, 217, 218, 219, 220, 221, 222, 223, 224, 225, 226, 227, 228, 229, 230, 231, 232, 233, 234, 235, 236, 237, 238, 239, 240, 241, 242, 243, 244, 245, 246, 247, 248, 249, 250, 251, 252, 253, 254, 255, 256, 257, 258, 259, 260, 261, 262, 263, 264, 265, 266, 267, 268, 269, 270, 271, 272, 273, 274, 275, 276, 277, 278, 279, 280, 281, 282, 283, 284, 285, 286, 287, 288, 289, 290, 291, 292, 293, 294, 295, 296, 297, 298, 299, 300, 301, 302, 303, 304, 305, 306, 307, 308, 309, 310, 311, 312, 313, 314, 315, 316, 317, 318, 319, 320, 321, 322, 323, 324, 325, 326, 327, 328, 329, 330, 331, 332, 333, 334, 335, 336, 337, 338, 339, 340, 341, 342, 343, 344, 345, 346, 347, 348, 349, 350, 351, 352, 353, 354, 355, 356, 357, 358, 359, 360, 361, 362, 363, 364, 365, 366, 367, 368, 369, 370, 371, 372, 373, 374, 375, 376, 377, 378, 379, 380, 381, 382, 383, 384, 385, 386, 387, 388, 389, 390, 391, 392, 393, 394, 395, 396, 397, 398, 399, 400, 401, 402, 403, 404, 405, 406, 407, 408, 409, 410, 411, 412, 413, 414, 415, 416, 417, 418, 419, 420, 421, 422, 423, 424, 425, 426, 427, 428, 429, 430, 431, 432, 433, 434, 435, 436, 437, 438, 439, 440, 441, 442, 443, 444, 445, 446, 447, 448, 449, 450, 451, 452, 453, 454, 455, 456, 457, 458, 459, 460, 461, 462, 463, 464, 465, 466, 467, 468, 469, 470, 471, 472, 473, 474, 475, 476],
      "AcquisitionTime": ["180955.195000", "180956.685000", "180958.175000", "180959.665000", "181001.155000", "181002.645000", "181004.135000", "181005.625000", "181007.115000", "181008.605000", "181010.095000", "181011.585000", "181013.075000", "181014.565000", "181016.055000", "181017.545000", "181019.035000", "181020.525000", "181022.015000", "181023.505000", "181024.995000", "181026.485000", "181027.975000", "181029.465000", "181030.955000", "181032.445000", "181033.935000", "181035.425000", "181036.915000", "181038.405000", "181039.895000", "181041.385000", "181042.875000", "181044.365000", "181045.855000", "181047.345000", "181048.835000", "181050.325000", "181051.815000", "181053.305000", "181054.795000", "181056.285000", "181057.775000", "181059.265000", "181100.755000", "181102.245000", "181103.735000", "181105.225000", "181106.715000", "181108.205000", "181109.695000", "181111.185000", "181112.675000", "181114.165000", "181115.655000", "181117.145000", "181118.635000", "181120.125000", "181121.615000", "181123.105000", "181124.595000", "181126.085000", "181127.575000", "181129.065000", "181130.555000", "181132.045000", "181133.535000", "181135.025000", "181136.515000", "181138.005000", "181139.495000", "181140.985000", "181142.475000", "181143.965000", "181145.455000", "181146.945000", "181148.435000", "181149.925000", "181151.415000", "181152.905000", "181154.395000", "181155.885000", "181157.375000", "181158.865000", "181200.355000", "181201.845000", "181203.335000", "181204.825000", "181206.315000", "181207.805000", "181209.295000", "181210.785000", "181212.275000", "181213.765000", "181215.255000", "181216.745000", "181218.235000", "181219.725000", "181221.215000", "181222.705000", "181224.195000", "181225.685000", "181227.175000", "181228.665000", "181230.155000", "181231.645000", "181233.135000", "181234.625000", "181236.115000", "181237.605000", "181239.095000", "181240.585000", "181242.075000", "181243.565000", "181245.055000", "181246.545000", "181248.035000", "181249.525000", "181251.015000", "181252.505000", "181253.995000", "181255.485000", "181256.975000", "181258.465000", "181259.955000", "181301.445000", "181302.935000", "181304.425000", "181305.915000", "181307.405000", "181308.895000", "181310.385000", "181311.875000", "181313.365000", "181314.855000", "181316.345000", "181317.835000", "181319.325000", "181320.815000", "181322.305000", "181323.795000", "181325.285000", "181326.775000", "181328.265000", "181329.755000", "181331.245000", "181332.735000", "181334.225000", "181335.715000", "181337.205000", "181338.695000", "181340.185000", "181341.675000", "181343.165000", "181344.655000", "181346.145000", "181347.635000", "181349.125000", "181350.615000", "181352.105000", "181353.595000", "181355.085000", "181356.575000", "181358.065000", "181359.555000", "181401.045000", "181402.535000", "181404.025000", "181405.515000", "181407.005000", "181408.495000", "181409.985000", "181411.475000", "181412.965000", "181414.455000", "181415.945000", "181417.435000", "181418.925000", "181420.415000", "181421.905000", "181423.395000", "181424.885000", "181426.375000", "181427.865000", "181429.355000", "181430.845000", "181432.335000", "181433.825000", "181435.315000", "181436.805000", "181438.295000", "181439.785000", "181441.275000", "181442.765000", "181444.255000", "181445.745000", "181447.235000", "181448.725000", "181450.215000", "181451.705000", "181453.195000", "181454.685000", "181456.175000", "181457.665000", "181459.155000", "181500.645000", "181502.135000", "181503.625000", "181505.115000", "181506.605000", "181508.095000", "181509.585000", "181511.075000", "181512.565000", "181514.055000", "181515.545000", "181517.035000", "181518.525000", "181520.015000", "181521.505000", "181522.995000", "181524.485000", "181525.975000", "181527.465000", "181528.955000", "181530.445000", "181531.935000", "181533.425000", "181534.915000", "181536.405000", "181537.895000", "181539.385000", "181540.875000", "181542.365000", "181543.855000", "181545.345000", "181546.835000", "181548.325000", "181549.815000", "181551.305000", "181552.795000", "181554.285000", "181555.775000", "181557.265000", "181558.755000", "181600.245000", "181601.735000", "181603.225000", "181604.715000", "181606.205000", "181607.695000", "181609.185000", "181610.675000", "181612.165000", "181613.655000", "181615.145000", "181616.635000", "181618.125000", "181619.615000", "181621.105000", "181622.595000", "181624.085000", "181625.575000", "181627.065000", "181628.555000", "181630.045000", "181631.535000", "181633.025000", "181634.515000", "181636.005000", "181637.495000", "181638.985000", "181640.475000", "181641.965000", "181643.455000", "181644.945000", "181646.435000", "181647.925000", "181649.415000", "181650.905000", "181652.395000", "181653.885000", "181655.375000", "181656.865000", "181658.355000", "181659.845000", "181701.335000", "181702.825000", "181704.315000", "181705.805000", "181707.295000", "181708.785000", "181710.275000", "181711.765000", "181713.255000", "181714.745000", "181716.235000", "181717.725000", "181719.215000", "181720.705000", "181722.195000", "181723.685000", "181725.175000", "181726.665000", "181728.155000", "181729.645000", "181731.135000", "181732.625000", "181734.115000", "181735.605000", "181737.095000", "181738.585000", "181740.075000", "181741.565000", "181743.055000", "181744.545000", "181746.035000", "181747.525000", "181749.015000", "181750.505000", "181751.995000", "181753.485000", "181754.975000", "181756.465000", "181757.955000", "181759.445000", "181800.935000", "181802.425000", "181803.915000", "181805.405000", "181806.895000", "181808.385000", "181809.875000", "181811.365000", "181812.855000", "181814.345000", "181815.835000", "181817.325000", "181818.815000", "181820.305000", "181821.795000", "181823.285000", "181824.775000", "181826.265000", "181827.755000", "181829.245000", "181830.735000", "181832.225000", "181833.715000", "181835.205000", "181836.695000", "181838.185000", "181839.675000", "181841.165000", "181842.655000", "181844.145000", "181845.635000", "181847.125000", "181848.615000", "181850.105000", "181851.595000", "181853.085000", "181854.575000", "181856.065000", "181857.555000", "181859.045000", "181900.535000", "181902.025000", "181903.515000", "181905.005000", "181906.495000", "181907.985000", "181909.475000", "181910.965000", "181912.455000", "181913.945000", "181915.435000", "181916.925000", "181918.415000", "181919.905000", "181921.395000", "181922.885000", "181924.375000", "181925.865000", "181927.355000", "181928.845000", "181930.335000", "181931.825000", "181933.315000", "181934.805000", "181936.295000", "181937.785000", "181939.275000", "181940.765000", "181942.255000", "181943.745000", "181945.235000", "181946.725000", "181948.215000", "181949.705000", "181951.195000", "181952.685000", "181954.175000", "181955.665000", "181957.155000", "181958.645000", "182000.135000", "182001.625000", "182003.115000", "182004.605000", "182006.095000", "182007.585000", "182009.075000", "182010.565000", "182012.055000", "182013.545000", "182015.035000", "182016.525000", "182018.015000", "182019.505000", "182020.995000", "182022.485000", "182023.975000", "182025.465000", "182026.955000", "182028.445000", "182029.935000", "182031.425000", "182032.915000", "182034.405000", "182035.895000", "182037.385000", "182038.875000", "182040.365000", "182041.855000", "182043.345000", "182044.835000", "182046.325000", "182047.815000", "182049.305000", "182050.795000", "182052.285000", "182053.775000", "182055.265000", "182056.755000", "182058.245000", "182059.735000", "182101.225000", "182102.715000", "182104.205000", "182105.695000", "182107.185000", "182108.675000", "182110.165000", "182111.655000", "182113.145000", "182114.635000", "182116.125000", "182117.615000", "182119.105000", "182120.595000", "182122.085000", "182123.575000", "182125.065000", "182126.555000", "182128.045000", "182129.535000", "182131.025000", "182132.515000", "182134.005000", "182135.495000", "182136.985000", "182138.475000", "182139.965000", "182141.455000", "182142.945000"],
      "ContentTime": ["181044.331000", "181044.335000", "181104.289000", "181104.293000", "181104.296000", "181104.299000", "181104.303000", "181104.306000", "181104.309000", "181104.312000", "181104.316000", "181104.319000", "181104.322000", "181104.325000", "181104.329000", "181104.332000", "181104.335000", "181104.338000", "181104.342000", "181104.345000", "181104.348000", "181104.351000", "181124.289000", "181124.293000", "181124.296000", "181124.299000", "181124.303000", "181124.306000", "181124.309000", "181124.312000", "181124.316000", "181124.319000", "181124.322000", "181124.326000", "181124.329000", "181124.332000", "181124.335000", "181124.339000", "181124.342000", "181124.345000", "181124.348000", "181124.352000", "181144.289000", "181144.293000", "181144.296000", "181144.299000", "181144.302000", "181144.306000", "181144.309000", "181144.312000", "181144.315000", "181144.319000", "181144.322000", "181144.325000", "181144.329000", "181144.332000", "181144.335000", "181144.338000", "181144.342000", "181144.345000", "181144.348000", "181144.359000", "181204.289000", "181204.293000", "181204.296000", "181204.299000", "181204.303000", "181204.306000", "181204.309000", "181204.312000", "181204.316000", "181204.319000", "181204.322000", "181204.326000", "181204.329000", "181204.332000", "181204.335000", "181204.339000", "181204.342000", "181204.345000", "181204.348000", "181204.352000", "181244.289000", "181244.293000", "181244.296000", "181244.299000", "181244.303000", "181244.306000", "181244.309000", "181244.313000", "181244.316000", "181244.319000", "181244.322000", "181244.326000", "181244.329000", "181244.332000", "181244.336000", "181244.339000", "181244.342000", "181244.345000", "181244.349000", "181244.352000", "181244.355000", "181244.359000", "181244.362000", "181244.365000", "181244.368000", "181244.372000", "181244.375000", "181244.378000", "181244.390000", "181244.394000", "181244.397000", "181324.289000", "181324.293000", "181324.296000", "181324.299000", "181324.303000", "181324.306000", "181324.309000", "181324.313000", "181324.316000", "181324.319000", "181324.323000", "181324.326000", "181324.329000", "181324.332000", "181324.336000", "181324.339000", "181324.342000", "181324.346000", "181324.349000", "181324.352000", "181324.356000", "181324.359000", "181324.362000", "181324.366000", "181324.369000", "181324.372000", "181324.375000", "181404.289000", "181404.293000", "181404.296000", "181404.299000", "181404.303000", "181404.306000", "181404.309000", "181404.313000", "181404.316000", "181404.319000", "181404.322000", "181404.326000", "181404.329000", "181404.332000", "181404.335000", "181404.339000", "181404.342000", "181404.345000", "181404.349000", "181404.352000", "181404.355000", "181404.374000", "181404.378000", "181404.381000", "181404.384000", "181404.388000", "181404.391000", "181444.289000", "181444.293000", "181444.296000", "181444.299000", "181444.303000", "181444.306000", "181444.309000", "181444.313000", "181444.316000", "181444.319000", "181444.323000", "181444.326000", "181444.329000", "181444.333000", "181444.336000", "181444.339000", "181444.343000", "181444.346000", "181444.349000", "181444.353000", "181444.356000", "181444.359000", "181444.362000", "181444.366000", "181444.369000", "181444.372000", "181524.289000", "181524.293000", "181524.296000", "181524.299000", "181524.303000", "181524.306000", "181524.309000", "181524.313000", "181524.316000", "181524.319000", "181524.323000", "181524.326000", "181524.329000", "181524.333000", "181524.336000", "181524.339000", "181524.343000", "181524.346000", "181524.349000", "181524.353000", "181524.356000", "181524.359000", "181524.362000", "181524.366000", "181524.369000", "181524.372000", "181524.376000", "181604.289000", "181604.293000", "181604.297000", "181604.300000", "181604.303000", "181604.307000", "181604.310000", "181604.313000", "181604.317000", "181604.320000", "181604.323000", "181604.326000", "181604.330000", "181604.333000", "181604.336000", "181604.340000", "181604.343000", "181604.346000", "181604.349000", "181604.353000", "181604.356000", "181604.359000", "181604.363000", "181604.366000", "181604.440000", "181604.443000", "181604.446000", "181644.289000", "181644.293000", "181644.296000", "181644.299000", "181644.303000", "181644.306000", "181644.320000", "181644.324000", "181644.327000", "181644.330000", "181644.333000", "181644.337000", "181644.340000", "181644.343000", "181644.346000", "181644.350000", "181644.353000", "181644.356000", "181644.360000", "181644.363000", "181644.366000", "181644.370000", "181644.373000", "181644.376000", "181644.379000", "181644.383000", "181644.386000", "181724.289000", "181724.293000", "181724.296000", "181724.299000", "181724.303000", "181724.306000", "181724.310000", "181724.313000", "181724.316000", "181724.319000", "181724.323000", "181724.326000", "181724.329000", "181724.333000", "181724.336000", "181724.339000", "181724.343000", "181724.346000", "181724.349000", "181724.353000", "181724.356000", "181724.359000", "181724.363000", "181724.366000", "181724.369000", "181724.372000", "181724.376000", "181804.289000", "181804.293000", "181804.296000", "181804.299000", "181804.303000", "181804.306000", "181804.309000", "181804.313000", "181804.316000", "181804.319000", "181804.323000", "181804.326000", "181804.329000", "181804.333000", "181804.336000", "181804.339000", "181804.343000", "181804.346000", "181804.349000", "181804.352000", "181804.356000", "181804.359000", "181804.362000", "181804.366000", "181804.369000", "181804.372000", "181804.375000", "181844.289000", "181844.293000", "181844.297000", "181844.300000", "181844.303000", "181844.307000", "181844.310000", "181844.313000", "181844.317000", "181844.320000", "181844.323000", "181844.327000", "181844.330000", "181844.333000", "181844.337000", "181844.340000", "181844.343000", "181844.347000", "181844.350000", "181844.353000", "181844.357000", "181844.360000", "181844.363000", "181844.366000", "181844.370000", "181844.373000", "181924.289000", "181924.293000", "181924.296000", "181924.299000", "181924.303000", "181924.306000", "181924.309000", "181924.313000", "181924.316000", "181924.319000", "181924.323000", "181924.326000", "181924.329000", "181924.333000", "181924.336000", "181924.339000", "181924.343000", "181924.346000", "181924.349000", "181924.353000", "181924.356000", "181924.359000", "181924.364000", "181924.368000", "181924.371000", "181924.374000", "181924.377000", "181944.289000", "181944.293000", "181944.296000", "181944.299000", "181944.303000", "181944.306000", "181944.309000", "181944.312000", "181944.316000", "181944.319000", "181944.322000", "181944.325000", "181944.329000", "181944.332000", "182024.289000", "182024.293000", "182024.296000", "182024.299000", "182024.303000", "182024.306000", "182024.309000", "182024.313000", "182024.316000", "182024.319000", "182024.322000", "182024.326000", "182024.329000", "182024.332000", "182024.336000", "182024.339000", "182024.342000", "182024.345000", "182024.349000", "182024.352000", "182024.355000", "182024.359000", "182024.362000", "182024.365000", "182024.368000", "182024.372000", "182024.375000", "182104.289000", "182104.293000", "182104.296000", "182104.300000", "182104.303000", "182104.306000", "182104.310000", "182104.313000", "182104.316000", "182104.319000", "182104.323000", "182104.326000", "182104.329000", "182104.333000", "182104.336000", "182104.340000", "182104.344000", "182104.347000", "182104.350000", "182104.353000", "182104.369000", "182104.373000", "182104.376000", "182104.379000", "182104.383000", "182104.386000", "182144.289000", "182144.293000", "182144.296000", "182144.300000", "182144.303000", "182144.306000", "182144.309000", "182144.313000", "182144.316000", "182144.319000", "182144.323000", "182144.326000", "182144.329000", "182144.333000", "182144.336000", "182144.339000", "182144.342000", "182144.346000", "182144.349000", "182144.352000", "182144.355000", "182144.359000", "182144.362000", "182144.365000", "182144.368000", "182144.372000", "182144.375000", "182145.395000"],
