{
  "AcquisitionMatrixPE": 104,
  "AcquisitionNumber": 1,
  "AcquisitionTime": "17:44:17.682500",
  "BandwidthPerPixelPhaseEncode": 17.17,
  "BaseResolution": 104,
  "BodyPartExamined": "BRAIN",
  "CoilCombinationMethod": "Sum of Squares",
  "ConsistencyInfo": "N4_VE11C_LATEST_20160120",
  "ConversionSoftware": "dcm2niix",
  "ConversionSoftwareVersion": "v1.0.20211006",
  "DerivedVendorReportedEchoSpacing": 0.000560011,
  "DeviceSerialNumber": "167006",
  "DwellTime": 2.1e-06,
  "EchoTime": 0.037,
  "EchoTime1": 0.037,
  "EchoTime2": 0.001,
  "EchoTrainLength": 104,
  "EffectiveEchoSpacing": 0.000560011,
  "FlipAngle": 52,
  "HeudiconvVersion": "0.11.3.post9+gc939bf8",
  "ImageComments": "Unaliased MB4/PE3/LB",
  "ImageOrientationPatientDICOM": [0.999873, -0.0142094, -0.0072798, 0.0106455, 0.933168, -0.359284],
  "ImageOrientationText": "Tra>Cor(-21.1)>Sag(-0.7)",
  "ImageType": [
    "ORIGINAL",
    "PRIMARY",
    "P",
    "MB",
    "ND",
    "MOSAIC",
    "PHASE"
],
  "ImagingFrequency": 123.259,
  "InPlanePhaseEncodingDirectionDICOM": "COL",
  "InstitutionAddress": "Chemin Queen-Mary 4565,Montreal,District,CA,H3W 1W5",
  "InstitutionName": "IUGM",
  "InstitutionalDepartmentName": "Department",
  "MRAcquisitionType": "2D",
  "MagneticFieldStrength": 3,
  "Manufacturer": "Siemens",
  "ManufacturersModelName": "Prisma_fit",
  "MatrixCoilMode": "SENSE",
  "Modality": "MR",
  "MultibandAccelerationFactor": 4,
  "PartialFourier": 1,
  "PatientPosition": "HFS",
  "PercentPhaseFOV": 100,
  "PercentSampling": 100,
  "PhaseEncodingDirection": "j",
  "PhaseEncodingSteps": 104,
  "PhaseResolution": 1,
  "PixelBandwidth": 2290,
  "ProcedureStepDescription": "games^mario",
  "ProtocolName": "func_task-mario_run-01",
  "PulseSequenceDetails": "%CustomerSeq%\\cmrr_mbep2d_bold",
  "ReceiveCoilActiveElements": "HC1-7;NC1,2",
  "ReceiveCoilName": "HeadNeck_64",
  "ReconMatrixPE": 104,
  "RepetitionTime": 1.49,
  "SAR": 0.0734165,
  "ScanOptions": "FS",
  "ScanningSequence": "EP",
  "SequenceName": "epfid2d1_104",
  "SequenceVariant": "SK\\SS",
  "SeriesDescription": "func_task-mario_run-01",
  "SeriesNumber": 11,
  "ShimSetting": [601, -7260, -8833, 388, -2, -338, 14, 38],
  "SliceThickness": 2,
  "SliceTiming": [0, 0.7825, 0.0975, 0.8825, 0.195, 0.98, 0.295, 1.0775, 0.3925, 1.175, 0.49, 1.2725, 0.5875, 1.3725, 0.685, 0, 0.7825, 0.0975, 0.8825, 0.195, 0.98, 0.295, 1.0775, 0.3925, 1.175, 0.49, 1.2725, 0.5875, 1.3725, 0.685, 0, 0.7825, 0.0975, 0.8825, 0.195, 0.98, 0.295, 1.0775, 0.3925, 1.175, 0.49, 1.2725, 0.5875, 1.3725, 0.685, 0, 0.7825, 0.0975, 0.8825, 0.195, 0.98, 0.295, 1.0775, 0.3925, 1.175, 0.49, 1.2725, 0.5875, 1.3725, 0.685],
  "SoftwareVersions": "syngo MR E11",
  "SpacingBetweenSlices": 2,
  "StationName": "MRC35049",
  "TaskName": "mario",
  "TotalReadoutTime": 0.0576811,
  "TxRefAmp": 296.655,
  "WipMemBlock": "242edc24-e84b-4e88-95cf-29da6e74da21||Sequence: R017 ve11c/master r/75a17815+; Jun 28 2022 16:32:11 by eja",
  "dcmmeta_affine": [
    [-1.9997451305389404, 0.0212910957634449, -0.023796938359737396, 103.47882843017578],
    [0.028418706730008125, 1.866335153579712, -0.7183214426040649, -63.493988037109375],
    [-0.014559605158865452, 0.7185680270195007, 1.8663997650146484, -63.795509338378906],
    [0.0, 0.0, 0.0, 1.0]
],
  "dcmmeta_reorient_transform": [
    [0.0, -1.0, 0.0, 103.0],
    [1.0, 0.0, 0.0, 0.0],
    [0.0, 0.0, 1.0, 0.0],
    [0.0, 0.0, 0.0, 1.0]
],
  "dcmmeta_shape": [104, 104, 60, 455],
  "dcmmeta_slice_dim": 2,
  "dcmmeta_version": 0.6,
  "global": {
    "const": {
      "AcquisitionMatrix": [104, 0, 0, 104],
      "AngioFlag": "N",
      "BitsAllocated": 16,
      "BitsStored": 16,
      "BodyPartExamined": "BRAIN",
      "Columns": 832,
      "EchoNumbers": 1,
      "EchoTime": 37.0,
      "EchoTrainLength": 104,
      "FlipAngle": 52.0,
      "HighBit": 15,
      "ImageOrientationPatient": [0.99987254125292, -0.0142093534195, -0.0072798024583, 0.01064554771021, 0.93316754710645, -0.3592840120869],
      "ImagePositionPatient": [-841.32898362681, -797.74009107942, 277.07545405321],
      "ImageType": [
        "ORIGINAL",
        "PRIMARY",
        "P",
        "MB",
        "ND",
        "MOSAIC"
],
      "ImagedNucleus": "1H",
      "ImagingFrequency": 123.258766,
      "InPlanePhaseEncodingDirection": "COL",
      "LargestImagePixelValue": 4095,
      "MRAcquisitionType": "2D",
      "MagneticFieldStrength": 3.0,
      "Manufacturer": "SIEMENS",
      "ManufacturerModelName": "Prisma_fit",
      "Modality": "MR",
      "NumberOfAverages": 1.0,
      "NumberOfPhaseEncodingSteps": 104,
      "PercentPhaseFieldOfView": 100.0,
      "PercentSampling": 100.0,
      "PerformedProcedureStepStartTime": "174025.388000",
      "PhotometricInterpretation": "MONOCHROME2",
      "PixelBandwidth": 2290.0,
      "PixelRepresentation": 0,
      "PixelSpacing": [2.0, 2.0],
      "ProtocolName": "func_task-mario_run-01",
      "RepetitionTime": 1490.0,
      "RescaleIntercept": -4096.0,
      "RescaleSlope": 2.0,
      "RescaleType": "US",
      "Rows": 832,
      "SAR": 0.07341652525566,
      "SamplesPerPixel": 1,
      "ScanOptions": "FS",
      "ScanningSequence": "EP",
      "SequenceName": "epfid2d1_104",
      "SequenceVariant": [
        "SK",
        "SS"
],
      "SeriesDescription": "func_task-mario_run-01",
      "SeriesNumber": 11,
      "SeriesTime": "174537.403000",
      "SliceLocation": -37.960654248654,
      "SliceThickness": 2.0,
      "SmallestImagePixelValue": 0,
      "SoftwareVersions": "syngo MR E11",
      "SpacingBetweenSlices": 1.9999999883461,
      "SpecificCharacterSet": "ISO_IR 100",
      "StudyID": "1",
      "StudyTime": "174025.317000",
      "TransmitCoilName": "Body",
      "VariableFlipAngleFlag": "N",
      "WindowCenterWidthExplanation": "Algo1",
      "dBdt": 0.0},
    "slices": {}
  },
  "time": {
    "samples": {
      "AcquisitionNumber": [1, 2, 3, 4, 5, 6, 7, 8, 9, 10, 11, 12, 13, 14, 15, 16, 17, 18, 19, 20, 21, 22, 23, 24, 25, 26, 27, 28, 29, 30, 31, 32, 33, 34, 35, 36, 37, 38, 39, 40, 41, 42, 43, 44, 45, 46, 47, 48, 49, 50, 51, 52, 53, 54, 55, 56, 57, 58, 59, 60, 61, 62, 63, 64, 65, 66, 67, 68, 69, 70, 71, 72, 73, 74, 75, 76, 77, 78, 79, 80, 81, 82, 83, 84, 85, 86, 87, 88, 89, 90, 91, 92, 93, 94, 95, 96, 97, 98, 99, 100, 101, 102, 103, 104, 105, 106, 107, 108, 109, 110, 111, 112, 113, 114, 115, 116, 117, 118, 119, 120, 121, 122, 123, 124, 125, 126, 127, 128, 129, 130, 131, 132, 133, 134, 135, 136, 137, 138, 139, 140, 141, 142, 143, 144, 145, 146, 147, 148, 149, 150, 151, 152, 153, 154, 155, 156, 157, 158, 159, 160, 161, 162, 163, 164, 165, 166, 167, 168, 169, 170, 171, 172, 173, 174, 175, 176, 177, 178, 179, 180, 181, 182, 183, 184, 185, 186, 187, 188, 189, 190, 191, 192, 193, 194, 195, 196, 197, 198, 199, 200, 201, 202, 203, 204, 205, 206, 207, 208, 209, 210, 211, 212, 213, 214, 215, 216, 217, 218, 219, 220, 221, 222, 223, 224, 225, 226, 227, 228, 229, 230, 231, 232, 233, 234, 235, 236, 237, 238, 239, 240, 241, 242, 243, 244, 245, 246, 247, 248, 249, 250, 251, 252, 253, 254, 255, 256, 257, 258, 259, 260, 261, 262, 263, 264, 265, 266, 267, 268, 269, 270, 271, 272, 273, 274, 275, 276, 277, 278, 279, 280, 281, 282, 283, 284, 285, 286, 287, 288, 289, 290, 291, 292, 293, 294, 295, 296, 297, 298, 299, 300, 301, 302, 303, 304, 305, 306, 307, 308, 309, 310, 311, 312, 313, 314, 315, 316, 317, 318, 319, 320, 321, 322, 323, 324, 325, 326, 327, 328, 329, 330, 331, 332, 333, 334, 335, 336, 337, 338, 339, 340, 341, 342, 343, 344, 345, 346, 347, 348, 349, 350, 351, 352, 353, 354, 355, 356, 357, 358, 359, 360, 361, 362, 363, 364, 365, 366, 367, 368, 369, 370, 371, 372, 373, 374, 375, 376, 377, 378, 379, 380, 381, 382, 383, 384, 385, 386, 387, 388, 389, 390, 391, 392, 393, 394, 395, 396, 397, 398, 399, 400, 401, 402, 403, 404, 405, 406, 407, 408, 409, 410, 411, 412, 413, 414, 415, 416, 417, 418, 419, 420, 421, 422, 423, 424, 425, 426, 427, 428, 429, 430, 431, 432, 433, 434, 435, 436, 437, 438, 439, 440, 441, 442, 443, 444, 445, 446, 447, 448, 449, 450, 451, 452, 453, 454, 455],
      "AcquisitionTime": ["174417.682500", "174419.172500", "174420.662500", "174422.152500", "174423.642500", "174425.132500", "174426.622500", "174428.112500", "174429.602500", "174431.092500", "174432.582500", "174434.072500", "174435.562500", "174437.052500", "174438.542500", "174440.032500", "174441.522500", "174443.012500", "174444.502500", "174445.992500", "174447.482500", "174448.972500", "174450.462500", "174451.952500", "174453.442500", "174454.932500", "174456.422500", "174457.912500", "174459.402500", "174500.892500", "174502.382500", "174503.872500", "174505.362500", "174506.852500", "174508.342500", "174509.832500", "174511.322500", "174512.812500", "174514.302500", "174515.792500", "174517.282500", "174518.772500", "174520.262500", "174521.752500", "174523.242500", "174524.732500", "174526.222500", "174527.712500", "174529.202500", "174530.692500", "174532.182500", "174533.672500", "174535.162500", "174536.652500", "174538.142500", "174539.632500", "174541.122500", "174542.612500", "174544.102500", "174545.592500", "174547.082500", "174548.572500", "174550.062500", "174551.552500", "174553.042500", "174554.532500", "174556.022500", "174557.512500", "174559.002500", "174600.492500", "174601.982500", "174603.472500", "174604.962500", "174606.452500", "174607.942500", "174609.432500", "174610.922500", "174612.412500", "174613.902500", "174615.392500", "174616.882500", "174618.372500", "174619.862500", "174621.352500", "174622.842500", "174624.332500", "174625.822500", "174627.312500", "174628.802500", "174630.292500", "174631.782500", "174633.272500", "174634.762500", "174636.252500", "174637.742500", "174639.232500", "174640.722500", "174642.212500", "174643.702500", "174645.192500", "174646.682500", "174648.172500", "174649.662500", "174651.152500", "174652.642500", "174654.132500", "174655.622500", "174657.112500", "174658.602500", "174700.092500", "174701.582500", "174703.072500", "174704.562500", "174706.052500", "174707.542500", "174709.032500", "174710.522500", "174712.012500", "174713.502500", "174714.992500", "174716.482500", "174717.972500", "174719.462500", "174720.952500", "174722.442500", "174723.932500", "174725.422500", "174726.912500", "174728.402500", "174729.892500", "174731.382500", "174732.872500", "174734.362500", "174735.852500", "174737.342500", "174738.832500", "174740.322500", "174741.812500", "174743.302500", "174744.792500", "174746.282500", "174747.772500", "174749.262500", "174750.752500", "174752.242500", "174753.732500", "174755.222500", "174756.712500", "174758.202500", "174759.692500", "174801.182500", "174802.672500", "174804.162500", "174805.652500", "174807.142500", "174808.632500", "174810.122500", "174811.612500", "174813.102500", "174814.592500", "174816.082500", "174817.572500", "174819.062500", "174820.552500", "174822.042500", "174823.532500", "174825.022500", "174826.512500", "174828.002500", "174829.492500", "174830.982500", "174832.472500", "174833.962500", "174835.452500", "174836.942500", "174838.432500", "174839.922500", "174841.412500", "174842.902500", "174844.392500", "174845.882500", "174847.372500", "174848.862500", "174850.352500", "174851.842500", "174853.332500", "174854.822500", "174856.312500", "174857.802500", "174859.292500", "174900.782500", "174902.272500", "174903.762500", "174905.252500", "174906.742500", "174908.232500", "174909.722500", "174911.212500", "174912.702500", "174914.192500", "174915.682500", "174917.172500", "174918.662500", "174920.152500", "174921.642500", "174923.132500", "174924.622500", "174926.112500", "174927.602500", "174929.092500", "174930.582500", "174932.072500", "174933.562500", "174935.052500", "174936.542500", "174938.032500", "174939.522500", "174941.012500", "174942.502500", "174943.992500", "174945.482500", "174946.972500", "174948.462500", "174949.952500", "174951.442500", "174952.932500", "174954.422500", "174955.912500", "174957.402500", "174958.892500", "175000.382500", "175001.872500", "175003.362500", "175004.852500", "175006.342500", "175007.832500", "175009.322500", "175010.812500", "175012.302500", "175013.792500", "175015.282500", "175016.772500", "175018.262500", "175019.752500", "175021.242500", "175022.732500", "175024.222500", "175025.712500", "175027.202500", "175028.692500", "175030.182500", "175031.672500", "175033.162500", "175034.652500", "175036.142500", "175037.632500", "175039.122500", "175040.612500", "175042.102500", "175043.592500", "175045.082500", "175046.572500", "175048.062500", "175049.552500", "175051.042500", "175052.532500", "175054.022500", "175055.512500", "175057.002500", "175058.492500", "175059.982500", "175101.472500", "175102.962500", "175104.452500", "175105.942500", "175107.432500", "175108.922500", "175110.412500", "175111.902500", "175113.392500", "175114.882500", "175116.372500", "175117.862500", "175119.352500", "175120.842500", "175122.332500", "175123.822500", "175125.312500", "175126.802500", "175128.292500", "175129.782500", "175131.272500", "175132.762500", "175134.252500", "175135.742500", "175137.232500", "175138.722500", "175140.212500", "175141.702500", "175143.192500", "175144.682500", "175146.172500", "175147.662500", "175149.152500", "175150.642500", "175152.132500", "175153.622500", "175155.112500", "175156.602500", "175158.092500", "175159.582500", "175201.072500", "175202.562500", "175204.052500", "175205.542500", "175207.032500", "175208.522500", "175210.012500", "175211.502500", "175212.992500", "175214.482500", "175215.972500", "175217.462500", "175218.952500", "175220.442500", "175221.932500", "175223.422500", "175224.912500", "175226.402500", "175227.892500", "175229.382500", "175230.872500", "175232.362500", "175233.852500", "175235.342500", "175236.832500", "175238.322500", "175239.812500", "175241.302500", "175242.792500", "175244.282500", "175245.772500", "175247.262500", "175248.752500", "175250.242500", "175251.732500", "175253.222500", "175254.712500", "175256.202500", "175257.692500", "175259.182500", "175300.672500", "175302.162500", "175303.652500", "175305.142500", "175306.632500", "175308.122500", "175309.612500", "175311.102500", "175312.592500", "175314.082500", "175315.572500", "175317.062500", "175318.552500", "175320.042500", "175321.532500", "175323.022500", "175324.512500", "175326.002500", "175327.492500", "175328.982500", "175330.472500", "175331.962500", "175333.452500", "175334.942500", "175336.432500", "175337.922500", "175339.412500", "175340.902500", "175342.392500", "175343.882500", "175345.372500", "175346.862500", "175348.352500", "175349.842500", "175351.332500", "175352.822500", "175354.312500", "175355.802500", "175357.292500", "175358.782500", "175400.272500", "175401.762500", "175403.252500", "175404.742500", "175406.232500", "175407.722500", "175409.212500", "175410.702500", "175412.192500", "175413.682500", "175415.172500", "175416.662500", "175418.152500", "175419.642500", "175421.132500", "175422.622500", "175424.112500", "175425.602500", "175427.092500", "175428.582500", "175430.072500", "175431.562500", "175433.052500", "175434.542500", "175436.032500", "175437.522500", "175439.012500", "175440.502500", "175441.992500", "175443.482500", "175444.972500", "175446.462500", "175447.952500", "175449.442500", "175450.932500", "175452.422500", "175453.912500", "175455.402500", "175456.892500", "175458.382500", "175459.872500", "175501.362500", "175502.852500", "175504.342500", "175505.832500", "175507.322500", "175508.812500", "175510.302500", "175511.792500", "175513.282500", "175514.772500", "175516.262500", "175517.752500", "175519.242500", "175520.732500", "175522.222500", "175523.712500", "175525.202500", "175526.692500", "175528.182500", "175529.672500", "175531.162500", "175532.652500", "175534.142500"],
      "ContentTime": ["174537.405000", "174537.408000", "174537.411000", "174537.413000", "174537.416000", "174537.418000", "174537.421000", "174537.423000", "174537.425000", "174537.428000", "174537.430000", "174537.433000", "174537.435000", "174537.438000", "174537.447000", "174537.450000", "174537.452000", "174537.455000", "174537.457000", "174537.459000", "174537.462000", "174537.464000", "174537.467000", "174537.469000", "174537.472000", "174537.474000", "174537.477000", "174537.479000", "174537.482000", "174537.484000", "174537.486000", "174557.323000", "174557.325000", "174557.328000", "174557.330000", "174557.333000", "174557.335000", "174557.338000", "174557.340000", "174557.343000", "174557.345000", "174557.348000", "174557.350000", "174557.352000", "174557.355000", "174557.357000", "174557.360000", "174557.362000", "174557.365000", "174557.367000", "174557.370000", "174557.372000", "174617.339000", "174617.341000", "174617.344000", "174617.346000", "174617.349000", "174617.351000", "174617.354000", "174617.356000", "174617.359000", "174617.361000", "174617.364000", "174617.366000", "174617.368000", "174617.371000", "174617.373000", "174617.376000", "174617.378000", "174617.381000", "174617.383000", "174617.386000", "174637.326000", "174637.329000", "174637.331000", "174637.334000", "174637.336000", "174637.339000", "174637.341000", "174637.344000", "174637.346000", "174637.348000", "174637.351000", "174637.353000", "174637.356000", "174637.358000", "174637.361000", "174637.364000", "174637.366000", "174637.369000", "174637.372000", "174637.374000", "174717.344000", "174717.347000", "174717.349000", "174717.351000", "174717.354000", "174717.356000", "174717.359000", "174717.361000", "174717.364000", "174717.366000", "174717.369000", "174717.372000", "174717.374000", "174717.377000", "174717.379000", "174717.381000", "174717.384000", "174717.386000", "174717.389000", "174717.391000", "174717.394000", "174717.396000", "174717.399000", "174717.401000", "174717.404000", "174717.406000", "174717.409000", "174717.411000", "174757.353000", "174757.356000", "174757.358000", "174757.361000", "174757.363000", "174757.366000", "174757.368000", "174757.371000", "174757.373000", "174757.375000", "174757.378000", "174757.380000", "174757.383000", "174757.386000", "174757.388000", "174757.390000", "174757.393000", "174757.395000", "174757.398000", "174757.400000", "174757.403000", "174757.405000", "174757.408000", "174757.410000", "174757.413000", "174757.415000", "174757.418000", "174837.349000", "174837.352000", "174837.354000", "174837.357000", "174837.359000", "174837.362000", "174837.364000", "174837.366000", "174837.369000", "174837.371000", "174837.374000", "174837.376000", "174837.379000", "174837.381000", "174837.392000", "174837.394000", "174837.396000", "174837.399000", "174837.401000", "174837.404000", "174837.406000", "174837.409000", "174837.411000", "174837.414000", "174837.416000", "174837.419000", "174837.421000", "174917.328000", "174917.330000", "174917.333000", "174917.335000", "174917.338000", "174917.340000", "174917.343000", "174917.345000", "174917.348000", "174917.350000", "174917.353000", "174917.355000", "174917.358000", "174917.360000", "174917.363000", "174917.366000", "174917.368000", "174917.371000", "174917.373000", "174917.376000", "174917.378000", "174917.381000", "174917.383000", "174917.386000", "174917.388000", "174917.391000", "174937.281000", "174937.284000", "174937.286000", "174937.289000", "174937.291000", "174937.294000", "174937.296000", "174937.299000", "174937.301000", "174937.304000", "174937.306000", "174937.309000", "174937.311000", "174937.314000", "175017.341000", "175017.343000", "175017.346000", "175017.348000", "175017.351000", "175017.353000", "175017.356000", "175017.358000", "175017.361000", "175017.363000", "175017.366000", "175017.368000", "175017.371000", "175017.373000", "175017.376000", "175017.378000", "175017.381000", "175017.383000", "175017.386000", "175017.388000", "175017.390000", "175017.393000", "175017.395000", "175017.398000", "175017.400000", "175017.403000", "175017.405000", "175057.359000", "175057.362000", "175057.365000", "175057.367000", "175057.370000", "175057.372000", "175057.375000", "175057.377000", "175057.380000", "175057.382000", "175057.384000", "175057.387000", "175057.389000", "175057.392000", "175057.394000", "175057.397000", "175057.399000", "175057.402000", "175057.404000", "175057.407000", "175057.409000", "175057.412000", "175057.414000", "175057.417000", "175057.419000", "175057.421000", "175137.350000", "175137.353000", "175137.356000", "175137.358000", "175137.361000", "175137.363000", "175137.365000", "175137.368000", "175137.370000", "175137.373000", "175137.375000", "175137.378000", "175137.380000", "175137.383000", "175137.385000", "175137.388000", "175137.390000", "175137.393000", "175137.395000", "175137.398000", "175137.400000", "175137.403000", "175137.406000", "175137.408000", "175137.411000", "175137.413000", "175137.416000", "175217.336000", "175217.339000", "175217.341000", "175217.344000", "175217.346000", "175217.349000", "175217.351000", "175217.354000", "175217.356000", "175217.359000", "175217.361000", "175217.364000", "175217.366000", "175217.369000", "175217.371000", "175217.374000", "175217.376000", "175217.379000", "175217.381000", "175217.384000", "175217.386000", "175217.389000", "175217.391000", "175217.394000", "175217.396000", "175217.399000", "175217.401000", "175257.338000", "175257.341000", "175257.344000", "175257.346000", "175257.349000", "175257.351000", "175257.353000", "175257.356000", "175257.358000", "175257.361000", "175257.363000", "175257.366000", "175257.368000", "175257.371000", "175257.373000", "175257.376000", "175257.378000", "175257.381000", "175257.383000", "175257.386000", "175257.388000", "175257.391000", "175257.393000", "175257.396000", "175257.398000", "175257.401000", "175257.403000", "175337.341000", "175337.344000", "175337.346000", "175337.348000", "175337.351000", "175337.353000", "175337.356000", "175337.358000", "175337.361000", "175337.363000", "175337.366000", "175337.368000", "175337.371000", "175337.374000", "175337.376000", "175337.378000", "175337.381000", "175337.383000", "175337.386000", "175337.388000", "175337.391000", "175337.393000", "175337.396000", "175337.398000", "175337.401000", "175337.403000", "175337.406000", "175417.350000", "175417.352000", "175417.355000", "175417.357000", "175417.360000", "175417.362000", "175417.365000", "175417.367000", "175417.370000", "175417.372000", "175417.375000", "175417.377000", "175417.380000", "175417.382000", "175417.385000", "175417.387000", "175417.390000", "175417.392000", "175417.395000", "175417.397000", "175417.400000", "175417.402000", "175417.405000", "175417.407000", "175417.410000", "175417.412000", "175417.415000", "175457.346000", "175457.349000", "175457.352000", "175457.354000", "175457.356000", "175457.359000", "175457.361000", "175457.364000", "175457.366000", "175457.369000", "175457.371000", "175457.374000", "175457.376000", "175457.379000", "175457.381000", "175457.384000", "175457.386000", "175457.389000", "175457.391000", "175457.394000", "175457.396000", "175457.399000", "175457.401000", "175457.404000", "175457.406000", "175457.409000", "175457.411000", "175536.476000", "175536.479000", "175536.481000", "175536.484000", "175536.486000", "175536.489000", "175536.491000", "175536.494000", "175536.496000", "175536.499000", "175536.501000", "175536.504000", "175536.506000", "175536.509000", "175536.511000", "175536.514000", "175536.516000", "175536.519000", "175536.521000", "175536.524000", "175536.526000", "175536.529000", "175536.531000", "175536.534000", "175536.536000", "175536.539000"],
