{
  "AcquisitionMatrixPE": 104,
  "AcquisitionNumber": 1,
  "AcquisitionTime": "18:09:55.195000",
  "BandwidthPerPixelPhaseEncode": 17.17,
  "BaseResolution": 104,
  "BodyPartExamined": "BRAIN",
  "CoilCombinationMethod": "Sum of Squares",
  "ConsistencyInfo": "N4_VE11C_LATEST_20160120",
  "ConversionSoftware": "dcm2niix",
  "ConversionSoftwareVersion": "v1.0.20211006",
  "DerivedVendorReportedEchoSpacing": 0.000560011,
  "DeviceSerialNumber": "167006",
  "DwellTime": 2.1e-06,
  "EchoTime": 0.037,
  "EchoTime1": 0.037,
  "EchoTime2": 0.001,
  "EchoTrainLength": 104,
  "EffectiveEchoSpacing": 0.000560011,
  "FlipAngle": 52,
  "HeudiconvVersion": "0.11.3.post9+gc939bf8",
  "ImageComments": "Unaliased MB4/PE3/LB",
  "ImageOrientationPatientDICOM": [0.999873, -0.0142094, -0.0072798, 0.0106455, 0.933168, -0.359284],
  "ImageOrientationText": "Tra>Cor(-21.1)>Sag(-0.7)",
  "ImageType": [
    "ORIGINAL",
    "PRIMARY",
    "P",
    "MB",
    "ND",
    "MOSAIC",
    "PHASE"
],
  "ImagingFrequency": 123.259,
  "InPlanePhaseEncodingDirectionDICOM": "COL",
  "InstitutionAddress": "Chemin Queen-Mary 4565,Montreal,District,CA,H3W 1W5",
  "InstitutionName": "IUGM",
  "InstitutionalDepartmentName": "Department",
  "MRAcquisitionType": "2D",
  "MagneticFieldStrength": 3,
  "Manufacturer": "Siemens",
  "ManufacturersModelName": "Prisma_fit",
  "MatrixCoilMode": "SENSE",
  "Modality": "MR",
  "MultibandAccelerationFactor": 4,
  "PartialFourier": 1,
  "PatientPosition": "HFS",
  "PercentPhaseFOV": 100,
  "PercentSampling": 100,
  "PhaseEncodingDirection": "j",
  "PhaseEncodingSteps": 104,
  "PhaseResolution": 1,
  "PixelBandwidth": 2290,
  "ProcedureStepDescription": "games^mario",
  "ProtocolName": "func_task-mario_run-03",
  "PulseSequenceDetails": "%CustomerSeq%\\cmrr_mbep2d_bold",
  "ReceiveCoilActiveElements": "HC1-7;NC1,2",
  "ReceiveCoilName": "HeadNeck_64",
  "ReconMatrixPE": 104,
  "RepetitionTime": 1.49,
  "SAR": 0.0734165,
  "ScanOptions": "FS",
  "ScanningSequence": "EP",
  "SequenceName": "epfid2d1_104",
  "SequenceVariant": "SK\\SS",
  "SeriesDescription": "func_task-mario_run-03",
  "SeriesNumber": 17,
  "ShimSetting": [601, -7260, -8833, 388, -2, -338, 14, 38],
  "SliceThickness": 2,
  "SliceTiming": [0, 0.785, 0.1, 0.8825, 0.1975, 0.98, 0.295, 1.08, 0.3925, 1.1775, 0.49, 1.275, 0.59, 1.3725, 0.6875, 0, 0.785, 0.1, 0.8825, 0.1975, 0.98, 0.295, 1.08, 0.3925, 1.1775, 0.49, 1.275, 0.59, 1.3725, 0.6875, 0, 0.785, 0.1, 0.8825, 0.1975, 0.98, 0.295, 1.08, 0.3925, 1.1775, 0.49, 1.275, 0.59, 1.3725, 0.6875, 0, 0.785, 0.1, 0.8825, 0.1975, 0.98, 0.295, 1.08, 0.3925, 1.1775, 0.49, 1.275, 0.59, 1.3725, 0.6875],
  "SoftwareVersions": "syngo MR E11",
  "SpacingBetweenSlices": 2,
  "StationName": "MRC35049",
  "TaskName": "mario",
  "TotalReadoutTime": 0.0576811,
  "TxRefAmp": 296.655,
  "WipMemBlock": "08c7e892-cf28-443d-b2ae-e3f5cb5f66bf||Sequence: R017 ve11c/master r/75a17815+; Jun 28 2022 16:32:11 by eja",
  "dcmmeta_affine": [
    [-1.9997451305389404, 0.0212910957634449, -0.023796938359737396, 103.47882843017578],
    [0.028418706730008125, 1.866335153579712, -0.7183214426040649, -63.493988037109375],
    [-0.014559605158865452, 0.7185680270195007, 1.8663997650146484, -63.795509338378906],
    [0.0, 0.0, 0.0, 1.0]
],
  "dcmmeta_reorient_transform": [
    [0.0, -1.0, 0.0, 103.0],
    [1.0, 0.0, 0.0, 0.0],
    [0.0, 0.0, 1.0, 0.0],
    [0.0, 0.0, 0.0, 1.0]
],
  "dcmmeta_shape": [104, 104, 60, 476],
  "dcmmeta_slice_dim": 2,
  "dcmmeta_version": 0.6,
  "global": {
    "const": {
      "AcquisitionMatrix": [104, 0, 0, 104],
      "AngioFlag": "N",
      "BitsAllocated": 16,
      "BitsStored": 16,
      "BodyPartExamined": "BRAIN",
      "Columns": 832,
      "EchoNumbers": 1,
      "EchoTime": 37.0,
      "EchoTrainLength": 104,
      "FlipAngle": 52.0,
      "HighBit": 15,
      "ImageOrientationPatient": [0.99987254125292, -0.0142093534195, -0.0072798024583, 0.01064554771021, 0.93316754710645, -0.3592840120869],
      "ImagePositionPatient": [-841.32898362681, -797.74009107942, 277.07545405321],
      "ImageType": [
        "ORIGINAL",
        "PRIMARY",
        "P",
        "MB",
        "ND",
        "MOSAIC"
],
      "ImagedNucleus": "1H",
      "ImagingFrequency": 123.258781,
      "InPlanePhaseEncodingDirection": "COL",
      "LargestImagePixelValue": 4095,
      "MRAcquisitionType": "2D",
      "MagneticFieldStrength": 3.0,
      "Manufacturer": "SIEMENS",
      "ManufacturerModelName": "Prisma_fit",
      "Modality": "MR",
      "NumberOfAverages": 1.0,
      "NumberOfPhaseEncodingSteps": 104,
      "PercentPhaseFieldOfView": 100.0,
      "PercentSampling": 100.0,
      "PerformedProcedureStepStartTime": "174025.388000",
      "PhotometricInterpretation": "MONOCHROME2",
      "PixelBandwidth": 2290.0,
      "PixelRepresentation": 0,
      "PixelSpacing": [2.0, 2.0],
      "ProtocolName": "func_task-mario_run-03",
      "RepetitionTime": 1490.0,
      "RescaleIntercept": -4096.0,
      "RescaleSlope": 2.0,
      "RescaleType": "US",
      "Rows": 832,
      "SAR": 0.07341652525566,
      "SamplesPerPixel": 1,
      "ScanOptions": "FS",
      "ScanningSequence": "EP",
      "SequenceName": "epfid2d1_104",
      "SequenceVariant": [
        "SK",
        "SS"
],
      "SeriesDescription": "func_task-mario_run-03",
      "SeriesNumber": 17,
      "SeriesTime": "181044.350000",
      "SliceLocation": -37.960654248654,
      "SliceThickness": 2.0,
      "SmallestImagePixelValue": 0,
      "SoftwareVersions": "syngo MR E11",
      "SpacingBetweenSlices": 1.9999999883461,
      "SpecificCharacterSet": "ISO_IR 100",
      "StudyID": "1",
      "StudyTime": "174025.317000",
      "TransmitCoilName": "Body",
      "VariableFlipAngleFlag": "N",
      "WindowCenterWidthExplanation": "Algo1",
      "dBdt": 0.0},
    "slices": {}
  },
  "time": {
    "samples": {
      "AcquisitionNumber": [1, 2, 3, 4, 5, 6, 7, 8, 9, 10, 11, 12, 13, 14, 15, 16, 17, 18, 19, 20, 21, 22, 23, 24, 25, 26, 27, 28, 29, 30, 31, 32, 33, 34, 35, 36, 37, 38, 39, 40, 41, 42, 43, 44, 45, 46, 47, 48, 49, 50, 51, 52, 53, 54, 55, 56, 57, 58, 59, 60, 61, 62, 63, 64, 65, 66, 67, 68, 69, 70, 71, 72, 73, 74, 75, 76, 77, 78, 79, 80, 81, 82, 83, 84, 85, 86, 87, 88, 89, 90, 91, 92, 93, 94, 95, 96, 97, 98, 99, 100, 101, 102, 103, 104, 105, 106, 107, 108, 109, 110, 111, 112, 113, 114, 115, 116, 117, 118, 119, 120, 121, 122, 123, 124, 125, 126, 127, 128, 129, 130, 131, 132, 133, 134, 135, 136, 137, 138, 139, 140, 141, 142, 143, 144, 145, 146, 147, 148, 149, 150, 151, 152, 153, 154, 155, 156, 157, 158, 159, 160, 161, 162, 163, 164, 165, 166, 167, 168, 169, 170, 171, 172, 173, 174, 175, 176, 177, 178, 179, 180, 181, 182, 183, 184, 185, 186, 187, 188, 189, 190, 191, 192, 193, 194, 195, 196, 197, 198, 199, 200, 201, 202, 203, 204, 205, 206, 207, 208, 209, 210, 211, 212, 213, 214, 215, 216, 217, 218, 219, 220, 221, 222, 223, 224, 225, 226, 227, 228, 229, 230, 231, 232, 233, 234, 235, 236, 237, 238, 239, 240, 241, 242, 243, 244, 245, 246, 247, 248, 249, 250, 251, 252, 253, 254, 255, 256, 257, 258, 259, 260, 261, 262, 263, 264, 265, 266, 267, 268, 269, 270, 271, 272, 273, 274, 275, 276, 277, 278, 279, 280, 281, 282, 283, 284, 285, 286, 287, 288, 289, 290, 291, 292, 293, 294, 295, 296, 297, 298, 299, 300, 301, 302, 303, 304, 305, 306, 307, 308, 309, 310, 311, 312, 313, 314, 315, 316, 317, 318, 319, 320, 321, 322, 323, 324, 325, 326, 327, 328, 329, 330, 331, 332, 333, 334, 335, 336, 337, 338, 339, 340, 341, 342, 343, 344, 345, 346, 347, 348, 349, 350, 351, 352, 353, 354, 355, 356, 357, 358, 359, 360, 361, 362, 363, 364, 365, 366, 367, 368, 369, 370, 371, 372, 373, 374, 375, 376, 377, 378, 379, 380, 381, 382, 383, 384, 385, 386, 387, 388, 389, 390, 391, 392, 393, 394, 395, 396, 397, 398, 399, 400, 401, 402, 403, 404, 405, 406, 407, 408, 409, 410, 411, 412, 413, 414, 415, 416, 417, 418, 419, 420, 421, 422, 423, 424, 425, 426, 427, 428, 429, 430, 431, 432, 433, 434, 435, 436, 437, 438, 439, 440, 441, 442, 443, 444, 445, 446, 447, 448, 449, 450, 451, 452, 453, 454, 455, 456, 457, 458, 459, 460, 461, 462, 463, 464, 465, 466, 467, 468, 469, 470, 471, 472, 473, 474, 475, 476],
      "AcquisitionTime": ["180955.195000", "180956.685000", "180958.175000", "180959.665000", "181001.155000", "181002.645000", "181004.135000", "181005.625000", "181007.115000", "181008.605000", "181010.095000", "181011.585000", "181013.075000", "181014.565000", "181016.055000", "181017.545000", "181019.035000", "181020.525000", "181022.015000", "181023.505000", "181024.995000", "181026.485000", "181027.975000", "181029.465000", "181030.955000", "181032.445000", "181033.935000", "181035.425000", "181036.915000", "181038.405000", "181039.895000", "181041.385000", "181042.875000", "181044.365000", "181045.855000", "181047.345000", "181048.835000", "181050.325000", "181051.815000", "181053.305000", "181054.795000", "181056.285000", "181057.775000", "181059.265000", "181100.755000", "181102.245000", "181103.735000", "181105.225000", "181106.715000", "181108.205000", "181109.695000", "181111.185000", "181112.675000", "181114.165000", "181115.655000", "181117.145000", "181118.635000", "181120.125000", "181121.615000", "181123.105000", "181124.595000", "181126.085000", "181127.575000", "181129.065000", "181130.555000", "181132.045000", "181133.535000", "181135.025000", "181136.515000", "181138.005000", "181139.495000", "181140.985000", "181142.475000", "181143.965000", "181145.455000", "181146.945000", "181148.435000", "181149.925000", "181151.415000", "181152.905000", "181154.395000", "181155.885000", "181157.375000", "181158.865000", "181200.355000", "181201.845000", "181203.335000", "181204.825000", "181206.315000", "181207.805000", "181209.295000", "181210.785000", "181212.275000", "181213.765000", "181215.255000", "181216.745000", "181218.235000", "181219.725000", "181221.215000", "181222.705000", "181224.195000", "181225.685000", "181227.175000", "181228.665000", "181230.155000", "181231.645000", "181233.135000", "181234.625000", "181236.115000", "181237.605000", "181239.095000", "181240.585000", "181242.075000", "181243.565000", "181245.055000", "181246.545000", "181248.035000", "181249.525000", "181251.015000", "181252.505000", "181253.995000", "181255.485000", "181256.975000", "181258.465000", "181259.955000", "181301.445000", "181302.935000", "181304.425000", "181305.915000", "181307.405000", "181308.895000", "181310.385000", "181311.875000", "181313.365000", "181314.855000", "181316.345000", "181317.835000", "181319.325000", "181320.815000", "181322.305000", "181323.795000", "181325.285000", "181326.775000", "181328.265000", "181329.755000", "181331.245000", "181332.735000", "181334.225000", "181335.715000", "181337.205000", "181338.695000", "181340.185000", "181341.675000", "181343.165000", "181344.655000", "181346.145000", "181347.635000", "181349.125000", "181350.615000", "181352.105000", "181353.595000", "181355.085000", "181356.575000", "181358.065000", "181359.555000", "181401.045000", "181402.535000", "181404.025000", "181405.515000", "181407.005000", "181408.495000", "181409.985000", "181411.475000", "181412.965000", "181414.455000", "181415.945000", "181417.435000", "181418.925000", "181420.415000", "181421.905000", "181423.395000", "181424.885000", "181426.375000", "181427.865000", "181429.355000", "181430.845000", "181432.335000", "181433.825000", "181435.315000", "181436.805000", "181438.295000", "181439.785000", "181441.275000", "181442.765000", "181444.255000", "181445.745000", "181447.235000", "181448.725000", "181450.215000", "181451.705000", "181453.195000", "181454.685000", "181456.175000", "181457.665000", "181459.155000", "181500.645000", "181502.135000", "181503.625000", "181505.115000", "181506.605000", "181508.095000", "181509.585000", "181511.075000", "181512.565000", "181514.055000", "181515.545000", "181517.035000", "181518.525000", "181520.015000", "181521.505000", "181522.995000", "181524.485000", "181525.975000", "181527.465000", "181528.955000", "181530.445000", "181531.935000", "181533.425000", "181534.915000", "181536.405000", "181537.895000", "181539.385000", "181540.875000", "181542.365000", "181543.855000", "181545.345000", "181546.835000", "181548.325000", "181549.815000", "181551.305000", "181552.795000", "181554.285000", "181555.775000", "181557.265000", "181558.755000", "181600.245000", "181601.735000", "181603.225000", "181604.715000", "181606.205000", "181607.695000", "181609.185000", "181610.675000", "181612.165000", "181613.655000", "181615.145000", "181616.635000", "181618.125000", "181619.615000", "181621.105000", "181622.595000", "181624.085000", "181625.575000", "181627.065000", "181628.555000", "181630.045000", "181631.535000", "181633.025000", "181634.515000", "181636.005000", "181637.495000", "181638.985000", "181640.475000", "181641.965000", "181643.455000", "181644.945000", "181646.435000", "181647.925000", "181649.415000", "181650.905000", "181652.395000", "181653.885000", "181655.375000", "181656.865000", "181658.355000", "181659.845000", "181701.335000", "181702.825000", "181704.315000", "181705.805000", "181707.295000", "181708.785000", "181710.275000", "181711.765000", "181713.255000", "181714.745000", "181716.235000", "181717.725000", "181719.215000", "181720.705000", "181722.195000", "181723.685000", "181725.175000", "181726.665000", "181728.155000", "181729.645000", "181731.135000", "181732.625000", "181734.115000", "181735.605000", "181737.095000", "181738.585000", "181740.075000", "181741.565000", "181743.055000", "181744.545000", "181746.035000", "181747.525000", "181749.015000", "181750.505000", "181751.995000", "181753.485000", "181754.975000", "181756.465000", "181757.955000", "181759.445000", "181800.935000", "181802.425000", "181803.915000", "181805.405000", "181806.895000", "181808.385000", "181809.875000", "181811.365000", "181812.855000", "181814.345000", "181815.835000", "181817.325000", "181818.815000", "181820.305000", "181821.795000", "181823.285000", "181824.775000", "181826.265000", "181827.755000", "181829.245000", "181830.735000", "181832.225000", "181833.715000", "181835.205000", "181836.695000", "181838.185000", "181839.675000", "181841.165000", "181842.655000", "181844.145000", "181845.635000", "181847.125000", "181848.615000", "181850.105000", "181851.595000", "181853.085000", "181854.575000", "181856.065000", "181857.555000", "181859.045000", "181900.535000", "181902.025000", "181903.515000", "181905.005000", "181906.495000", "181907.985000", "181909.475000", "181910.965000", "181912.455000", "181913.945000", "181915.435000", "181916.925000", "181918.415000", "181919.905000", "181921.395000", "181922.885000", "181924.375000", "181925.865000", "181927.355000", "181928.845000", "181930.335000", "181931.825000", "181933.315000", "181934.805000", "181936.295000", "181937.785000", "181939.275000", "181940.765000", "181942.255000", "181943.745000", "181945.235000", "181946.725000", "181948.215000", "181949.705000", "181951.195000", "181952.685000", "181954.175000", "181955.665000", "181957.155000", "181958.645000", "182000.135000", "182001.625000", "182003.115000", "182004.605000", "182006.095000", "182007.585000", "182009.075000", "182010.565000", "182012.055000", "182013.545000", "182015.035000", "182016.525000", "182018.015000", "182019.505000", "182020.995000", "182022.485000", "182023.975000", "182025.465000", "182026.955000", "182028.445000", "182029.935000", "182031.425000", "182032.915000", "182034.405000", "182035.895000", "182037.385000", "182038.875000", "182040.365000", "182041.855000", "182043.345000", "182044.835000", "182046.325000", "182047.815000", "182049.305000", "182050.795000", "182052.285000", "182053.775000", "182055.265000", "182056.755000", "182058.245000", "182059.735000", "182101.225000", "182102.715000", "182104.205000", "182105.695000", "182107.185000", "182108.675000", "182110.165000", "182111.655000", "182113.145000", "182114.635000", "182116.125000", "182117.615000", "182119.105000", "182120.595000", "182122.085000", "182123.575000", "182125.065000", "182126.555000", "182128.045000", "182129.535000", "182131.025000", "182132.515000", "182134.005000", "182135.495000", "182136.985000", "182138.475000", "182139.965000", "182141.455000", "182142.945000"],
      "ContentTime": ["181044.352000", "181044.355000", "181104.390000", "181104.393000", "181104.395000", "181104.398000", "181104.400000", "181104.403000", "181104.405000", "181104.408000", "181104.410000", "181104.412000", "181104.415000", "181104.417000", "181104.420000", "181104.422000", "181104.425000", "181104.427000", "181104.430000", "181104.432000", "181104.434000", "181104.437000", "181124.411000", "181124.414000", "181124.416000", "181124.418000", "181124.421000", "181124.423000", "181124.426000", "181124.428000", "181124.431000", "181124.433000", "181124.436000", "181124.438000", "181124.441000", "181124.443000", "181124.445000", "181124.448000", "181124.450000", "181124.453000", "181124.455000", "181124.458000", "181144.393000", "181144.396000", "181144.398000", "181144.401000", "181144.403000", "181144.406000", "181144.408000", "181144.411000", "181144.413000", "181144.415000", "181144.418000", "181144.420000", "181144.423000", "181144.425000", "181144.428000", "181144.430000", "181144.433000", "181144.435000", "181144.438000", "181144.440000", "181204.392000", "181204.395000", "181204.397000", "181204.400000", "181204.402000", "181204.405000", "181204.407000", "181204.410000", "181204.413000", "181204.415000", "181204.417000", "181204.428000", "181204.430000", "181204.433000", "181204.435000", "181204.438000", "181204.440000", "181204.443000", "181204.445000", "181204.448000", "181244.446000", "181244.449000", "181244.451000", "181244.454000", "181244.456000", "181244.459000", "181244.461000", "181244.464000", "181244.466000", "181244.469000", "181244.471000", "181244.474000", "181244.476000", "181244.479000", "181244.481000", "181244.484000", "181244.486000", "181244.489000", "181244.491000", "181244.493000", "181244.496000", "181244.498000", "181244.501000", "181244.503000", "181244.506000", "181244.508000", "181244.511000", "181244.513000", "181244.516000", "181244.518000", "181244.521000", "181324.436000", "181324.439000", "181324.441000", "181324.444000", "181324.446000", "181324.449000", "181324.451000", "181324.454000", "181324.456000", "181324.459000", "181324.461000", "181324.464000", "181324.466000", "181324.468000", "181324.471000", "181324.473000", "181324.476000", "181324.478000", "181324.481000", "181324.483000", "181324.486000", "181324.488000", "181324.491000", "181324.493000", "181324.495000", "181324.498000", "181324.500000", "181404.439000", "181404.442000", "181404.444000", "181404.446000", "181404.449000", "181404.451000", "181404.454000", "181404.456000", "181404.459000", "181404.470000", "181404.472000", "181404.475000", "181404.477000", "181404.480000", "181404.482000", "181404.485000", "181404.487000", "181404.490000", "181404.492000", "181404.494000", "181404.497000", "181404.499000", "181404.502000", "181404.504000", "181404.507000", "181404.509000", "181404.512000", "181444.418000", "181444.420000", "181444.423000", "181444.426000", "181444.428000", "181444.431000", "181444.433000", "181444.436000", "181444.438000", "181444.441000", "181444.443000", "181444.446000", "181444.448000", "181444.451000", "181444.453000", "181444.456000", "181444.458000", "181444.461000", "181444.463000", "181444.465000", "181444.468000", "181444.470000", "181444.473000", "181444.475000", "181444.478000", "181444.480000", "181524.425000", "181524.428000", "181524.430000", "181524.433000", "181524.435000", "181524.438000", "181524.440000", "181524.443000", "181524.445000", "181524.448000", "181524.450000", "181524.453000", "181524.455000", "181524.458000", "181524.461000", "181524.463000", "181524.465000", "181524.468000", "181524.470000", "181524.473000", "181524.475000", "181524.478000", "181524.480000", "181524.483000", "181524.485000", "181524.488000", "181524.490000", "181604.507000", "181604.509000", "181604.512000", "181604.514000", "181604.517000", "181604.519000", "181604.522000", "181604.524000", "181604.527000", "181604.529000", "181604.532000", "181604.534000", "181604.537000", "181604.539000", "181604.542000", "181604.544000", "181604.547000", "181604.549000", "181604.552000", "181604.554000", "181604.557000", "181604.559000", "181604.562000", "181604.564000", "181604.567000", "181604.569000", "181604.572000", "181644.424000", "181644.427000", "181644.429000", "181644.432000", "181644.434000", "181644.437000", "181644.439000", "181644.442000", "181644.444000", "181644.447000", "181644.449000", "181644.452000", "181644.454000", "181644.457000", "181644.459000", "181644.462000", "181644.464000", "181644.467000", "181644.469000", "181644.472000", "181644.474000", "181644.477000", "181644.479000", "181644.482000", "181644.484000", "181644.487000", "181644.489000", "181724.432000", "181724.435000", "181724.437000", "181724.440000", "181724.443000", "181724.445000", "181724.447000", "181724.450000", "181724.452000", "181724.455000", "181724.457000", "181724.460000", "181724.462000", "181724.465000", "181724.467000", "181724.470000", "181724.472000", "181724.475000", "181724.477000", "181724.480000", "181724.482000", "181724.485000", "181724.487000", "181724.490000", "181724.492000", "181724.495000", "181724.497000", "181804.434000", "181804.437000", "181804.440000", "181804.442000", "181804.445000", "181804.447000", "181804.450000", "181804.452000", "181804.455000", "181804.457000", "181804.459000", "181804.462000", "181804.464000", "181804.467000", "181804.469000", "181804.472000", "181804.474000", "181804.477000", "181804.479000", "181804.482000", "181804.484000", "181804.487000", "181804.489000", "181804.492000", "181804.494000", "181804.497000", "181804.499000", "181844.814000", "181844.817000", "181844.819000", "181844.822000", "181844.824000", "181844.826000", "181844.829000", "181844.831000", "181844.834000", "181844.836000", "181844.839000", "181844.841000", "181844.844000", "181844.846000", "181844.849000", "181844.852000", "181844.861000", "181844.863000", "181844.866000", "181844.868000", "181844.871000", "181844.888000", "181844.891000", "181844.893000", "181844.896000", "181844.898000", "181924.417000", "181924.419000", "181924.422000", "181924.424000", "181924.427000", "181924.430000", "181924.432000", "181924.435000", "181924.437000", "181924.440000", "181924.442000", "181924.445000", "181924.447000", "181924.450000", "181924.452000", "181924.455000", "181924.457000", "181924.460000", "181924.462000", "181924.465000", "181924.467000", "181924.470000", "181924.472000", "181924.475000", "181924.477000", "181924.479000", "181924.482000", "181944.370000", "181944.373000", "181944.375000", "181944.378000", "181944.380000", "181944.382000", "181944.385000", "181944.387000", "181944.390000", "181944.392000", "181944.395000", "181944.397000", "181944.400000", "181944.402000", "182024.430000", "182024.432000", "182024.435000", "182024.437000", "182024.440000", "182024.442000", "182024.445000", "182024.447000", "182024.450000", "182024.452000", "182024.455000", "182024.457000", "182024.460000", "182024.462000", "182024.465000", "182024.467000", "182024.470000", "182024.472000", "182024.475000", "182024.477000", "182024.479000", "182024.482000", "182024.484000", "182024.487000", "182024.489000", "182024.492000", "182024.494000", "182104.439000", "182104.441000", "182104.444000", "182104.446000", "182104.449000", "182104.451000", "182104.454000", "182104.456000", "182104.459000", "182104.461000", "182104.464000", "182104.466000", "182104.469000", "182104.471000", "182104.474000", "182104.476000", "182104.479000", "182104.481000", "182104.484000", "182104.486000", "182104.489000", "182104.491000", "182104.493000", "182104.496000", "182104.498000", "182104.501000", "182144.424000", "182144.427000", "182144.430000", "182144.432000", "182144.435000", "182144.437000", "182144.440000", "182144.442000", "182144.446000", "182144.449000", "182144.451000", "182144.454000", "182144.456000", "182144.459000", "182144.461000", "182144.464000", "182144.466000", "182144.468000", "182144.471000", "182144.473000", "182144.476000", "182144.478000", "182144.481000", "182144.483000", "182144.486000", "182144.488000", "182144.491000", "182145.416000"],
