{
  "AcquisitionMatrixPE": 104,
  "AcquisitionNumber": 1,
  "AcquisitionTime": "15:47:32.537500",
  "BandwidthPerPixelPhaseEncode": 17.17,
  "BaseResolution": 104,
  "BodyPartExamined": "BRAIN",
  "CoilCombinationMethod": "Sum of Squares",
  "ConsistencyInfo": "N4_VE11C_LATEST_20160120",
  "ConversionSoftware": "dcm2niix",
  "ConversionSoftwareVersion": "v1.0.20211006",
  "DerivedVendorReportedEchoSpacing": 0.000560011,
  "DeviceSerialNumber": "167006",
  "DwellTime": 2.1e-06,
  "EchoTime": 0.037,
  "EchoTrainLength": 104,
  "EffectiveEchoSpacing": 0.000560011,
  "FlipAngle": 52,
  "HeudiconvVersion": "0.5.3.post569+g418601f",
  "ImageComments": "Unaliased MB4/PE3/LB",
  "ImageOrientationPatientDICOM": [0.999081, -0.0414854, -0.010774, 0.0362855, 0.952433, -0.302579],
  "ImageOrientationText": "Tra>Cor(-17.6)>Sag(-1.3)",
  "ImageType": [
    "ORIGINAL",
    "PRIMARY",
    "M",
    "MB",
    "ND",
    "MOSAIC"
],
  "ImagingFrequency": 123.259,
  "InPlanePhaseEncodingDirectionDICOM": "COL",
  "InstitutionAddress": "Chemin Queen-Mary 4565,Montreal,District,CA,H3W 1W5",
  "InstitutionName": "IUGM",
  "InstitutionalDepartmentName": "Department",
  "MRAcquisitionType": "2D",
  "MagneticFieldStrength": 3,
  "Manufacturer": "Siemens",
  "ManufacturersModelName": "Prisma_fit",
  "MatrixCoilMode": "SENSE",
  "Modality": "MR",
  "MultibandAccelerationFactor": 4,
  "PartialFourier": 1,
  "PatientPosition": "HFS",
  "PercentPhaseFOV": 100,
  "PercentSampling": 100,
  "PhaseEncodingDirection": "j",
  "PhaseEncodingSteps": 104,
  "PhaseResolution": 1,
  "PixelBandwidth": 2290,
  "ProcedureStepDescription": "games^mario",
  "ProtocolName": "func_task-mario_run-03",
  "PulseSequenceDetails": "%CustomerSeq%\\cmrr_mbep2d_bold",
  "ReceiveCoilActiveElements": "HC1-7;NC1,2",
  "ReceiveCoilName": "HeadNeck_64",
  "ReconMatrixPE": 104,
  "RepetitionTime": 1.49,
  "SAR": 0.0388093,
  "ScanOptions": "FS",
  "ScanningSequence": "EP",
  "SequenceName": "epfid2d1_104",
  "SequenceVariant": "SK\\SS",
  "SeriesDescription": "func_task-mario_run-03",
  "SeriesNumber": 16,
  "ShimSetting": [624, -7254, -8837, 594, -1, -225, -47, -24],
  "SliceThickness": 2,
  "SliceTiming": [0, 0.785, 0.0975, 0.8825, 0.195, 0.98, 0.295, 1.0775, 0.3925, 1.175, 0.49, 1.275, 0.5875, 1.3725, 0.685, 0, 0.785, 0.0975, 0.8825, 0.195, 0.98, 0.295, 1.0775, 0.3925, 1.175, 0.49, 1.275, 0.5875, 1.3725, 0.685, 0, 0.785, 0.0975, 0.8825, 0.195, 0.98, 0.295, 1.0775, 0.3925, 1.175, 0.49, 1.275, 0.5875, 1.3725, 0.685, 0, 0.785, 0.0975, 0.8825, 0.195, 0.98, 0.295, 1.0775, 0.3925, 1.175, 0.49, 1.275, 0.5875, 1.3725, 0.685],
  "SoftwareVersions": "syngo MR E11",
  "SpacingBetweenSlices": 2,
  "StationName": "MRC35049",
  "TaskName": "mario",
  "TotalReadoutTime": 0.0576811,
  "TxRefAmp": 234.049,
  "WipMemBlock": "eff429f7-f54a-4510-a80e-50f5b0f50cca||Sequence: R016 ve11c/master r/e634e98; Dec 19 2017 11:00:25 by eja",
  "dcmmeta_affine": [
    [-1.998162031173706, 0.07257093489170074, -0.045628320425748825, 104.04368591308594],
    [0.08297087997198105, 1.9048664569854736, -0.6038208603858948, -71.93013763427734],
    [-0.021548008546233177, 0.6051588654518127, 1.906126618385315, -65.374267578125],
    [0.0, 0.0, 0.0, 1.0]
],
  "dcmmeta_reorient_transform": [
    [0.0, -1.0, 0.0, 103.0],
    [1.0, 0.0, 0.0, 0.0],
    [0.0, 0.0, 1.0, 0.0],
    [0.0, 0.0, 0.0, 1.0]
],
  "dcmmeta_shape": [104, 104, 60, 452],
  "dcmmeta_slice_dim": 2,
  "dcmmeta_version": 0.6,
  "global": {
    "const": {
      "AcquisitionMatrix": [104, 0, 0, 104],
      "AngioFlag": "N",
      "BitsAllocated": 16,
      "BitsStored": 16,
      "BodyPartExamined": "BRAIN",
      "Columns": 832,
      "EchoNumbers": 1,
      "EchoTime": 37.0,
      "EchoTrainLength": 104,
      "FlipAngle": 52.0,
      "HighBit": 15,
      "ImageOrientationPatient": [0.99908101723972, -0.0414854411231, -0.0107740041801, 0.03628546616254, 0.95243322639348, -0.3025794345409],
      "ImagePositionPatient": [-865.26529056778, -787.44109289792, 225.07839673973],
      "ImageType": [
        "ORIGINAL",
        "PRIMARY",
        "M",
        "MB",
        "ND",
        "MOSAIC"
],
      "ImagedNucleus": "1H",
      "ImagingFrequency": 123.258823,
      "InPlanePhaseEncodingDirection": "COL",
      "MRAcquisitionType": "2D",
      "MagneticFieldStrength": 3.0,
      "Manufacturer": "SIEMENS",
      "ManufacturerModelName": "Prisma_fit",
      "Modality": "MR",
      "NumberOfAverages": 1.0,
      "NumberOfPhaseEncodingSteps": 104,
      "PercentPhaseFieldOfView": 100.0,
      "PercentSampling": 100.0,
      "PerformedProcedureStepStartTime": "145110.560000",
      "PhotometricInterpretation": "MONOCHROME2",
      "PixelBandwidth": 2290.0,
      "PixelRepresentation": 0,
      "PixelSpacing": [2.0, 2.0],
      "ProtocolName": "func_task-mario_run-03",
      "RepetitionTime": 1490.0,
      "Rows": 832,
      "SAR": 0.03880930410744,
      "SamplesPerPixel": 1,
      "ScanOptions": "FS",
      "ScanningSequence": "EP",
      "SequenceName": "epfid2d1_104",
      "SequenceVariant": [
        "SK",
        "SS"
],
      "SeriesDescription": "func_task-mario_run-03",
      "SeriesNumber": 16,
      "SeriesTime": "154848.402000",
      "SliceLocation": -42.963026114862,
      "SliceThickness": 2.0,
      "SmallestImagePixelValue": 0,
      "SoftwareVersions": "syngo MR E11",
      "SpacingBetweenSlices": 2.0000000171945,
      "SpecificCharacterSet": "ISO_IR 100",
      "StudyID": "1",
      "StudyTime": "145110.402000",
      "TransmitCoilName": "Body",
      "VariableFlipAngleFlag": "N",
      "WindowCenterWidthExplanation": "Algo1",
      "dBdt": 0.0},
    "slices": {}
  },
  "time": {
    "samples": {
      "AcquisitionNumber": [1, 2, 3, 4, 5, 6, 7, 8, 9, 10, 11, 12, 13, 14, 15, 16, 17, 18, 19, 20, 21, 22, 23, 24, 25, 26, 27, 28, 29, 30, 31, 32, 33, 34, 35, 36, 37, 38, 39, 40, 41, 42, 43, 44, 45, 46, 47, 48, 49, 50, 51, 52, 53, 54, 55, 56, 57, 58, 59, 60, 61, 62, 63, 64, 65, 66, 67, 68, 69, 70, 71, 72, 73, 74, 75, 76, 77, 78, 79, 80, 81, 82, 83, 84, 85, 86, 87, 88, 89, 90, 91, 92, 93, 94, 95, 96, 97, 98, 99, 100, 101, 102, 103, 104, 105, 106, 107, 108, 109, 110, 111, 112, 113, 114, 115, 116, 117, 118, 119, 120, 121, 122, 123, 124, 125, 126, 127, 128, 129, 130, 131, 132, 133, 134, 135, 136, 137, 138, 139, 140, 141, 142, 143, 144, 145, 146, 147, 148, 149, 150, 151, 152, 153, 154, 155, 156, 157, 158, 159, 160, 161, 162, 163, 164, 165, 166, 167, 168, 169, 170, 171, 172, 173, 174, 175, 176, 177, 178, 179, 180, 181, 182, 183, 184, 185, 186, 187, 188, 189, 190, 191, 192, 193, 194, 195, 196, 197, 198, 199, 200, 201, 202, 203, 204, 205, 206, 207, 208, 209, 210, 211, 212, 213, 214, 215, 216, 217, 218, 219, 220, 221, 222, 223, 224, 225, 226, 227, 228, 229, 230, 231, 232, 233, 234, 235, 236, 237, 238, 239, 240, 241, 242, 243, 244, 245, 246, 247, 248, 249, 250, 251, 252, 253, 254, 255, 256, 257, 258, 259, 260, 261, 262, 263, 264, 265, 266, 267, 268, 269, 270, 271, 272, 273, 274, 275, 276, 277, 278, 279, 280, 281, 282, 283, 284, 285, 286, 287, 288, 289, 290, 291, 292, 293, 294, 295, 296, 297, 298, 299, 300, 301, 302, 303, 304, 305, 306, 307, 308, 309, 310, 311, 312, 313, 314, 315, 316, 317, 318, 319, 320, 321, 322, 323, 324, 325, 326, 327, 328, 329, 330, 331, 332, 333, 334, 335, 336, 337, 338, 339, 340, 341, 342, 343, 344, 345, 346, 347, 348, 349, 350, 351, 352, 353, 354, 355, 356, 357, 358, 359, 360, 361, 362, 363, 364, 365, 366, 367, 368, 369, 370, 371, 372, 373, 374, 375, 376, 377, 378, 379, 380, 381, 382, 383, 384, 385, 386, 387, 388, 389, 390, 391, 392, 393, 394, 395, 396, 397, 398, 399, 400, 401, 402, 403, 404, 405, 406, 407, 408, 409, 410, 411, 412, 413, 414, 415, 416, 417, 418, 419, 420, 421, 422, 423, 424, 425, 426, 427, 428, 429, 430, 431, 432, 433, 434, 435, 436, 437, 438, 439, 440, 441, 442, 443, 444, 445, 446, 447, 448, 449, 450, 451, 452],
      "AcquisitionTime": ["154732.537500", "154734.027500", "154735.517500", "154737.007500", "154738.497500", "154739.987500", "154741.477500", "154742.967500", "154744.457500", "154745.947500", "154747.437500", "154748.927500", "154750.417500", "154751.907500", "154753.397500", "154754.887500", "154756.377500", "154757.867500", "154759.357500", "154800.847500", "154802.337500", "154803.827500", "154805.317500", "154806.807500", "154808.297500", "154809.787500", "154811.277500", "154812.767500", "154814.257500", "154815.747500", "154817.237500", "154818.727500", "154820.217500", "154821.707500", "154823.197500", "154824.687500", "154826.177500", "154827.667500", "154829.157500", "154830.647500", "154832.137500", "154833.627500", "154835.117500", "154836.607500", "154838.097500", "154839.587500", "154841.077500", "154842.567500", "154844.057500", "154845.547500", "154847.037500", "154848.527500", "154850.017500", "154851.507500", "154852.997500", "154854.487500", "154855.977500", "154857.467500", "154858.957500", "154900.447500", "154901.937500", "154903.427500", "154904.917500", "154906.407500", "154907.897500", "154909.387500", "154910.877500", "154912.367500", "154913.857500", "154915.347500", "154916.837500", "154918.327500", "154919.817500", "154921.307500", "154922.797500", "154924.287500", "154925.777500", "154927.267500", "154928.757500", "154930.247500", "154931.737500", "154933.227500", "154934.717500", "154936.207500", "154937.697500", "154939.187500", "154940.677500", "154942.167500", "154943.657500", "154945.147500", "154946.637500", "154948.127500", "154949.617500", "154951.107500", "154952.597500", "154954.087500", "154955.577500", "154957.067500", "154958.557500", "155000.047500", "155001.537500", "155003.027500", "155004.517500", "155006.007500", "155007.497500", "155008.987500", "155010.477500", "155011.967500", "155013.457500", "155014.947500", "155016.437500", "155017.927500", "155019.417500", "155020.907500", "155022.397500", "155023.887500", "155025.377500", "155026.867500", "155028.357500", "155029.847500", "155031.337500", "155032.827500", "155034.317500", "155035.807500", "155037.297500", "155038.787500", "155040.277500", "155041.767500", "155043.257500", "155044.747500", "155046.237500", "155047.727500", "155049.217500", "155050.707500", "155052.197500", "155053.687500", "155055.177500", "155056.667500", "155058.157500", "155059.647500", "155101.137500", "155102.627500", "155104.117500", "155105.607500", "155107.097500", "155108.587500", "155110.077500", "155111.567500", "155113.057500", "155114.547500", "155116.037500", "155117.527500", "155119.017500", "155120.507500", "155121.997500", "155123.487500", "155124.977500", "155126.467500", "155127.957500", "155129.447500", "155130.937500", "155132.427500", "155133.917500", "155135.407500", "155136.897500", "155138.387500", "155139.877500", "155141.367500", "155142.857500", "155144.347500", "155145.837500", "155147.327500", "155148.817500", "155150.307500", "155151.797500", "155153.287500", "155154.777500", "155156.267500", "155157.757500", "155159.247500", "155200.737500", "155202.227500", "155203.717500", "155205.207500", "155206.697500", "155208.187500", "155209.677500", "155211.167500", "155212.657500", "155214.147500", "155215.637500", "155217.127500", "155218.617500", "155220.107500", "155221.597500", "155223.087500", "155224.577500", "155226.067500", "155227.557500", "155229.047500", "155230.537500", "155232.027500", "155233.517500", "155235.007500", "155236.497500", "155237.987500", "155239.477500", "155240.967500", "155242.457500", "155243.947500", "155245.437500", "155246.927500", "155248.417500", "155249.907500", "155251.397500", "155252.887500", "155254.377500", "155255.867500", "155257.357500", "155258.847500", "155300.337500", "155301.827500", "155303.317500", "155304.807500", "155306.297500", "155307.787500", "155309.277500", "155310.767500", "155312.257500", "155313.747500", "155315.237500", "155316.727500", "155318.217500", "155319.707500", "155321.197500", "155322.687500", "155324.177500", "155325.667500", "155327.157500", "155328.647500", "155330.137500", "155331.627500", "155333.117500", "155334.607500", "155336.097500", "155337.587500", "155339.077500", "155340.567500", "155342.057500", "155343.547500", "155345.037500", "155346.527500", "155348.017500", "155349.507500", "155350.997500", "155352.487500", "155353.977500", "155355.467500", "155356.957500", "155358.447500", "155359.937500", "155401.427500", "155402.917500", "155404.407500", "155405.897500", "155407.387500", "155408.877500", "155410.367500", "155411.857500", "155413.347500", "155414.837500", "155416.327500", "155417.817500", "155419.307500", "155420.797500", "155422.287500", "155423.777500", "155425.267500", "155426.757500", "155428.247500", "155429.737500", "155431.227500", "155432.717500", "155434.207500", "155435.697500", "155437.187500", "155438.677500", "155440.167500", "155441.657500", "155443.147500", "155444.637500", "155446.127500", "155447.617500", "155449.107500", "155450.597500", "155452.087500", "155453.577500", "155455.067500", "155456.557500", "155458.047500", "155459.537500", "155501.027500", "155502.517500", "155504.007500", "155505.497500", "155506.987500", "155508.477500", "155509.967500", "155511.457500", "155512.947500", "155514.437500", "155515.927500", "155517.417500", "155518.907500", "155520.397500", "155521.887500", "155523.377500", "155524.867500", "155526.357500", "155527.847500", "155529.337500", "155530.827500", "155532.317500", "155533.807500", "155535.297500", "155536.787500", "155538.277500", "155539.767500", "155541.257500", "155542.747500", "155544.237500", "155545.727500", "155547.217500", "155548.707500", "155550.197500", "155551.687500", "155553.177500", "155554.667500", "155556.157500", "155557.647500", "155559.137500", "155600.627500", "155602.117500", "155603.607500", "155605.097500", "155606.587500", "155608.077500", "155609.567500", "155611.057500", "155612.547500", "155614.037500", "155615.527500", "155617.017500", "155618.507500", "155619.997500", "155621.487500", "155622.977500", "155624.467500", "155625.957500", "155627.447500", "155628.937500", "155630.427500", "155631.917500", "155633.407500", "155634.897500", "155636.387500", "155637.877500", "155639.367500", "155640.857500", "155642.347500", "155643.837500", "155645.327500", "155646.817500", "155648.307500", "155649.797500", "155651.287500", "155652.777500", "155654.267500", "155655.757500", "155657.247500", "155658.737500", "155700.227500", "155701.717500", "155703.207500", "155704.697500", "155706.187500", "155707.677500", "155709.167500", "155710.657500", "155712.147500", "155713.637500", "155715.127500", "155716.617500", "155718.107500", "155719.597500", "155721.087500", "155722.577500", "155724.067500", "155725.557500", "155727.047500", "155728.537500", "155730.027500", "155731.517500", "155733.007500", "155734.497500", "155735.987500", "155737.477500", "155738.967500", "155740.457500", "155741.947500", "155743.437500", "155744.927500", "155746.417500", "155747.907500", "155749.397500", "155750.887500", "155752.377500", "155753.867500", "155755.357500", "155756.847500", "155758.337500", "155759.827500", "155801.317500", "155802.807500", "155804.297500", "155805.787500", "155807.277500", "155808.767500", "155810.257500", "155811.747500", "155813.237500", "155814.727500", "155816.217500", "155817.707500", "155819.197500", "155820.687500", "155822.177500", "155823.667500", "155825.157500", "155826.647500", "155828.137500", "155829.627500", "155831.117500", "155832.607500", "155834.097500", "155835.587500", "155837.077500", "155838.567500", "155840.057500", "155841.547500", "155843.037500", "155844.527500"],
      "ContentTime": ["154848.405000", "154848.409000", "154848.412000", "154848.416000", "154848.419000", "154848.422000", "154848.426000", "154848.429000", "154848.432000", "154848.436000", "154848.439000", "154848.442000", "154848.445000", "154848.449000", "154848.452000", "154848.455000", "154848.459000", "154848.462000", "154848.465000", "154848.468000", "154848.472000", "154848.475000", "154908.363000", "154908.367000", "154908.370000", "154908.380000", "154908.383000", "154908.386000", "154908.390000", "154908.393000", "154908.396000", "154908.400000", "154908.416000", "154908.420000", "154908.423000", "154908.426000", "154908.430000", "154908.433000", "154908.436000", "154908.440000", "154908.443000", "154908.446000", "154928.363000", "154928.367000", "154928.370000", "154928.374000", "154928.377000", "154928.380000", "154928.383000", "154928.387000", "154928.390000", "154928.393000", "154928.397000", "154928.400000", "154928.403000", "154928.407000", "154928.410000", "154928.414000", "154928.418000", "154928.422000", "154928.425000", "154928.429000", "154948.363000", "154948.367000", "154948.370000", "154948.374000", "154948.377000", "154948.380000", "154948.383000", "154948.387000", "154948.390000", "154948.394000", "154948.397000", "154948.400000", "154948.403000", "154948.407000", "154948.410000", "154948.413000", "154948.417000", "154948.420000", "154948.423000", "154948.427000", "154948.430000", "155008.363000", "155008.367000", "155008.370000", "155008.374000", "155008.377000", "155008.380000", "155008.383000", "155008.387000", "155008.390000", "155008.393000", "155008.397000", "155008.400000", "155008.403000", "155008.407000", "155008.410000", "155008.413000", "155008.417000", "155008.420000", "155008.423000", "155008.426000", "155048.363000", "155048.367000", "155048.370000", "155048.374000", "155048.377000", "155048.380000", "155048.384000", "155048.387000", "155048.390000", "155048.394000", "155048.397000", "155048.400000", "155048.404000", "155048.407000", "155048.411000", "155048.414000", "155048.417000", "155048.421000", "155048.424000", "155048.427000", "155048.430000", "155048.434000", "155048.437000", "155048.440000", "155048.444000", "155048.447000", "155048.450000", "155048.454000", "155128.363000", "155128.367000", "155128.370000", "155128.374000", "155128.377000", "155128.395000", "155128.398000", "155128.401000", "155128.405000", "155128.408000", "155128.411000", "155128.415000", "155128.418000", "155128.422000", "155128.425000", "155128.434000", "155128.437000", "155128.440000", "155128.444000", "155128.447000", "155128.450000", "155128.454000", "155128.457000", "155128.460000", "155128.463000", "155128.467000", "155128.470000", "155208.363000", "155208.367000", "155208.370000", "155208.373000", "155208.377000", "155208.380000", "155208.383000", "155208.387000", "155208.390000", "155208.393000", "155208.397000", "155208.400000", "155208.403000", "155208.406000", "155208.410000", "155208.413000", "155208.416000", "155208.420000", "155208.423000", "155208.427000", "155208.430000", "155208.433000", "155208.436000", "155208.440000", "155208.443000", "155208.446000", "155248.363000", "155248.367000", "155248.370000", "155248.374000", "155248.377000", "155248.381000", "155248.384000", "155248.387000", "155248.391000", "155248.394000", "155248.397000", "155248.401000", "155248.404000", "155248.407000", "155248.410000", "155248.414000", "155248.417000", "155248.421000", "155248.424000", "155248.427000", "155248.431000", "155248.434000", "155248.437000", "155248.441000", "155248.444000", "155248.447000", "155248.450000", "155328.362000", "155328.366000", "155328.370000", "155328.373000", "155328.376000", "155328.380000", "155328.383000", "155328.386000", "155328.389000", "155328.393000", "155328.396000", "155328.400000", "155328.403000", "155328.406000", "155328.410000", "155328.413000", "155328.417000", "155328.420000", "155328.441000", "155328.444000", "155328.448000", "155328.451000", "155328.454000", "155328.458000", "155328.461000", "155328.464000", "155328.468000", "155408.363000", "155408.367000", "155408.370000", "155408.374000", "155408.377000", "155408.380000", "155408.384000", "155408.387000", "155408.390000", "155408.394000", "155408.397000", "155408.400000", "155408.404000", "155408.407000", "155408.410000", "155408.414000", "155408.417000", "155408.420000", "155408.424000", "155408.427000", "155408.430000", "155408.434000", "155408.437000", "155408.440000", "155408.444000", "155408.447000", "155408.450000", "155448.363000", "155448.367000", "155448.371000", "155448.374000", "155448.377000", "155448.381000", "155448.384000", "155448.387000", "155448.391000", "155448.394000", "155448.397000", "155448.401000", "155448.404000", "155448.407000", "155448.411000", "155448.414000", "155448.417000", "155448.421000", "155448.424000", "155448.427000", "155448.431000", "155448.434000", "155448.438000", "155448.441000", "155448.444000", "155448.448000", "155448.451000", "155528.363000", "155528.367000", "155528.370000", "155528.374000", "155528.377000", "155528.380000", "155528.384000", "155528.387000", "155528.390000", "155528.394000", "155528.397000", "155528.415000", "155528.419000", "155528.422000", "155528.425000", "155528.429000", "155528.432000", "155528.435000", "155528.439000", "155528.442000", "155528.445000", "155528.449000", "155528.452000", "155528.456000", "155528.459000", "155528.462000", "155528.466000", "155608.364000", "155608.370000", "155608.374000", "155608.378000", "155608.382000", "155608.385000", "155608.404000", "155608.408000", "155608.411000", "155608.415000", "155608.418000", "155608.421000", "155608.424000", "155608.428000", "155608.431000", "155608.435000", "155608.438000", "155608.441000", "155608.445000", "155608.448000", "155608.451000", "155608.455000", "155608.458000", "155608.461000", "155608.464000", "155608.468000", "155648.363000", "155648.367000", "155648.371000", "155648.374000", "155648.377000", "155648.381000", "155648.384000", "155648.387000", "155648.391000", "155648.394000", "155648.397000", "155648.401000", "155648.404000", "155648.408000", "155648.411000", "155648.414000", "155648.417000", "155648.421000", "155648.424000", "155648.428000", "155648.431000", "155648.434000", "155648.438000", "155648.441000", "155648.446000", "155648.450000", "155648.454000", "155728.363000", "155728.367000", "155728.370000", "155728.374000", "155728.377000", "155728.380000", "155728.384000", "155728.387000", "155728.390000", "155728.394000", "155728.397000", "155728.401000", "155728.404000", "155728.407000", "155728.410000", "155728.414000", "155728.417000", "155728.420000", "155728.424000", "155728.427000", "155728.431000", "155728.434000", "155728.437000", "155728.441000", "155728.444000", "155728.447000", "155728.450000", "155808.362000", "155808.366000", "155808.369000", "155808.373000", "155808.376000", "155808.380000", "155808.383000", "155808.386000", "155808.389000", "155808.393000", "155808.396000", "155808.417000", "155808.420000", "155808.423000", "155808.427000", "155808.430000", "155808.433000", "155808.437000", "155808.440000", "155808.443000", "155808.447000", "155808.450000", "155808.453000", "155808.457000", "155808.460000", "155808.463000", "155808.467000", "155847.403000", "155847.406000", "155847.410000", "155847.416000", "155847.419000", "155847.423000", "155847.426000", "155847.429000", "155847.433000", "155847.436000", "155847.439000", "155847.443000", "155847.446000", "155847.450000", "155847.453000", "155847.456000", "155847.460000", "155847.463000", "155847.466000", "155847.470000", "155847.473000", "155847.477000", "155847.480000", "155847.483000", "155847.487000", "155847.490000"],
