{
  "AcquisitionMatrixPE": 104,
  "AcquisitionNumber": 1,
  "AcquisitionTime": "15:23:0.535000",
  "BandwidthPerPixelPhaseEncode": 17.17,
  "BaseResolution": 104,
  "BodyPartExamined": "BRAIN",
  "CoilCombinationMethod": "Sum of Squares",
  "ConsistencyInfo": "N4_VE11C_LATEST_20160120",
  "ConversionSoftware": "dcm2niix",
  "ConversionSoftwareVersion": "v1.0.20211006",
  "DerivedVendorReportedEchoSpacing": 0.000560011,
  "DeviceSerialNumber": "167006",
  "DwellTime": 2.1e-06,
  "EchoTime": 0.037,
  "EchoTime1": 0.037,
  "EchoTime2": 0.001,
  "EchoTrainLength": 104,
  "EffectiveEchoSpacing": 0.000560011,
  "FlipAngle": 52,
  "HeudiconvVersion": "0.5.3.post569+g418601f",
  "ImageComments": "Unaliased MB4/PE3/LB",
  "ImageOrientationPatientDICOM": [0.999081, -0.0414854, -0.010774, 0.0362855, 0.952433, -0.302579],
  "ImageOrientationText": "Tra>Cor(-17.6)>Sag(-1.3)",
  "ImageType": [
    "ORIGINAL",
    "PRIMARY",
    "P",
    "MB",
    "ND",
    "MOSAIC",
    "PHASE"
],
  "ImagingFrequency": 123.259,
  "InPlanePhaseEncodingDirectionDICOM": "COL",
  "InstitutionAddress": "Chemin Queen-Mary 4565,Montreal,District,CA,H3W 1W5",
  "InstitutionName": "IUGM",
  "InstitutionalDepartmentName": "Department",
  "MRAcquisitionType": "2D",
  "MagneticFieldStrength": 3,
  "Manufacturer": "Siemens",
  "ManufacturersModelName": "Prisma_fit",
  "MatrixCoilMode": "SENSE",
  "Modality": "MR",
  "MultibandAccelerationFactor": 4,
  "PartialFourier": 1,
  "PatientPosition": "HFS",
  "PercentPhaseFOV": 100,
  "PercentSampling": 100,
  "PhaseEncodingDirection": "j",
  "PhaseEncodingSteps": 104,
  "PhaseResolution": 1,
  "PixelBandwidth": 2290,
  "ProcedureStepDescription": "games^mario",
  "ProtocolName": "func_task-mario_run-01",
  "PulseSequenceDetails": "%CustomerSeq%\\cmrr_mbep2d_bold",
  "ReceiveCoilActiveElements": "HC1-7;NC1,2",
  "ReceiveCoilName": "HeadNeck_64",
  "ReconMatrixPE": 104,
  "RepetitionTime": 1.49,
  "SAR": 0.0388093,
  "ScanOptions": "FS",
  "ScanningSequence": "EP",
  "SequenceName": "epfid2d1_104",
  "SequenceVariant": "SK\\SS",
  "SeriesDescription": "func_task-mario_run-01",
  "SeriesNumber": 11,
  "ShimSetting": [624, -7254, -8837, 594, -1, -225, -47, -24],
  "SliceThickness": 2,
  "SliceTiming": [0, 0.7825, 0.0975, 0.8825, 0.195, 0.98, 0.2925, 1.0775, 0.3925, 1.175, 0.49, 1.2725, 0.5875, 1.3725, 0.685, 0, 0.7825, 0.0975, 0.8825, 0.195, 0.98, 0.2925, 1.0775, 0.3925, 1.175, 0.49, 1.2725, 0.5875, 1.3725, 0.685, 0, 0.7825, 0.0975, 0.8825, 0.195, 0.98, 0.2925, 1.0775, 0.3925, 1.175, 0.49, 1.2725, 0.5875, 1.3725, 0.685, 0, 0.7825, 0.0975, 0.8825, 0.195, 0.98, 0.2925, 1.0775, 0.3925, 1.175, 0.49, 1.2725, 0.5875, 1.3725, 0.685],
  "SoftwareVersions": "syngo MR E11",
  "SpacingBetweenSlices": 2,
  "StationName": "MRC35049",
  "TaskName": "mario",
  "TotalReadoutTime": 0.0576811,
  "TxRefAmp": 234.049,
  "WipMemBlock": "6d9472d3-c6c4-441d-aeca-65d95574f16a||Sequence: R016 ve11c/master r/e634e98; Dec 19 2017 11:00:25 by eja",
  "dcmmeta_affine": [
    [-1.998162031173706, 0.07257093489170074, -0.045628320425748825, 104.04368591308594],
    [0.08297087997198105, 1.9048664569854736, -0.6038208603858948, -71.93013763427734],
    [-0.021548008546233177, 0.6051588654518127, 1.906126618385315, -65.374267578125],
    [0.0, 0.0, 0.0, 1.0]
],
  "dcmmeta_reorient_transform": [
    [0.0, -1.0, 0.0, 103.0],
    [1.0, 0.0, 0.0, 0.0],
    [0.0, 0.0, 1.0, 0.0],
    [0.0, 0.0, 0.0, 1.0]
],
  "dcmmeta_shape": [104, 104, 60, 419],
  "dcmmeta_slice_dim": 2,
  "dcmmeta_version": 0.6,
  "global": {
    "const": {
      "AcquisitionMatrix": [104, 0, 0, 104],
      "AngioFlag": "N",
      "BitsAllocated": 16,
      "BitsStored": 16,
      "BodyPartExamined": "BRAIN",
      "Columns": 832,
      "EchoNumbers": 1,
      "EchoTime": 37.0,
      "EchoTrainLength": 104,
      "FlipAngle": 52.0,
      "HighBit": 15,
      "ImageOrientationPatient": [0.99908101723972, -0.0414854411231, -0.0107740041801, 0.03628546616254, 0.95243322639348, -0.3025794345409],
      "ImagePositionPatient": [-865.26529056778, -787.44109289792, 225.07839673973],
      "ImageType": [
        "ORIGINAL",
        "PRIMARY",
        "P",
        "MB",
        "ND",
        "MOSAIC"
],
      "ImagedNucleus": "1H",
      "ImagingFrequency": 123.258812,
      "InPlanePhaseEncodingDirection": "COL",
      "LargestImagePixelValue": 4095,
      "MRAcquisitionType": "2D",
      "MagneticFieldStrength": 3.0,
      "Manufacturer": "SIEMENS",
      "ManufacturerModelName": "Prisma_fit",
      "Modality": "MR",
      "NumberOfAverages": 1.0,
      "NumberOfPhaseEncodingSteps": 104,
      "PercentPhaseFieldOfView": 100.0,
      "PercentSampling": 100.0,
      "PerformedProcedureStepStartTime": "145110.560000",
      "PhotometricInterpretation": "MONOCHROME2",
      "PixelBandwidth": 2290.0,
      "PixelRepresentation": 0,
      "PixelSpacing": [2.0, 2.0],
      "ProtocolName": "func_task-mario_run-01",
      "RepetitionTime": 1490.0,
      "RescaleIntercept": -4096.0,
      "RescaleSlope": 2.0,
      "RescaleType": "US",
      "Rows": 832,
      "SAR": 0.03880930410744,
      "SamplesPerPixel": 1,
      "ScanOptions": "FS",
      "ScanningSequence": "EP",
      "SequenceName": "epfid2d1_104",
      "SequenceVariant": [
        "SK",
        "SS"
],
      "SeriesDescription": "func_task-mario_run-01",
      "SeriesNumber": 11,
      "SeriesTime": "152431.203000",
      "SliceLocation": -42.963026114862,
      "SliceThickness": 2.0,
      "SmallestImagePixelValue": 0,
      "SoftwareVersions": "syngo MR E11",
      "SpacingBetweenSlices": 2.0000000171945,
      "SpecificCharacterSet": "ISO_IR 100",
      "StudyID": "1",
      "StudyTime": "145110.402000",
      "TransmitCoilName": "Body",
      "VariableFlipAngleFlag": "N",
      "WindowCenterWidthExplanation": "Algo1",
      "dBdt": 0.0},
    "slices": {}
  },
  "time": {
    "samples": {
      "AcquisitionNumber": [1, 2, 3, 4, 5, 6, 7, 8, 9, 10, 11, 12, 13, 14, 15, 16, 17, 18, 19, 20, 21, 22, 23, 24, 25, 26, 27, 28, 29, 30, 31, 32, 33, 34, 35, 36, 37, 38, 39, 40, 41, 42, 43, 44, 45, 46, 47, 48, 49, 50, 51, 52, 53, 54, 55, 56, 57, 58, 59, 60, 61, 62, 63, 64, 65, 66, 67, 68, 69, 70, 71, 72, 73, 74, 75, 76, 77, 78, 79, 80, 81, 82, 83, 84, 85, 86, 87, 88, 89, 90, 91, 92, 93, 94, 95, 96, 97, 98, 99, 100, 101, 102, 103, 104, 105, 106, 107, 108, 109, 110, 111, 112, 113, 114, 115, 116, 117, 118, 119, 120, 121, 122, 123, 124, 125, 126, 127, 128, 129, 130, 131, 132, 133, 134, 135, 136, 137, 138, 139, 140, 141, 142, 143, 144, 145, 146, 147, 148, 149, 150, 151, 152, 153, 154, 155, 156, 157, 158, 159, 160, 161, 162, 163, 164, 165, 166, 167, 168, 169, 170, 171, 172, 173, 174, 175, 176, 177, 178, 179, 180, 181, 182, 183, 184, 185, 186, 187, 188, 189, 190, 191, 192, 193, 194, 195, 196, 197, 198, 199, 200, 201, 202, 203, 204, 205, 206, 207, 208, 209, 210, 211, 212, 213, 214, 215, 216, 217, 218, 219, 220, 221, 222, 223, 224, 225, 226, 227, 228, 229, 230, 231, 232, 233, 234, 235, 236, 237, 238, 239, 240, 241, 242, 243, 244, 245, 246, 247, 248, 249, 250, 251, 252, 253, 254, 255, 256, 257, 258, 259, 260, 261, 262, 263, 264, 265, 266, 267, 268, 269, 270, 271, 272, 273, 274, 275, 276, 277, 278, 279, 280, 281, 282, 283, 284, 285, 286, 287, 288, 289, 290, 291, 292, 293, 294, 295, 296, 297, 298, 299, 300, 301, 302, 303, 304, 305, 306, 307, 308, 309, 310, 311, 312, 313, 314, 315, 316, 317, 318, 319, 320, 321, 322, 323, 324, 325, 326, 327, 328, 329, 330, 331, 332, 333, 334, 335, 336, 337, 338, 339, 340, 341, 342, 343, 344, 345, 346, 347, 348, 349, 350, 351, 352, 353, 354, 355, 356, 357, 358, 359, 360, 361, 362, 363, 364, 365, 366, 367, 368, 369, 370, 371, 372, 373, 374, 375, 376, 377, 378, 379, 380, 381, 382, 383, 384, 385, 386, 387, 388, 389, 390, 391, 392, 393, 394, 395, 396, 397, 398, 399, 400, 401, 402, 403, 404, 405, 406, 407, 408, 409, 410, 411, 412, 413, 414, 415, 416, 417, 418, 419],
      "AcquisitionTime": ["152300.535000", "152302.025000", "152303.515000", "152305.005000", "152306.495000", "152307.985000", "152309.475000", "152310.965000", "152312.455000", "152313.945000", "152315.435000", "152316.925000", "152318.415000", "152319.905000", "152321.395000", "152322.885000", "152324.375000", "152325.865000", "152327.355000", "152328.845000", "152330.335000", "152331.825000", "152333.315000", "152334.805000", "152336.295000", "152337.785000", "152339.275000", "152340.765000", "152342.255000", "152343.745000", "152345.235000", "152346.725000", "152348.215000", "152349.705000", "152351.195000", "152352.685000", "152354.175000", "152355.665000", "152357.155000", "152358.645000", "152400.135000", "152401.625000", "152403.115000", "152404.605000", "152406.095000", "152407.585000", "152409.075000", "152410.565000", "152412.055000", "152413.545000", "152415.035000", "152416.525000", "152418.015000", "152419.505000", "152420.995000", "152422.485000", "152423.975000", "152425.465000", "152426.955000", "152428.445000", "152429.935000", "152431.425000", "152432.915000", "152434.405000", "152435.895000", "152437.385000", "152438.875000", "152440.365000", "152441.855000", "152443.345000", "152444.835000", "152446.325000", "152447.815000", "152449.305000", "152450.795000", "152452.285000", "152453.775000", "152455.265000", "152456.755000", "152458.245000", "152459.735000", "152501.225000", "152502.715000", "152504.205000", "152505.695000", "152507.185000", "152508.675000", "152510.165000", "152511.655000", "152513.145000", "152514.635000", "152516.125000", "152517.615000", "152519.105000", "152520.595000", "152522.085000", "152523.575000", "152525.065000", "152526.555000", "152528.045000", "152529.535000", "152531.025000", "152532.515000", "152534.005000", "152535.495000", "152536.985000", "152538.475000", "152539.965000", "152541.455000", "152542.945000", "152544.435000", "152545.925000", "152547.415000", "152548.905000", "152550.395000", "152551.885000", "152553.375000", "152554.865000", "152556.355000", "152557.845000", "152559.335000", "152600.825000", "152602.315000", "152603.805000", "152605.295000", "152606.785000", "152608.275000", "152609.765000", "152611.255000", "152612.745000", "152614.235000", "152615.725000", "152617.215000", "152618.705000", "152620.195000", "152621.685000", "152623.175000", "152624.665000", "152626.155000", "152627.645000", "152629.135000", "152630.625000", "152632.115000", "152633.605000", "152635.095000", "152636.585000", "152638.075000", "152639.565000", "152641.055000", "152642.545000", "152644.035000", "152645.525000", "152647.015000", "152648.505000", "152649.995000", "152651.485000", "152652.975000", "152654.465000", "152655.955000", "152657.445000", "152658.935000", "152700.425000", "152701.915000", "152703.405000", "152704.895000", "152706.385000", "152707.875000", "152709.365000", "152710.855000", "152712.345000", "152713.835000", "152715.325000", "152716.815000", "152718.305000", "152719.795000", "152721.285000", "152722.775000", "152724.265000", "152725.755000", "152727.245000", "152728.735000", "152730.225000", "152731.715000", "152733.205000", "152734.695000", "152736.185000", "152737.675000", "152739.165000", "152740.655000", "152742.145000", "152743.635000", "152745.125000", "152746.615000", "152748.105000", "152749.595000", "152751.085000", "152752.575000", "152754.065000", "152755.555000", "152757.045000", "152758.535000", "152800.025000", "152801.515000", "152803.005000", "152804.495000", "152805.985000", "152807.475000", "152808.965000", "152810.455000", "152811.945000", "152813.435000", "152814.925000", "152816.415000", "152817.905000", "152819.395000", "152820.885000", "152822.375000", "152823.865000", "152825.355000", "152826.845000", "152828.335000", "152829.825000", "152831.315000", "152832.805000", "152834.295000", "152835.785000", "152837.275000", "152838.765000", "152840.255000", "152841.745000", "152843.235000", "152844.725000", "152846.215000", "152847.705000", "152849.195000", "152850.685000", "152852.175000", "152853.665000", "152855.155000", "152856.645000", "152858.135000", "152859.625000", "152901.115000", "152902.605000", "152904.095000", "152905.585000", "152907.075000", "152908.565000", "152910.055000", "152911.545000", "152913.035000", "152914.525000", "152916.015000", "152917.505000", "152918.995000", "152920.485000", "152921.975000", "152923.465000", "152924.955000", "152926.445000", "152927.935000", "152929.425000", "152930.915000", "152932.405000", "152933.895000", "152935.385000", "152936.875000", "152938.365000", "152939.855000", "152941.345000", "152942.835000", "152944.325000", "152945.815000", "152947.305000", "152948.795000", "152950.285000", "152951.775000", "152953.265000", "152954.755000", "152956.245000", "152957.735000", "152959.225000", "153000.715000", "153002.205000", "153003.695000", "153005.185000", "153006.675000", "153008.165000", "153009.655000", "153011.145000", "153012.635000", "153014.125000", "153015.615000", "153017.105000", "153018.595000", "153020.085000", "153021.575000", "153023.065000", "153024.555000", "153026.045000", "153027.535000", "153029.025000", "153030.515000", "153032.005000", "153033.495000", "153034.985000", "153036.475000", "153037.965000", "153039.455000", "153040.945000", "153042.435000", "153043.925000", "153045.415000", "153046.905000", "153048.395000", "153049.885000", "153051.375000", "153052.865000", "153054.355000", "153055.845000", "153057.335000", "153058.825000", "153100.315000", "153101.805000", "153103.295000", "153104.785000", "153106.275000", "153107.765000", "153109.255000", "153110.745000", "153112.235000", "153113.725000", "153115.215000", "153116.705000", "153118.195000", "153119.685000", "153121.175000", "153122.665000", "153124.155000", "153125.645000", "153127.135000", "153128.625000", "153130.115000", "153131.605000", "153133.095000", "153134.585000", "153136.075000", "153137.565000", "153139.055000", "153140.545000", "153142.035000", "153143.525000", "153145.015000", "153146.505000", "153147.995000", "153149.485000", "153150.975000", "153152.465000", "153153.955000", "153155.445000", "153156.935000", "153158.425000", "153159.915000", "153201.405000", "153202.895000", "153204.385000", "153205.875000", "153207.365000", "153208.855000", "153210.345000", "153211.835000", "153213.325000", "153214.815000", "153216.305000", "153217.795000", "153219.285000", "153220.775000", "153222.265000", "153223.755000", "153225.245000", "153226.735000", "153228.225000", "153229.715000", "153231.205000", "153232.695000", "153234.185000", "153235.675000", "153237.165000", "153238.655000", "153240.145000", "153241.635000", "153243.125000", "153244.615000", "153246.105000", "153247.595000", "153249.085000", "153250.575000", "153252.065000", "153253.555000", "153255.045000", "153256.535000", "153258.025000", "153259.515000", "153301.005000", "153302.495000", "153303.985000", "153305.475000", "153306.965000", "153308.455000", "153309.945000", "153311.435000", "153312.925000", "153314.415000", "153315.905000", "153317.395000", "153318.885000", "153320.375000", "153321.865000", "153323.355000"],
      "ContentTime": ["152431.205000", "152431.208000", "152431.210000", "152431.213000", "152431.221000", "152431.224000", "152431.226000", "152431.237000", "152431.240000", "152431.242000", "152431.245000", "152431.247000", "152431.250000", "152431.252000", "152431.255000", "152431.257000", "152431.260000", "152431.262000", "152431.265000", "152431.267000", "152431.270000", "152431.272000", "152431.275000", "152431.277000", "152431.280000", "152431.282000", "152431.285000", "152431.287000", "152431.290000", "152431.292000", "152431.295000", "152431.297000", "152431.300000", "152431.302000", "152431.305000", "152431.307000", "152451.116000", "152451.119000", "152451.122000", "152451.124000", "152451.127000", "152451.129000", "152451.132000", "152451.134000", "152451.137000", "152451.139000", "152451.142000", "152451.144000", "152451.147000", "152451.149000", "152451.152000", "152451.154000", "152451.157000", "152451.159000", "152451.162000", "152451.164000", "152511.110000", "152511.113000", "152511.115000", "152511.118000", "152511.120000", "152511.123000", "152511.126000", "152511.128000", "152511.131000", "152511.133000", "152511.136000", "152511.138000", "152511.141000", "152511.143000", "152511.146000", "152511.148000", "152511.151000", "152511.153000", "152511.156000", "152511.158000", "152511.161000", "152531.110000", "152531.113000", "152531.116000", "152531.118000", "152531.121000", "152531.123000", "152531.126000", "152531.128000", "152531.131000", "152531.133000", "152531.136000", "152531.138000", "152531.141000", "152531.143000", "152531.146000", "152531.148000", "152531.151000", "152531.153000", "152531.156000", "152531.158000", "152611.152000", "152611.155000", "152611.157000", "152611.160000", "152611.162000", "152611.173000", "152611.175000", "152611.178000", "152611.180000", "152611.183000", "152611.185000", "152611.188000", "152611.190000", "152611.193000", "152611.195000", "152611.198000", "152611.200000", "152611.203000", "152611.205000", "152611.208000", "152611.210000", "152611.213000", "152611.215000", "152611.218000", "152611.220000", "152611.223000", "152611.225000", "152611.228000", "152611.230000", "152611.233000", "152651.141000", "152651.144000", "152651.146000", "152651.149000", "152651.151000", "152651.154000", "152651.156000", "152651.159000", "152651.161000", "152651.164000", "152651.166000", "152651.169000", "152651.171000", "152651.174000", "152651.177000", "152651.179000", "152651.181000", "152651.184000", "152651.187000", "152651.189000", "152651.191000", "152651.194000", "152651.197000", "152651.199000", "152651.202000", "152651.204000", "152651.207000", "152731.149000", "152731.151000", "152731.154000", "152731.156000", "152731.159000", "152731.161000", "152731.164000", "152731.166000", "152731.169000", "152731.172000", "152731.174000", "152731.177000", "152731.179000", "152731.182000", "152731.193000", "152731.196000", "152731.198000", "152731.201000", "152731.203000", "152731.206000", "152731.209000", "152731.211000", "152731.213000", "152731.216000", "152731.219000", "152731.221000", "152731.224000", "152811.146000", "152811.149000", "152811.151000", "152811.154000", "152811.156000", "152811.159000", "152811.162000", "152811.164000", "152811.166000", "152811.169000", "152811.178000", "152811.181000", "152811.183000", "152811.186000", "152811.188000", "152811.191000", "152811.193000", "152811.196000", "152811.198000", "152811.201000", "152811.204000", "152811.215000", "152811.217000", "152811.220000", "152811.222000", "152811.225000", "152811.227000", "152851.136000", "152851.139000", "152851.141000", "152851.144000", "152851.147000", "152851.149000", "152851.151000", "152851.154000", "152851.156000", "152851.159000", "152851.161000", "152851.164000", "152851.167000", "152851.169000", "152851.172000", "152851.174000", "152851.177000", "152851.179000", "152851.182000", "152851.184000", "152851.187000", "152851.189000", "152851.192000", "152851.194000", "152851.197000", "152851.199000", "152851.202000", "152931.133000", "152931.135000", "152931.138000", "152931.140000", "152931.143000", "152931.145000", "152931.148000", "152931.150000", "152931.153000", "152931.155000", "152931.158000", "152931.165000", "152931.168000", "152931.170000", "152931.173000", "152931.175000", "152931.178000", "152931.180000", "152931.183000", "152931.185000", "152931.188000", "152931.190000", "152931.193000", "152931.195000", "152931.198000", "152931.200000", "153011.136000", "153011.138000", "153011.141000", "153011.144000", "153011.146000", "153011.149000", "153011.151000", "153011.154000", "153011.156000", "153011.159000", "153011.161000", "153011.164000", "153011.166000", "153011.170000", "153011.173000", "153011.176000", "153011.178000", "153011.180000", "153011.183000", "153011.186000", "153011.188000", "153011.191000", "153011.193000", "153011.196000", "153011.198000", "153011.201000", "153011.204000", "153051.154000", "153051.157000", "153051.159000", "153051.162000", "153051.165000", "153051.167000", "153051.170000", "153051.172000", "153051.175000", "153051.177000", "153051.180000", "153051.182000", "153051.185000", "153051.187000", "153051.190000", "153051.192000", "153051.195000", "153051.198000", "153051.200000", "153051.202000", "153051.205000", "153051.208000", "153051.210000", "153051.213000", "153051.215000", "153051.218000", "153051.220000", "153131.140000", "153131.143000", "153131.146000", "153131.148000", "153131.151000", "153131.153000", "153131.156000", "153131.158000", "153131.161000", "153131.163000", "153131.166000", "153131.169000", "153131.171000", "153131.174000", "153131.176000", "153131.179000", "153131.181000", "153131.184000", "153131.186000", "153131.189000", "153131.191000", "153131.194000", "153131.197000", "153131.199000", "153131.202000", "153131.204000", "153131.207000", "153211.152000", "153211.155000", "153211.157000", "153211.160000", "153211.162000", "153211.165000", "153211.167000", "153211.170000", "153211.172000", "153211.175000", "153211.177000", "153211.180000", "153211.182000", "153211.185000", "153211.187000", "153211.190000", "153211.193000", "153211.195000", "153211.197000", "153211.200000", "153211.203000", "153211.205000", "153211.208000", "153211.210000", "153211.213000", "153211.215000", "153211.218000", "153251.140000", "153251.143000", "153251.146000", "153251.148000", "153251.151000", "153251.153000", "153251.156000", "153251.158000", "153251.161000", "153251.163000", "153251.166000", "153251.168000", "153251.171000", "153251.183000", "153251.185000", "153251.188000", "153251.190000", "153251.193000", "153251.195000", "153251.198000", "153251.200000", "153251.203000", "153251.205000", "153251.208000", "153251.210000", "153251.213000", "153251.215000", "153325.747000", "153325.750000", "153325.752000", "153325.755000", "153325.758000", "153325.760000", "153325.763000", "153325.765000", "153325.768000", "153325.809000", "153325.811000", "153325.814000", "153325.816000", "153325.819000", "153325.821000", "153325.824000", "153325.826000", "153325.829000", "153325.831000", "153325.834000", "153325.837000", "153325.839000", "153325.842000"],
      "InstanceCreationTime": ["152431.205000", "152431.208000", "152431.210000", "152431.213000", "152431.221000", "152431.224000", "152431.226000", "152431.237000", "152431.240000", "152431.242000", "152431.245000", "152431.247000", "152431.250000", "152431.252000", "152431.255000", "152431.257000", "152431.260000", "152431.262000", "152431.265000", "152431.267000", "152431.270000", "152431.272000", "152431.275000", "152431.277000", "152431.280000", "152431.282000", "152431.285000", "152431.287000", "152431.290000", "152431.292000", "152431.295000", "152431.297000", "152431.300000", "152431.302000", "152431.305000", "152431.307000", "152451.116000", "152451.119000", "152451.122000", "152451.124000", "152451.127000", "152451.129000", "152451.132000", "152451.134000", "152451.137000", "152451.139000", "152451.142000", "152451.144000", "152451.147000", "152451.149000", "152451.152000", "152451.154000", "152451.157000", "152451.159000", "152451.162000", "152451.164000", "152511.110000", "152511.113000", "152511.115000", "152511.118000", "152511.120000", "152511.123000", "152511.126000", "152511.128000", "152511.131000", "152511.133000", "152511.136000", "152511.138000", "152511.141000", "152511.143000", "152511.146000", "152511.148000", "152511.151000", "152511.153000", "152511.156000", "152511.158000", "152511.161000", "152531.110000", "152531.113000", "152531.116000", "152531.118000", "152531.121000", "152531.123000", "152531.126000", "152531.128000", "152531.131000", "152531.133000", "152531.136000", "152531.138000", "152531.141000", "152531.143000", "152531.146000", "152531.148000", "152531.151000", "152531.153000", "152531.156000", "152531.158000", "152611.152000", "152611.155000", "152611.157000", "152611.160000", "152611.162000", "152611.173000", "152611.175000", "152611.178000", "152611.180000", "152611.183000", "152611.185000", "152611.188000", "152611.190000", "152611.193000", "152611.195000", "152611.198000", "152611.200000", "152611.203000", "152611.205000", "152611.208000", "152611.210000", "152611.213000", "152611.215000", "152611.218000", "152611.220000", "152611.223000", "152611.225000", "152611.228000", "152611.230000", "152611.233000", "152651.141000", "152651.144000", "152651.146000", "152651.149000", "152651.151000", "152651.154000", "152651.156000", "152651.159000", "152651.161000", "152651.164000", "152651.166000", "152651.169000", "152651.171000", "152651.174000", "152651.177000", "152651.179000", "152651.181000", "152651.184000", "152651.187000", "152651.189000", "152651.191000", "152651.194000", "152651.197000", "152651.199000", "152651.202000", "152651.204000", "152651.207000", "152731.149000", "152731.151000", "152731.154000", "152731.156000", "152731.159000", "152731.161000", "152731.164000", "152731.166000", "152731.169000", "152731.172000", "152731.174000", "152731.177000", "152731.179000", "152731.182000", "152731.193000", "152731.196000", "152731.198000", "152731.201000", "152731.203000", "152731.206000", "152731.209000", "152731.211000", "152731.213000", "152731.216000", "152731.219000", "152731.221000", "152731.224000", "152811.146000", "152811.149000", "152811.151000", "152811.154000", "152811.156000", "152811.159000", "152811.162000", "152811.164000", "152811.166000", "152811.169000", "152811.178000", "152811.181000", "152811.183000", "152811.186000", "152811.188000", "152811.191000", "152811.193000", "152811.196000", "152811.198000", "152811.201000", "152811.204000", "152811.215000", "152811.217000", "152811.220000", "152811.222000", "152811.225000", "152811.227000", "152851.136000", "152851.139000", "152851.141000", "152851.144000", "152851.147000", "152851.149000", "152851.151000", "152851.154000", "152851.156000", "152851.159000", "152851.161000", "152851.164000", "152851.167000", "152851.169000", "152851.172000", "152851.174000", "152851.177000", "152851.179000", "152851.182000", "152851.184000", "152851.187000", "152851.189000", "152851.192000", "152851.194000", "152851.197000", "152851.199000", "152851.202000", "152931.133000", "152931.135000", "152931.138000", "152931.140000", "152931.143000", "152931.145000", "152931.148000", "152931.150000", "152931.153000", "152931.155000", "152931.158000", "152931.165000", "152931.168000", "152931.170000", "152931.173000", "152931.175000", "152931.178000", "152931.180000", "152931.183000", "152931.185000", "152931.188000", "152931.190000", "152931.193000", "152931.195000", "152931.198000", "152931.200000", "153011.136000", "153011.138000", "153011.141000", "153011.144000", "153011.146000", "153011.149000", "153011.151000", "153011.154000", "153011.156000", "153011.159000", "153011.161000", "153011.164000", "153011.166000", "153011.170000", "153011.173000", "153011.176000", "153011.178000", "153011.180000", "153011.183000", "153011.186000", "153011.188000", "153011.191000", "153011.193000", "153011.196000", "153011.198000", "153011.201000", "153011.204000", "153051.154000", "153051.157000", "153051.159000", "153051.162000", "153051.165000", "153051.167000", "153051.170000", "153051.172000", "153051.175000", "153051.177000", "153051.180000", "153051.182000", "153051.185000", "153051.187000", "153051.190000", "153051.192000", "153051.195000", "153051.198000", "153051.200000", "153051.202000", "153051.205000", "153051.208000", "153051.210000", "153051.213000", "153051.215000", "153051.218000", "153051.220000", "153131.140000", "153131.143000", "153131.146000", "153131.148000", "153131.151000", "153131.153000", "153131.156000", "153131.158000", "153131.161000", "153131.163000", "153131.166000", "153131.169000", "153131.171000", "153131.174000", "153131.176000", "153131.179000", "153131.181000", "153131.184000", "153131.186000", "153131.189000", "153131.191000", "153131.194000", "153131.197000", "153131.199000", "153131.202000", "153131.204000", "153131.207000", "153211.152000", "153211.155000", "153211.157000", "153211.160000", "153211.162000", "153211.165000", "153211.167000", "153211.170000", "153211.172000", "153211.175000", "153211.177000", "153211.180000", "153211.182000", "153211.185000", "153211.187000", "153211.190000", "153211.193000", "153211.195000", "153211.197000", "153211.200000", "153211.203000", "153211.205000", "153211.208000", "153211.210000", "153211.213000", "153211.215000", "153211.218000", "153251.140000", "153251.143000", "153251.146000", "153251.148000", "153251.151000", "153251.153000", "153251.156000", "153251.158000", "153251.161000", "153251.163000", "153251.166000", "153251.168000", "153251.171000", "153251.183000", "153251.185000", "153251.188000", "153251.190000", "153251.193000", "153251.195000", "153251.198000", "153251.200000", "153251.203000", "153251.205000", "153251.208000", "153251.210000", "153251.213000", "153251.215000", "153325.747000", "153325.750000", "153325.752000", "153325.755000", "153325.758000", "153325.760000", "153325.763000", "153325.765000", "153325.768000", "153325.809000", "153325.811000", "153325.814000", "153325.816000", "153325.819000", "153325.821000", "153325.824000", "153325.826000", "153325.829000", "153325.831000", "153325.834000", "153325.837000", "153325.839000", "153325.842000"],
