{
  "AcquisitionMatrixPE": 104,
  "AcquisitionNumber": 1,
  "AcquisitionTime": "15:35:5.967500",
  "BandwidthPerPixelPhaseEncode": 17.17,
  "BaseResolution": 104,
  "BodyPartExamined": "BRAIN",
  "CoilCombinationMethod": "Sum of Squares",
  "ConsistencyInfo": "N4_VE11C_LATEST_20160120",
  "ConversionSoftware": "dcm2niix",
  "ConversionSoftwareVersion": "v1.0.20211006",
  "DerivedVendorReportedEchoSpacing": 0.000560011,
  "DeviceSerialNumber": "167006",
  "DwellTime": 2.1e-06,
  "EchoTime": 0.037,
  "EchoTrainLength": 104,
  "EffectiveEchoSpacing": 0.000560011,
  "FlipAngle": 52,
  "HeudiconvVersion": "0.5.3.post569+g418601f",
  "ImageComments": "Unaliased MB4/PE3/LB",
  "ImageOrientationPatientDICOM": [0.999081, -0.0414854, -0.010774, 0.0362855, 0.952433, -0.302579],
  "ImageOrientationText": "Tra>Cor(-17.6)>Sag(-1.3)",
  "ImageType": [
    "ORIGINAL",
    "PRIMARY",
    "M",
    "MB",
    "ND",
    "MOSAIC"
],
  "ImagingFrequency": 123.259,
  "InPlanePhaseEncodingDirectionDICOM": "COL",
  "InstitutionAddress": "Chemin Queen-Mary 4565,Montreal,District,CA,H3W 1W5",
  "InstitutionName": "IUGM",
  "InstitutionalDepartmentName": "Department",
  "MRAcquisitionType": "2D",
  "MagneticFieldStrength": 3,
  "Manufacturer": "Siemens",
  "ManufacturersModelName": "Prisma_fit",
  "MatrixCoilMode": "SENSE",
  "Modality": "MR",
  "MultibandAccelerationFactor": 4,
  "PartialFourier": 1,
  "PatientPosition": "HFS",
  "PercentPhaseFOV": 100,
  "PercentSampling": 100,
  "PhaseEncodingDirection": "j",
  "PhaseEncodingSteps": 104,
  "PhaseResolution": 1,
  "PixelBandwidth": 2290,
  "ProcedureStepDescription": "games^mario",
  "ProtocolName": "func_task-mario_run-02",
  "PulseSequenceDetails": "%CustomerSeq%\\cmrr_mbep2d_bold",
  "ReceiveCoilActiveElements": "HC1-7;NC1,2",
  "ReceiveCoilName": "HeadNeck_64",
  "ReconMatrixPE": 104,
  "RepetitionTime": 1.49,
  "SAR": 0.0388093,
  "ScanOptions": "FS",
  "ScanningSequence": "EP",
  "SequenceName": "epfid2d1_104",
  "SequenceVariant": "SK\\SS",
  "SeriesDescription": "func_task-mario_run-02",
  "SeriesNumber": 13,
  "ShimSetting": [624, -7254, -8837, 594, -1, -225, -47, -24],
  "SliceThickness": 2,
  "SliceTiming": [0, 0.7825, 0.0975, 0.88, 0.195, 0.98, 0.2925, 1.0775, 0.39, 1.175, 0.49, 1.2725, 0.5875, 1.37, 0.685, 0, 0.7825, 0.0975, 0.88, 0.195, 0.98, 0.2925, 1.0775, 0.39, 1.175, 0.49, 1.2725, 0.5875, 1.37, 0.685, 0, 0.7825, 0.0975, 0.88, 0.195, 0.98, 0.2925, 1.0775, 0.39, 1.175, 0.49, 1.2725, 0.5875, 1.37, 0.685, 0, 0.7825, 0.0975, 0.88, 0.195, 0.98, 0.2925, 1.0775, 0.39, 1.175, 0.49, 1.2725, 0.5875, 1.37, 0.685],
  "SoftwareVersions": "syngo MR E11",
  "SpacingBetweenSlices": 2,
  "StationName": "MRC35049",
  "TaskName": "mario",
  "TotalReadoutTime": 0.0576811,
  "TxRefAmp": 234.049,
  "WipMemBlock": "ff7466d3-94b8-45b4-a208-03ec23862d7e||Sequence: R016 ve11c/master r/e634e98; Dec 19 2017 11:00:25 by eja",
  "dcmmeta_affine": [
    [-1.998162031173706, 0.07257093489170074, -0.045628320425748825, 104.04368591308594],
    [0.08297087997198105, 1.9048664569854736, -0.6038208603858948, -71.93013763427734],
    [-0.021548008546233177, 0.6051588654518127, 1.906126618385315, -65.374267578125],
    [0.0, 0.0, 0.0, 1.0]
],
  "dcmmeta_reorient_transform": [
    [0.0, -1.0, 0.0, 103.0],
    [1.0, 0.0, 0.0, 0.0],
    [0.0, 0.0, 1.0, 0.0],
    [0.0, 0.0, 0.0, 1.0]
],
  "dcmmeta_shape": [104, 104, 60, 432],
  "dcmmeta_slice_dim": 2,
  "dcmmeta_version": 0.6,
  "global": {
    "const": {
      "AcquisitionMatrix": [104, 0, 0, 104],
      "AngioFlag": "N",
      "BitsAllocated": 16,
      "BitsStored": 16,
      "BodyPartExamined": "BRAIN",
      "Columns": 832,
      "EchoNumbers": 1,
      "EchoTime": 37.0,
      "EchoTrainLength": 104,
      "FlipAngle": 52.0,
      "HighBit": 15,
      "ImageOrientationPatient": [0.99908101723972, -0.0414854411231, -0.0107740041801, 0.03628546616254, 0.95243322639348, -0.3025794345409],
      "ImagePositionPatient": [-865.26529056778, -787.44109289792, 225.07839673973],
      "ImageType": [
        "ORIGINAL",
        "PRIMARY",
        "M",
        "MB",
        "ND",
        "MOSAIC"
],
      "ImagedNucleus": "1H",
      "ImagingFrequency": 123.258819,
      "InPlanePhaseEncodingDirection": "COL",
      "MRAcquisitionType": "2D",
      "MagneticFieldStrength": 3.0,
      "Manufacturer": "SIEMENS",
      "ManufacturerModelName": "Prisma_fit",
      "Modality": "MR",
      "NumberOfAverages": 1.0,
      "NumberOfPhaseEncodingSteps": 104,
      "PercentPhaseFieldOfView": 100.0,
      "PercentSampling": 100.0,
      "PerformedProcedureStepStartTime": "145110.560000",
      "PhotometricInterpretation": "MONOCHROME2",
      "PixelBandwidth": 2290.0,
      "PixelRepresentation": 0,
      "PixelSpacing": [2.0, 2.0],
      "ProtocolName": "func_task-mario_run-02",
      "RepetitionTime": 1490.0,
      "Rows": 832,
      "SAR": 0.03880930410744,
      "SamplesPerPixel": 1,
      "ScanOptions": "FS",
      "ScanningSequence": "EP",
      "SequenceName": "epfid2d1_104",
      "SequenceVariant": [
        "SK",
        "SS"
],
      "SeriesDescription": "func_task-mario_run-02",
      "SeriesNumber": 13,
      "SeriesTime": "153610.729000",
      "SliceLocation": -42.963026114862,
      "SliceThickness": 2.0,
      "SmallestImagePixelValue": 0,
      "SoftwareVersions": "syngo MR E11",
      "SpacingBetweenSlices": 2.0000000171945,
      "SpecificCharacterSet": "ISO_IR 100",
      "StudyID": "1",
      "StudyTime": "145110.402000",
      "TransmitCoilName": "Body",
      "VariableFlipAngleFlag": "N",
      "WindowCenterWidthExplanation": "Algo1",
      "dBdt": 0.0},
    "slices": {}
  },
  "time": {
    "samples": {
      "AcquisitionNumber": [1, 2, 3, 4, 5, 6, 7, 8, 9, 10, 11, 12, 13, 14, 15, 16, 17, 18, 19, 20, 21, 22, 23, 24, 25, 26, 27, 28, 29, 30, 31, 32, 33, 34, 35, 36, 37, 38, 39, 40, 41, 42, 43, 44, 45, 46, 47, 48, 49, 50, 51, 52, 53, 54, 55, 56, 57, 58, 59, 60, 61, 62, 63, 64, 65, 66, 67, 68, 69, 70, 71, 72, 73, 74, 75, 76, 77, 78, 79, 80, 81, 82, 83, 84, 85, 86, 87, 88, 89, 90, 91, 92, 93, 94, 95, 96, 97, 98, 99, 100, 101, 102, 103, 104, 105, 106, 107, 108, 109, 110, 111, 112, 113, 114, 115, 116, 117, 118, 119, 120, 121, 122, 123, 124, 125, 126, 127, 128, 129, 130, 131, 132, 133, 134, 135, 136, 137, 138, 139, 140, 141, 142, 143, 144, 145, 146, 147, 148, 149, 150, 151, 152, 153, 154, 155, 156, 157, 158, 159, 160, 161, 162, 163, 164, 165, 166, 167, 168, 169, 170, 171, 172, 173, 174, 175, 176, 177, 178, 179, 180, 181, 182, 183, 184, 185, 186, 187, 188, 189, 190, 191, 192, 193, 194, 195, 196, 197, 198, 199, 200, 201, 202, 203, 204, 205, 206, 207, 208, 209, 210, 211, 212, 213, 214, 215, 216, 217, 218, 219, 220, 221, 222, 223, 224, 225, 226, 227, 228, 229, 230, 231, 232, 233, 234, 235, 236, 237, 238, 239, 240, 241, 242, 243, 244, 245, 246, 247, 248, 249, 250, 251, 252, 253, 254, 255, 256, 257, 258, 259, 260, 261, 262, 263, 264, 265, 266, 267, 268, 269, 270, 271, 272, 273, 274, 275, 276, 277, 278, 279, 280, 281, 282, 283, 284, 285, 286, 287, 288, 289, 290, 291, 292, 293, 294, 295, 296, 297, 298, 299, 300, 301, 302, 303, 304, 305, 306, 307, 308, 309, 310, 311, 312, 313, 314, 315, 316, 317, 318, 319, 320, 321, 322, 323, 324, 325, 326, 327, 328, 329, 330, 331, 332, 333, 334, 335, 336, 337, 338, 339, 340, 341, 342, 343, 344, 345, 346, 347, 348, 349, 350, 351, 352, 353, 354, 355, 356, 357, 358, 359, 360, 361, 362, 363, 364, 365, 366, 367, 368, 369, 370, 371, 372, 373, 374, 375, 376, 377, 378, 379, 380, 381, 382, 383, 384, 385, 386, 387, 388, 389, 390, 391, 392, 393, 394, 395, 396, 397, 398, 399, 400, 401, 402, 403, 404, 405, 406, 407, 408, 409, 410, 411, 412, 413, 414, 415, 416, 417, 418, 419, 420, 421, 422, 423, 424, 425, 426, 427, 428, 429, 430, 431, 432],
      "AcquisitionTime": ["153505.967500", "153507.457500", "153508.947500", "153510.437500", "153511.927500", "153513.417500", "153514.907500", "153516.397500", "153517.887500", "153519.377500", "153520.867500", "153522.357500", "153523.847500", "153525.337500", "153526.827500", "153528.317500", "153529.807500", "153531.297500", "153532.787500", "153534.277500", "153535.767500", "153537.257500", "153538.747500", "153540.237500", "153541.727500", "153543.217500", "153544.707500", "153546.197500", "153547.687500", "153549.177500", "153550.667500", "153552.157500", "153553.647500", "153555.137500", "153556.627500", "153558.117500", "153559.607500", "153601.097500", "153602.587500", "153604.077500", "153605.567500", "153607.057500", "153608.547500", "153610.037500", "153611.527500", "153613.017500", "153614.507500", "153615.997500", "153617.487500", "153618.977500", "153620.467500", "153621.957500", "153623.447500", "153624.937500", "153626.427500", "153627.917500", "153629.407500", "153630.897500", "153632.387500", "153633.877500", "153635.367500", "153636.857500", "153638.347500", "153639.837500", "153641.327500", "153642.817500", "153644.307500", "153645.797500", "153647.287500", "153648.777500", "153650.267500", "153651.757500", "153653.247500", "153654.737500", "153656.227500", "153657.717500", "153659.207500", "153700.697500", "153702.187500", "153703.677500", "153705.167500", "153706.657500", "153708.147500", "153709.637500", "153711.127500", "153712.617500", "153714.107500", "153715.597500", "153717.087500", "153718.577500", "153720.067500", "153721.557500", "153723.047500", "153724.537500", "153726.027500", "153727.517500", "153729.007500", "153730.497500", "153731.987500", "153733.477500", "153734.967500", "153736.457500", "153737.947500", "153739.437500", "153740.927500", "153742.417500", "153743.907500", "153745.397500", "153746.887500", "153748.377500", "153749.867500", "153751.357500", "153752.847500", "153754.337500", "153755.827500", "153757.317500", "153758.807500", "153800.297500", "153801.787500", "153803.277500", "153804.767500", "153806.257500", "153807.747500", "153809.237500", "153810.727500", "153812.217500", "153813.707500", "153815.197500", "153816.687500", "153818.177500", "153819.667500", "153821.157500", "153822.647500", "153824.137500", "153825.627500", "153827.117500", "153828.607500", "153830.097500", "153831.587500", "153833.077500", "153834.567500", "153836.057500", "153837.547500", "153839.037500", "153840.527500", "153842.017500", "153843.507500", "153844.997500", "153846.487500", "153847.977500", "153849.467500", "153850.957500", "153852.447500", "153853.937500", "153855.427500", "153856.917500", "153858.407500", "153859.897500", "153901.387500", "153902.877500", "153904.367500", "153905.857500", "153907.347500", "153908.837500", "153910.327500", "153911.817500", "153913.307500", "153914.797500", "153916.287500", "153917.777500", "153919.267500", "153920.757500", "153922.247500", "153923.737500", "153925.227500", "153926.717500", "153928.207500", "153929.697500", "153931.187500", "153932.677500", "153934.167500", "153935.657500", "153937.147500", "153938.637500", "153940.127500", "153941.617500", "153943.107500", "153944.597500", "153946.087500", "153947.577500", "153949.067500", "153950.557500", "153952.047500", "153953.537500", "153955.027500", "153956.517500", "153958.007500", "153959.497500", "154000.987500", "154002.477500", "154003.967500", "154005.457500", "154006.947500", "154008.437500", "154009.927500", "154011.417500", "154012.907500", "154014.397500", "154015.887500", "154017.377500", "154018.867500", "154020.357500", "154021.847500", "154023.337500", "154024.827500", "154026.317500", "154027.807500", "154029.297500", "154030.787500", "154032.277500", "154033.767500", "154035.257500", "154036.747500", "154038.237500", "154039.727500", "154041.217500", "154042.707500", "154044.197500", "154045.687500", "154047.177500", "154048.667500", "154050.157500", "154051.647500", "154053.137500", "154054.627500", "154056.117500", "154057.607500", "154059.097500", "154100.587500", "154102.077500", "154103.567500", "154105.057500", "154106.547500", "154108.037500", "154109.527500", "154111.017500", "154112.507500", "154113.997500", "154115.487500", "154116.977500", "154118.467500", "154119.957500", "154121.447500", "154122.937500", "154124.427500", "154125.917500", "154127.407500", "154128.897500", "154130.387500", "154131.877500", "154133.367500", "154134.857500", "154136.347500", "154137.837500", "154139.327500", "154140.817500", "154142.307500", "154143.797500", "154145.287500", "154146.777500", "154148.267500", "154149.757500", "154151.247500", "154152.737500", "154154.227500", "154155.717500", "154157.207500", "154158.697500", "154200.187500", "154201.677500", "154203.167500", "154204.657500", "154206.147500", "154207.637500", "154209.127500", "154210.617500", "154212.107500", "154213.597500", "154215.087500", "154216.577500", "154218.067500", "154219.557500", "154221.047500", "154222.537500", "154224.027500", "154225.517500", "154227.007500", "154228.497500", "154229.987500", "154231.477500", "154232.967500", "154234.457500", "154235.947500", "154237.437500", "154238.927500", "154240.417500", "154241.907500", "154243.397500", "154244.887500", "154246.377500", "154247.867500", "154249.357500", "154250.847500", "154252.337500", "154253.827500", "154255.317500", "154256.807500", "154258.297500", "154259.787500", "154301.277500", "154302.767500", "154304.257500", "154305.747500", "154307.237500", "154308.727500", "154310.217500", "154311.707500", "154313.197500", "154314.687500", "154316.177500", "154317.667500", "154319.157500", "154320.647500", "154322.137500", "154323.627500", "154325.117500", "154326.607500", "154328.097500", "154329.587500", "154331.077500", "154332.567500", "154334.057500", "154335.547500", "154337.037500", "154338.527500", "154340.017500", "154341.507500", "154342.997500", "154344.487500", "154345.977500", "154347.467500", "154348.957500", "154350.447500", "154351.937500", "154353.427500", "154354.917500", "154356.407500", "154357.897500", "154359.387500", "154400.877500", "154402.367500", "154403.857500", "154405.347500", "154406.837500", "154408.327500", "154409.817500", "154411.307500", "154412.797500", "154414.287500", "154415.777500", "154417.267500", "154418.757500", "154420.247500", "154421.737500", "154423.227500", "154424.717500", "154426.207500", "154427.697500", "154429.187500", "154430.677500", "154432.167500", "154433.657500", "154435.147500", "154436.637500", "154438.127500", "154439.617500", "154441.107500", "154442.597500", "154444.087500", "154445.577500", "154447.067500", "154448.557500", "154450.047500", "154451.537500", "154453.027500", "154454.517500", "154456.007500", "154457.497500", "154458.987500", "154500.477500", "154501.967500", "154503.457500", "154504.947500", "154506.437500", "154507.927500", "154509.417500", "154510.907500", "154512.397500", "154513.887500", "154515.377500", "154516.867500", "154518.357500", "154519.847500", "154521.337500", "154522.827500", "154524.317500", "154525.807500", "154527.297500", "154528.787500", "154530.277500", "154531.767500", "154533.257500", "154534.747500", "154536.237500", "154537.727500", "154539.217500", "154540.707500", "154542.197500", "154543.687500", "154545.177500", "154546.667500", "154548.157500"],
      "ContentTime": ["153610.732000", "153610.735000", "153610.739000", "153610.742000", "153610.745000", "153610.749000", "153610.766000", "153610.769000", "153610.773000", "153610.776000", "153630.705000", "153630.709000", "153630.712000", "153630.715000", "153630.719000", "153630.722000", "153630.725000", "153630.728000", "153630.732000", "153630.735000", "153630.738000", "153630.742000", "153630.745000", "153630.748000", "153630.752000", "153630.755000", "153630.758000", "153630.762000", "153630.765000", "153630.768000", "153650.705000", "153650.709000", "153650.712000", "153650.715000", "153650.719000", "153650.722000", "153650.725000", "153650.729000", "153650.732000", "153650.735000", "153650.738000", "153650.742000", "153650.745000", "153650.748000", "153650.752000", "153650.755000", "153650.758000", "153650.762000", "153650.765000", "153650.768000", "153710.705000", "153710.709000", "153710.712000", "153710.715000", "153710.719000", "153710.722000", "153710.725000", "153710.728000", "153710.732000", "153710.736000", "153710.739000", "153710.742000", "153710.745000", "153710.749000", "153710.752000", "153710.755000", "153710.759000", "153710.762000", "153710.765000", "153710.769000", "153730.705000", "153730.709000", "153730.712000", "153730.715000", "153730.719000", "153730.722000", "153730.725000", "153730.729000", "153730.732000", "153730.736000", "153730.739000", "153730.742000", "153730.746000", "153730.749000", "153730.752000", "153730.756000", "153730.759000", "153730.763000", "153730.766000", "153730.769000", "153730.773000", "153810.705000", "153810.709000", "153810.726000", "153810.729000", "153810.732000", "153810.736000", "153810.739000", "153810.742000", "153810.746000", "153810.762000", "153810.765000", "153810.768000", "153810.772000", "153810.775000", "153810.778000", "153810.782000", "153810.785000", "153810.788000", "153810.798000", "153810.801000", "153810.804000", "153810.819000", "153810.822000", "153810.826000", "153810.829000", "153810.832000", "153810.836000", "153810.839000", "153810.842000", "153810.845000", "153810.849000", "153810.852000", "153850.705000", "153850.709000", "153850.712000", "153850.715000", "153850.719000", "153850.722000", "153850.726000", "153850.729000", "153850.732000", "153850.735000", "153850.739000", "153850.742000", "153850.745000", "153850.749000", "153850.752000", "153850.756000", "153850.759000", "153850.762000", "153850.766000", "153850.769000", "153850.772000", "153850.776000", "153850.779000", "153850.783000", "153850.786000", "153850.789000", "153850.792000", "153930.705000", "153930.709000", "153930.712000", "153930.715000", "153930.719000", "153930.722000", "153930.726000", "153930.729000", "153930.732000", "153930.736000", "153930.739000", "153930.742000", "153930.746000", "153930.749000", "153930.753000", "153930.756000", "153930.759000", "153930.763000", "153930.766000", "153930.769000", "153930.773000", "153930.776000", "153930.779000", "153930.783000", "153930.786000", "153930.789000", "153930.793000", "154010.705000", "154010.709000", "154010.713000", "154010.716000", "154010.719000", "154010.723000", "154010.726000", "154010.729000", "154010.733000", "154010.736000", "154010.757000", "154010.760000", "154010.764000", "154010.768000", "154010.772000", "154010.776000", "154010.780000", "154010.784000", "154010.788000", "154010.792000", "154010.795000", "154010.799000", "154010.802000", "154010.806000", "154010.809000", "154010.812000", "154050.705000", "154050.709000", "154050.712000", "154050.715000", "154050.729000", "154050.732000", "154050.736000", "154050.739000", "154050.742000", "154050.746000", "154050.749000", "154050.753000", "154050.756000", "154050.759000", "154050.763000", "154050.766000", "154050.769000", "154050.773000", "154050.776000", "154050.779000", "154050.783000", "154050.786000", "154050.790000", "154050.793000", "154050.796000", "154050.799000", "154050.803000", "154130.705000", "154130.709000", "154130.720000", "154130.723000", "154130.726000", "154130.730000", "154130.733000", "154130.736000", "154130.740000", "154130.743000", "154130.746000", "154130.750000", "154130.753000", "154130.756000", "154130.760000", "154130.763000", "154130.766000", "154130.770000", "154130.773000", "154130.776000", "154130.780000", "154130.783000", "154130.786000", "154130.790000", "154130.793000", "154130.796000", "154130.800000", "154210.705000", "154210.709000", "154210.712000", "154210.716000", "154210.719000", "154210.722000", "154210.726000", "154210.729000", "154210.732000", "154210.736000", "154210.739000", "154210.743000", "154210.746000", "154210.749000", "154210.753000", "154210.756000", "154210.759000", "154210.771000", "154210.774000", "154210.777000", "154210.781000", "154210.784000", "154210.787000", "154210.791000", "154210.794000", "154210.797000", "154210.801000", "154250.705000", "154250.709000", "154250.712000", "154250.715000", "154250.719000", "154250.722000", "154250.726000", "154250.729000", "154250.732000", "154250.736000", "154250.739000", "154250.742000", "154250.746000", "154250.749000", "154250.752000", "154250.756000", "154250.777000", "154250.780000", "154250.783000", "154250.787000", "154250.790000", "154250.793000", "154250.797000", "154250.800000", "154250.803000", "154250.807000", "154250.810000", "154330.705000", "154330.709000", "154330.712000", "154330.716000", "154330.719000", "154330.722000", "154330.726000", "154330.729000", "154330.732000", "154330.736000", "154330.739000", "154330.742000", "154330.746000", "154330.749000", "154330.753000", "154330.756000", "154330.759000", "154330.762000", "154330.766000", "154330.769000", "154330.773000", "154330.776000", "154330.779000", "154330.783000", "154330.786000", "154330.789000", "154330.793000", "154410.705000", "154410.709000", "154410.712000", "154410.716000", "154410.719000", "154410.722000", "154410.726000", "154410.729000", "154410.733000", "154410.736000", "154410.739000", "154410.743000", "154410.746000", "154410.750000", "154410.753000", "154410.756000", "154410.760000", "154410.763000", "154410.766000", "154410.769000", "154410.773000", "154410.776000", "154410.780000", "154410.783000", "154410.786000", "154410.789000", "154410.793000", "154450.705000", "154450.709000", "154450.712000", "154450.716000", "154450.719000", "154450.724000", "154450.727000", "154450.731000", "154450.734000", "154450.737000", "154450.741000", "154450.744000", "154450.747000", "154450.751000", "154450.755000", "154450.758000", "154450.761000", "154450.764000", "154450.768000", "154450.771000", "154450.774000", "154450.778000", "154450.781000", "154450.784000", "154450.788000", "154450.791000", "154530.705000", "154530.709000", "154530.712000", "154530.716000", "154530.719000", "154530.722000", "154530.726000", "154530.729000", "154530.732000", "154530.735000", "154530.739000", "154530.742000", "154530.746000", "154530.749000", "154530.752000", "154530.756000", "154530.759000", "154530.762000", "154530.766000", "154530.822000", "154530.826000", "154530.829000", "154530.833000", "154530.836000", "154530.839000", "154530.842000", "154530.846000", "154551.098000", "154551.102000", "154551.105000", "154551.109000", "154551.112000", "154551.115000", "154551.119000", "154551.122000", "154551.125000", "154551.128000", "154551.132000", "154551.135000", "154551.139000", "154551.142000"],
      "InstanceCreationTime": ["153610.732000", "153610.735000", "153610.739000", "153610.742000", "153610.745000", "153610.749000", "153610.766000", "153610.769000", "153610.773000", "153610.776000", "153630.705000", "153630.709000", "153630.712000", "153630.715000", "153630.719000", "153630.722000", "153630.725000", "153630.728000", "153630.732000", "153630.735000", "153630.738000", "153630.742000", "153630.745000", "153630.748000", "153630.752000", "153630.755000", "153630.758000", "153630.762000", "153630.765000", "153630.768000", "153650.705000", "153650.709000", "153650.712000", "153650.715000", "153650.719000", "153650.722000", "153650.725000", "153650.729000", "153650.732000", "153650.735000", "153650.738000", "153650.742000", "153650.745000", "153650.748000", "153650.752000", "153650.755000", "153650.758000", "153650.762000", "153650.765000", "153650.768000", "153710.705000", "153710.709000", "153710.712000", "153710.715000", "153710.719000", "153710.722000", "153710.725000", "153710.728000", "153710.732000", "153710.736000", "153710.739000", "153710.742000", "153710.745000", "153710.749000", "153710.752000", "153710.755000", "153710.759000", "153710.762000", "153710.765000", "153710.769000", "153730.705000", "153730.709000", "153730.712000", "153730.715000", "153730.719000", "153730.722000", "153730.725000", "153730.729000", "153730.732000", "153730.736000", "153730.739000", "153730.742000", "153730.746000", "153730.749000", "153730.752000", "153730.756000", "153730.759000", "153730.763000", "153730.766000", "153730.769000", "153730.773000", "153810.705000", "153810.709000", "153810.726000", "153810.729000", "153810.732000", "153810.736000", "153810.739000", "153810.742000", "153810.746000", "153810.762000", "153810.765000", "153810.768000", "153810.772000", "153810.775000", "153810.778000", "153810.782000", "153810.785000", "153810.788000", "153810.798000", "153810.801000", "153810.804000", "153810.819000", "153810.822000", "153810.826000", "153810.829000", "153810.832000", "153810.836000", "153810.839000", "153810.842000", "153810.845000", "153810.849000", "153810.852000", "153850.705000", "153850.709000", "153850.712000", "153850.715000", "153850.719000", "153850.722000", "153850.726000", "153850.729000", "153850.732000", "153850.735000", "153850.739000", "153850.742000", "153850.745000", "153850.749000", "153850.752000", "153850.756000", "153850.759000", "153850.762000", "153850.766000", "153850.769000", "153850.772000", "153850.776000", "153850.779000", "153850.783000", "153850.786000", "153850.789000", "153850.792000", "153930.705000", "153930.709000", "153930.712000", "153930.715000", "153930.719000", "153930.722000", "153930.726000", "153930.729000", "153930.732000", "153930.736000", "153930.739000", "153930.742000", "153930.746000", "153930.749000", "153930.753000", "153930.756000", "153930.759000", "153930.763000", "153930.766000", "153930.769000", "153930.773000", "153930.776000", "153930.779000", "153930.783000", "153930.786000", "153930.789000", "153930.793000", "154010.705000", "154010.709000", "154010.713000", "154010.716000", "154010.719000", "154010.723000", "154010.726000", "154010.729000", "154010.733000", "154010.736000", "154010.757000", "154010.760000", "154010.764000", "154010.768000", "154010.772000", "154010.776000", "154010.780000", "154010.784000", "154010.788000", "154010.792000", "154010.795000", "154010.799000", "154010.802000", "154010.806000", "154010.809000", "154010.812000", "154050.705000", "154050.709000", "154050.712000", "154050.715000", "154050.729000", "154050.732000", "154050.736000", "154050.739000", "154050.742000", "154050.746000", "154050.749000", "154050.753000", "154050.756000", "154050.759000", "154050.763000", "154050.766000", "154050.769000", "154050.773000", "154050.776000", "154050.779000", "154050.783000", "154050.786000", "154050.790000", "154050.793000", "154050.796000", "154050.799000", "154050.803000", "154130.705000", "154130.709000", "154130.720000", "154130.723000", "154130.726000", "154130.730000", "154130.733000", "154130.736000", "154130.740000", "154130.743000", "154130.746000", "154130.750000", "154130.753000", "154130.756000", "154130.760000", "154130.763000", "154130.766000", "154130.770000", "154130.773000", "154130.776000", "154130.780000", "154130.783000", "154130.786000", "154130.790000", "154130.793000", "154130.796000", "154130.800000", "154210.705000", "154210.709000", "154210.712000", "154210.716000", "154210.719000", "154210.722000", "154210.726000", "154210.729000", "154210.732000", "154210.736000", "154210.739000", "154210.743000", "154210.746000", "154210.749000", "154210.753000", "154210.756000", "154210.759000", "154210.771000", "154210.774000", "154210.777000", "154210.781000", "154210.784000", "154210.787000", "154210.791000", "154210.794000", "154210.797000", "154210.801000", "154250.705000", "154250.709000", "154250.712000", "154250.715000", "154250.719000", "154250.722000", "154250.726000", "154250.729000", "154250.732000", "154250.736000", "154250.739000", "154250.742000", "154250.746000", "154250.749000", "154250.752000", "154250.756000", "154250.777000", "154250.780000", "154250.783000", "154250.787000", "154250.790000", "154250.793000", "154250.797000", "154250.800000", "154250.803000", "154250.807000", "154250.810000", "154330.705000", "154330.709000", "154330.712000", "154330.716000", "154330.719000", "154330.722000", "154330.726000", "154330.729000", "154330.732000", "154330.736000", "154330.739000", "154330.742000", "154330.746000", "154330.749000", "154330.753000", "154330.756000", "154330.759000", "154330.762000", "154330.766000", "154330.769000", "154330.773000", "154330.776000", "154330.779000", "154330.783000", "154330.786000", "154330.789000", "154330.793000", "154410.705000", "154410.709000", "154410.712000", "154410.716000", "154410.719000", "154410.722000", "154410.726000", "154410.729000", "154410.733000", "154410.736000", "154410.739000", "154410.743000", "154410.746000", "154410.750000", "154410.753000", "154410.756000", "154410.760000", "154410.763000", "154410.766000", "154410.769000", "154410.773000", "154410.776000", "154410.780000", "154410.783000", "154410.786000", "154410.789000", "154410.793000", "154450.705000", "154450.709000", "154450.712000", "154450.716000", "154450.719000", "154450.724000", "154450.727000", "154450.731000", "154450.734000", "154450.737000", "154450.741000", "154450.744000", "154450.747000", "154450.751000", "154450.755000", "154450.758000", "154450.761000", "154450.764000", "154450.768000", "154450.771000", "154450.774000", "154450.778000", "154450.781000", "154450.784000", "154450.788000", "154450.791000", "154530.705000", "154530.709000", "154530.712000", "154530.716000", "154530.719000", "154530.722000", "154530.726000", "154530.729000", "154530.732000", "154530.735000", "154530.739000", "154530.742000", "154530.746000", "154530.749000", "154530.752000", "154530.756000", "154530.759000", "154530.762000", "154530.766000", "154530.822000", "154530.826000", "154530.829000", "154530.833000", "154530.836000", "154530.839000", "154530.842000", "154530.846000", "154551.098000", "154551.102000", "154551.105000", "154551.109000", "154551.112000", "154551.115000", "154551.119000", "154551.122000", "154551.125000", "154551.128000", "154551.132000", "154551.135000", "154551.139000", "154551.142000"],
