{
  "AcquisitionMatrixPE": 104,
  "AcquisitionNumber": 1,
  "AcquisitionTime": "15:35:5.967500",
  "BandwidthPerPixelPhaseEncode": 17.17,
  "BaseResolution": 104,
  "BodyPartExamined": "BRAIN",
  "CoilCombinationMethod": "Sum of Squares",
  "ConsistencyInfo": "N4_VE11C_LATEST_20160120",
  "ConversionSoftware": "dcm2niix",
  "ConversionSoftwareVersion": "v1.0.20211006",
  "DerivedVendorReportedEchoSpacing": 0.000560011,
  "DeviceSerialNumber": "167006",
  "DwellTime": 2.1e-06,
  "EchoTime": 0.037,
  "EchoTime1": 0.037,
  "EchoTime2": 0.001,
  "EchoTrainLength": 104,
  "EffectiveEchoSpacing": 0.000560011,
  "FlipAngle": 52,
  "HeudiconvVersion": "0.5.3.post569+g418601f",
  "ImageComments": "Unaliased MB4/PE3/LB",
  "ImageOrientationPatientDICOM": [0.999081, -0.0414854, -0.010774, 0.0362855, 0.952433, -0.302579],
  "ImageOrientationText": "Tra>Cor(-17.6)>Sag(-1.3)",
  "ImageType": [
    "ORIGINAL",
    "PRIMARY",
    "P",
    "MB",
    "ND",
    "MOSAIC",
    "PHASE"
],
  "ImagingFrequency": 123.259,
  "InPlanePhaseEncodingDirectionDICOM": "COL",
  "InstitutionAddress": "Chemin Queen-Mary 4565,Montreal,District,CA,H3W 1W5",
  "InstitutionName": "IUGM",
  "InstitutionalDepartmentName": "Department",
  "MRAcquisitionType": "2D",
  "MagneticFieldStrength": 3,
  "Manufacturer": "Siemens",
  "ManufacturersModelName": "Prisma_fit",
  "MatrixCoilMode": "SENSE",
  "Modality": "MR",
  "MultibandAccelerationFactor": 4,
  "PartialFourier": 1,
  "PatientPosition": "HFS",
  "PercentPhaseFOV": 100,
  "PercentSampling": 100,
  "PhaseEncodingDirection": "j",
  "PhaseEncodingSteps": 104,
  "PhaseResolution": 1,
  "PixelBandwidth": 2290,
  "ProcedureStepDescription": "games^mario",
  "ProtocolName": "func_task-mario_run-02",
  "PulseSequenceDetails": "%CustomerSeq%\\cmrr_mbep2d_bold",
  "ReceiveCoilActiveElements": "HC1-7;NC1,2",
  "ReceiveCoilName": "HeadNeck_64",
  "ReconMatrixPE": 104,
  "RepetitionTime": 1.49,
  "SAR": 0.0388093,
  "ScanOptions": "FS",
  "ScanningSequence": "EP",
  "SequenceName": "epfid2d1_104",
  "SequenceVariant": "SK\\SS",
  "SeriesDescription": "func_task-mario_run-02",
  "SeriesNumber": 14,
  "ShimSetting": [624, -7254, -8837, 594, -1, -225, -47, -24],
  "SliceThickness": 2,
  "SliceTiming": [0, 0.7825, 0.0975, 0.88, 0.195, 0.98, 0.2925, 1.0775, 0.39, 1.175, 0.49, 1.2725, 0.5875, 1.37, 0.685, 0, 0.7825, 0.0975, 0.88, 0.195, 0.98, 0.2925, 1.0775, 0.39, 1.175, 0.49, 1.2725, 0.5875, 1.37, 0.685, 0, 0.7825, 0.0975, 0.88, 0.195, 0.98, 0.2925, 1.0775, 0.39, 1.175, 0.49, 1.2725, 0.5875, 1.37, 0.685, 0, 0.7825, 0.0975, 0.88, 0.195, 0.98, 0.2925, 1.0775, 0.39, 1.175, 0.49, 1.2725, 0.5875, 1.37, 0.685],
  "SoftwareVersions": "syngo MR E11",
  "SpacingBetweenSlices": 2,
  "StationName": "MRC35049",
  "TaskName": "mario",
  "TotalReadoutTime": 0.0576811,
  "TxRefAmp": 234.049,
  "WipMemBlock": "ff7466d3-94b8-45b4-a208-03ec23862d7e||Sequence: R016 ve11c/master r/e634e98; Dec 19 2017 11:00:25 by eja",
  "dcmmeta_affine": [
    [-1.998162031173706, 0.07257093489170074, -0.045628320425748825, 104.04368591308594],
    [0.08297087997198105, 1.9048664569854736, -0.6038208603858948, -71.93013763427734],
    [-0.021548008546233177, 0.6051588654518127, 1.906126618385315, -65.374267578125],
    [0.0, 0.0, 0.0, 1.0]
],
  "dcmmeta_reorient_transform": [
    [0.0, -1.0, 0.0, 103.0],
    [1.0, 0.0, 0.0, 0.0],
    [0.0, 0.0, 1.0, 0.0],
    [0.0, 0.0, 0.0, 1.0]
],
  "dcmmeta_shape": [104, 104, 60, 432],
  "dcmmeta_slice_dim": 2,
  "dcmmeta_version": 0.6,
  "global": {
    "const": {
      "AcquisitionMatrix": [104, 0, 0, 104],
      "AngioFlag": "N",
      "BitsAllocated": 16,
      "BitsStored": 16,
      "BodyPartExamined": "BRAIN",
      "Columns": 832,
      "EchoNumbers": 1,
      "EchoTime": 37.0,
      "EchoTrainLength": 104,
      "FlipAngle": 52.0,
      "HighBit": 15,
      "ImageOrientationPatient": [0.99908101723972, -0.0414854411231, -0.0107740041801, 0.03628546616254, 0.95243322639348, -0.3025794345409],
      "ImagePositionPatient": [-865.26529056778, -787.44109289792, 225.07839673973],
      "ImageType": [
        "ORIGINAL",
        "PRIMARY",
        "P",
        "MB",
        "ND",
        "MOSAIC"
],
      "ImagedNucleus": "1H",
      "ImagingFrequency": 123.258819,
      "InPlanePhaseEncodingDirection": "COL",
      "LargestImagePixelValue": 4095,
      "MRAcquisitionType": "2D",
      "MagneticFieldStrength": 3.0,
      "Manufacturer": "SIEMENS",
      "ManufacturerModelName": "Prisma_fit",
      "Modality": "MR",
      "NumberOfAverages": 1.0,
      "NumberOfPhaseEncodingSteps": 104,
      "PercentPhaseFieldOfView": 100.0,
      "PercentSampling": 100.0,
      "PerformedProcedureStepStartTime": "145110.560000",
      "PhotometricInterpretation": "MONOCHROME2",
      "PixelBandwidth": 2290.0,
      "PixelRepresentation": 0,
      "PixelSpacing": [2.0, 2.0],
      "ProtocolName": "func_task-mario_run-02",
      "RepetitionTime": 1490.0,
      "RescaleIntercept": -4096.0,
      "RescaleSlope": 2.0,
      "RescaleType": "US",
      "Rows": 832,
      "SAR": 0.03880930410744,
      "SamplesPerPixel": 1,
      "ScanOptions": "FS",
      "ScanningSequence": "EP",
      "SequenceName": "epfid2d1_104",
      "SequenceVariant": [
        "SK",
        "SS"
],
      "SeriesDescription": "func_task-mario_run-02",
      "SeriesNumber": 14,
      "SeriesTime": "153610.804000",
      "SliceLocation": -42.963026114862,
      "SliceThickness": 2.0,
      "SmallestImagePixelValue": 0,
      "SoftwareVersions": "syngo MR E11",
      "SpacingBetweenSlices": 2.0000000171945,
      "SpecificCharacterSet": "ISO_IR 100",
      "StudyID": "1",
      "StudyTime": "145110.402000",
      "TransmitCoilName": "Body",
      "VariableFlipAngleFlag": "N",
      "WindowCenterWidthExplanation": "Algo1",
      "dBdt": 0.0},
    "slices": {}
  },
  "time": {
    "samples": {
      "AcquisitionNumber": [1, 2, 3, 4, 5, 6, 7, 8, 9, 10, 11, 12, 13, 14, 15, 16, 17, 18, 19, 20, 21, 22, 23, 24, 25, 26, 27, 28, 29, 30, 31, 32, 33, 34, 35, 36, 37, 38, 39, 40, 41, 42, 43, 44, 45, 46, 47, 48, 49, 50, 51, 52, 53, 54, 55, 56, 57, 58, 59, 60, 61, 62, 63, 64, 65, 66, 67, 68, 69, 70, 71, 72, 73, 74, 75, 76, 77, 78, 79, 80, 81, 82, 83, 84, 85, 86, 87, 88, 89, 90, 91, 92, 93, 94, 95, 96, 97, 98, 99, 100, 101, 102, 103, 104, 105, 106, 107, 108, 109, 110, 111, 112, 113, 114, 115, 116, 117, 118, 119, 120, 121, 122, 123, 124, 125, 126, 127, 128, 129, 130, 131, 132, 133, 134, 135, 136, 137, 138, 139, 140, 141, 142, 143, 144, 145, 146, 147, 148, 149, 150, 151, 152, 153, 154, 155, 156, 157, 158, 159, 160, 161, 162, 163, 164, 165, 166, 167, 168, 169, 170, 171, 172, 173, 174, 175, 176, 177, 178, 179, 180, 181, 182, 183, 184, 185, 186, 187, 188, 189, 190, 191, 192, 193, 194, 195, 196, 197, 198, 199, 200, 201, 202, 203, 204, 205, 206, 207, 208, 209, 210, 211, 212, 213, 214, 215, 216, 217, 218, 219, 220, 221, 222, 223, 224, 225, 226, 227, 228, 229, 230, 231, 232, 233, 234, 235, 236, 237, 238, 239, 240, 241, 242, 243, 244, 245, 246, 247, 248, 249, 250, 251, 252, 253, 254, 255, 256, 257, 258, 259, 260, 261, 262, 263, 264, 265, 266, 267, 268, 269, 270, 271, 272, 273, 274, 275, 276, 277, 278, 279, 280, 281, 282, 283, 284, 285, 286, 287, 288, 289, 290, 291, 292, 293, 294, 295, 296, 297, 298, 299, 300, 301, 302, 303, 304, 305, 306, 307, 308, 309, 310, 311, 312, 313, 314, 315, 316, 317, 318, 319, 320, 321, 322, 323, 324, 325, 326, 327, 328, 329, 330, 331, 332, 333, 334, 335, 336, 337, 338, 339, 340, 341, 342, 343, 344, 345, 346, 347, 348, 349, 350, 351, 352, 353, 354, 355, 356, 357, 358, 359, 360, 361, 362, 363, 364, 365, 366, 367, 368, 369, 370, 371, 372, 373, 374, 375, 376, 377, 378, 379, 380, 381, 382, 383, 384, 385, 386, 387, 388, 389, 390, 391, 392, 393, 394, 395, 396, 397, 398, 399, 400, 401, 402, 403, 404, 405, 406, 407, 408, 409, 410, 411, 412, 413, 414, 415, 416, 417, 418, 419, 420, 421, 422, 423, 424, 425, 426, 427, 428, 429, 430, 431, 432],
      "AcquisitionTime": ["153505.967500", "153507.457500", "153508.947500", "153510.437500", "153511.927500", "153513.417500", "153514.907500", "153516.397500", "153517.887500", "153519.377500", "153520.867500", "153522.357500", "153523.847500", "153525.337500", "153526.827500", "153528.317500", "153529.807500", "153531.297500", "153532.787500", "153534.277500", "153535.767500", "153537.257500", "153538.747500", "153540.237500", "153541.727500", "153543.217500", "153544.707500", "153546.197500", "153547.687500", "153549.177500", "153550.667500", "153552.157500", "153553.647500", "153555.137500", "153556.627500", "153558.117500", "153559.607500", "153601.097500", "153602.587500", "153604.077500", "153605.567500", "153607.057500", "153608.547500", "153610.037500", "153611.527500", "153613.017500", "153614.507500", "153615.997500", "153617.487500", "153618.977500", "153620.467500", "153621.957500", "153623.447500", "153624.937500", "153626.427500", "153627.917500", "153629.407500", "153630.897500", "153632.387500", "153633.877500", "153635.367500", "153636.857500", "153638.347500", "153639.837500", "153641.327500", "153642.817500", "153644.307500", "153645.797500", "153647.287500", "153648.777500", "153650.267500", "153651.757500", "153653.247500", "153654.737500", "153656.227500", "153657.717500", "153659.207500", "153700.697500", "153702.187500", "153703.677500", "153705.167500", "153706.657500", "153708.147500", "153709.637500", "153711.127500", "153712.617500", "153714.107500", "153715.597500", "153717.087500", "153718.577500", "153720.067500", "153721.557500", "153723.047500", "153724.537500", "153726.027500", "153727.517500", "153729.007500", "153730.497500", "153731.987500", "153733.477500", "153734.967500", "153736.457500", "153737.947500", "153739.437500", "153740.927500", "153742.417500", "153743.907500", "153745.397500", "153746.887500", "153748.377500", "153749.867500", "153751.357500", "153752.847500", "153754.337500", "153755.827500", "153757.317500", "153758.807500", "153800.297500", "153801.787500", "153803.277500", "153804.767500", "153806.257500", "153807.747500", "153809.237500", "153810.727500", "153812.217500", "153813.707500", "153815.197500", "153816.687500", "153818.177500", "153819.667500", "153821.157500", "153822.647500", "153824.137500", "153825.627500", "153827.117500", "153828.607500", "153830.097500", "153831.587500", "153833.077500", "153834.567500", "153836.057500", "153837.547500", "153839.037500", "153840.527500", "153842.017500", "153843.507500", "153844.997500", "153846.487500", "153847.977500", "153849.467500", "153850.957500", "153852.447500", "153853.937500", "153855.427500", "153856.917500", "153858.407500", "153859.897500", "153901.387500", "153902.877500", "153904.367500", "153905.857500", "153907.347500", "153908.837500", "153910.327500", "153911.817500", "153913.307500", "153914.797500", "153916.287500", "153917.777500", "153919.267500", "153920.757500", "153922.247500", "153923.737500", "153925.227500", "153926.717500", "153928.207500", "153929.697500", "153931.187500", "153932.677500", "153934.167500", "153935.657500", "153937.147500", "153938.637500", "153940.127500", "153941.617500", "153943.107500", "153944.597500", "153946.087500", "153947.577500", "153949.067500", "153950.557500", "153952.047500", "153953.537500", "153955.027500", "153956.517500", "153958.007500", "153959.497500", "154000.987500", "154002.477500", "154003.967500", "154005.457500", "154006.947500", "154008.437500", "154009.927500", "154011.417500", "154012.907500", "154014.397500", "154015.887500", "154017.377500", "154018.867500", "154020.357500", "154021.847500", "154023.337500", "154024.827500", "154026.317500", "154027.807500", "154029.297500", "154030.787500", "154032.277500", "154033.767500", "154035.257500", "154036.747500", "154038.237500", "154039.727500", "154041.217500", "154042.707500", "154044.197500", "154045.687500", "154047.177500", "154048.667500", "154050.157500", "154051.647500", "154053.137500", "154054.627500", "154056.117500", "154057.607500", "154059.097500", "154100.587500", "154102.077500", "154103.567500", "154105.057500", "154106.547500", "154108.037500", "154109.527500", "154111.017500", "154112.507500", "154113.997500", "154115.487500", "154116.977500", "154118.467500", "154119.957500", "154121.447500", "154122.937500", "154124.427500", "154125.917500", "154127.407500", "154128.897500", "154130.387500", "154131.877500", "154133.367500", "154134.857500", "154136.347500", "154137.837500", "154139.327500", "154140.817500", "154142.307500", "154143.797500", "154145.287500", "154146.777500", "154148.267500", "154149.757500", "154151.247500", "154152.737500", "154154.227500", "154155.717500", "154157.207500", "154158.697500", "154200.187500", "154201.677500", "154203.167500", "154204.657500", "154206.147500", "154207.637500", "154209.127500", "154210.617500", "154212.107500", "154213.597500", "154215.087500", "154216.577500", "154218.067500", "154219.557500", "154221.047500", "154222.537500", "154224.027500", "154225.517500", "154227.007500", "154228.497500", "154229.987500", "154231.477500", "154232.967500", "154234.457500", "154235.947500", "154237.437500", "154238.927500", "154240.417500", "154241.907500", "154243.397500", "154244.887500", "154246.377500", "154247.867500", "154249.357500", "154250.847500", "154252.337500", "154253.827500", "154255.317500", "154256.807500", "154258.297500", "154259.787500", "154301.277500", "154302.767500", "154304.257500", "154305.747500", "154307.237500", "154308.727500", "154310.217500", "154311.707500", "154313.197500", "154314.687500", "154316.177500", "154317.667500", "154319.157500", "154320.647500", "154322.137500", "154323.627500", "154325.117500", "154326.607500", "154328.097500", "154329.587500", "154331.077500", "154332.567500", "154334.057500", "154335.547500", "154337.037500", "154338.527500", "154340.017500", "154341.507500", "154342.997500", "154344.487500", "154345.977500", "154347.467500", "154348.957500", "154350.447500", "154351.937500", "154353.427500", "154354.917500", "154356.407500", "154357.897500", "154359.387500", "154400.877500", "154402.367500", "154403.857500", "154405.347500", "154406.837500", "154408.327500", "154409.817500", "154411.307500", "154412.797500", "154414.287500", "154415.777500", "154417.267500", "154418.757500", "154420.247500", "154421.737500", "154423.227500", "154424.717500", "154426.207500", "154427.697500", "154429.187500", "154430.677500", "154432.167500", "154433.657500", "154435.147500", "154436.637500", "154438.127500", "154439.617500", "154441.107500", "154442.597500", "154444.087500", "154445.577500", "154447.067500", "154448.557500", "154450.047500", "154451.537500", "154453.027500", "154454.517500", "154456.007500", "154457.497500", "154458.987500", "154500.477500", "154501.967500", "154503.457500", "154504.947500", "154506.437500", "154507.927500", "154509.417500", "154510.907500", "154512.397500", "154513.887500", "154515.377500", "154516.867500", "154518.357500", "154519.847500", "154521.337500", "154522.827500", "154524.317500", "154525.807500", "154527.297500", "154528.787500", "154530.277500", "154531.767500", "154533.257500", "154534.747500", "154536.237500", "154537.727500", "154539.217500", "154540.707500", "154542.197500", "154543.687500", "154545.177500", "154546.667500", "154548.157500"],
      "ContentTime": ["153610.806000", "153610.809000", "153610.811000", "153610.814000", "153610.816000", "153610.819000", "153610.821000", "153610.824000", "153610.826000", "153610.829000", "153630.809000", "153630.812000", "153630.828000", "153630.831000", "153630.833000", "153630.836000", "153630.839000", "153630.841000", "153630.844000", "153630.846000", "153630.849000", "153630.851000", "153630.854000", "153630.856000", "153630.859000", "153630.861000", "153630.864000", "153630.866000", "153630.869000", "153630.871000", "153650.820000", "153650.822000", "153650.825000", "153650.827000", "153650.835000", "153650.837000", "153650.840000", "153650.842000", "153650.845000", "153650.848000", "153650.850000", "153650.853000", "153650.855000", "153650.858000", "153650.860000", "153650.863000", "153650.865000", "153650.868000", "153650.870000", "153650.873000", "153711.225000", "153711.227000", "153711.230000", "153711.232000", "153711.235000", "153711.237000", "153711.240000", "153711.242000", "153711.245000", "153711.247000", "153711.250000", "153711.252000", "153711.263000", "153711.266000", "153711.268000", "153711.271000", "153711.274000", "153711.276000", "153711.278000", "153711.281000", "153730.824000", "153730.827000", "153730.830000", "153730.832000", "153730.835000", "153730.837000", "153730.840000", "153730.842000", "153730.854000", "153730.857000", "153730.860000", "153730.862000", "153730.865000", "153730.868000", "153730.870000", "153730.873000", "153730.875000", "153730.878000", "153730.880000", "153730.883000", "153730.885000", "153810.907000", "153810.909000", "153810.914000", "153810.916000", "153810.919000", "153810.921000", "153810.924000", "153810.926000", "153810.929000", "153810.931000", "153810.934000", "153810.936000", "153810.939000", "153810.941000", "153810.944000", "153810.946000", "153810.949000", "153810.951000", "153810.954000", "153810.956000", "153810.959000", "153810.961000", "153810.964000", "153810.966000", "153810.969000", "153810.971000", "153810.974000", "153810.976000", "153810.979000", "153810.981000", "153810.984000", "153810.986000", "153850.846000", "153850.848000", "153850.851000", "153850.854000", "153850.856000", "153850.858000", "153850.861000", "153850.864000", "153850.866000", "153850.869000", "153850.871000", "153850.874000", "153850.876000", "153850.879000", "153850.881000", "153850.884000", "153850.893000", "153850.896000", "153850.898000", "153850.901000", "153850.903000", "153850.906000", "153850.908000", "153850.911000", "153850.913000", "153850.916000", "153850.918000", "153930.853000", "153930.856000", "153930.858000", "153930.861000", "153930.863000", "153930.866000", "153930.868000", "153930.871000", "153930.873000", "153930.876000", "153930.878000", "153930.881000", "153930.883000", "153930.886000", "153930.889000", "153930.891000", "153930.894000", "153930.896000", "153930.899000", "153930.901000", "153930.904000", "153930.907000", "153930.909000", "153930.912000", "153930.915000", "153930.917000", "153930.920000", "154010.860000", "154010.863000", "154010.866000", "154010.868000", "154010.877000", "154010.880000", "154010.882000", "154010.885000", "154010.888000", "154010.890000", "154010.892000", "154010.895000", "154010.898000", "154010.900000", "154010.903000", "154010.905000", "154010.908000", "154010.910000", "154010.913000", "154010.915000", "154010.918000", "154010.920000", "154010.923000", "154010.925000", "154010.928000", "154010.931000", "154050.845000", "154050.856000", "154050.859000", "154050.861000", "154050.865000", "154050.867000", "154050.870000", "154050.872000", "154050.875000", "154050.877000", "154050.880000", "154050.882000", "154050.885000", "154050.887000", "154050.890000", "154050.892000", "154050.895000", "154050.897000", "154050.900000", "154050.902000", "154050.905000", "154050.907000", "154050.910000", "154050.913000", "154050.915000", "154050.918000", "154050.920000", "154130.853000", "154130.855000", "154130.858000", "154130.860000", "154130.863000", "154130.866000", "154130.868000", "154130.871000", "154130.873000", "154130.876000", "154130.878000", "154130.881000", "154130.883000", "154130.886000", "154130.888000", "154130.891000", "154130.893000", "154130.896000", "154130.898000", "154130.901000", "154130.903000", "154130.906000", "154130.908000", "154130.911000", "154130.913000", "154130.916000", "154130.918000", "154210.844000", "154210.847000", "154210.850000", "154210.852000", "154210.855000", "154210.857000", "154210.860000", "154210.862000", "154210.865000", "154210.867000", "154210.870000", "154210.872000", "154210.875000", "154210.877000", "154210.880000", "154210.883000", "154210.885000", "154210.888000", "154210.890000", "154210.893000", "154210.895000", "154210.898000", "154210.900000", "154210.903000", "154210.905000", "154210.908000", "154210.911000", "154250.858000", "154250.861000", "154250.863000", "154250.866000", "154250.868000", "154250.871000", "154250.873000", "154250.876000", "154250.878000", "154250.881000", "154250.883000", "154250.886000", "154250.888000", "154250.891000", "154250.894000", "154250.896000", "154250.899000", "154250.901000", "154250.904000", "154250.906000", "154250.909000", "154250.911000", "154250.914000", "154250.916000", "154250.919000", "154250.921000", "154250.924000", "154330.843000", "154330.846000", "154330.848000", "154330.851000", "154330.854000", "154330.856000", "154330.859000", "154330.861000", "154330.864000", "154330.866000", "154330.869000", "154330.872000", "154330.874000", "154330.877000", "154330.879000", "154330.882000", "154330.884000", "154330.887000", "154330.889000", "154330.892000", "154330.894000", "154330.897000", "154330.900000", "154330.902000", "154330.905000", "154330.907000", "154330.910000", "154410.841000", "154410.844000", "154410.846000", "154410.849000", "154410.851000", "154410.862000", "154410.864000", "154410.867000", "154410.869000", "154410.872000", "154410.875000", "154410.877000", "154410.880000", "154410.882000", "154410.885000", "154410.887000", "154410.890000", "154410.892000", "154410.895000", "154410.897000", "154410.900000", "154410.902000", "154410.905000", "154410.907000", "154410.910000", "154410.912000", "154410.915000", "154450.832000", "154450.835000", "154450.837000", "154450.840000", "154450.843000", "154450.845000", "154450.848000", "154450.850000", "154450.853000", "154450.855000", "154450.858000", "154450.860000", "154450.863000", "154450.866000", "154450.883000", "154450.886000", "154450.889000", "154450.892000", "154450.895000", "154450.899000", "154450.902000", "154450.905000", "154450.908000", "154450.910000", "154450.913000", "154450.916000", "154530.897000", "154530.900000", "154530.902000", "154530.905000", "154530.907000", "154530.910000", "154530.912000", "154530.916000", "154530.918000", "154530.921000", "154530.923000", "154530.926000", "154530.928000", "154530.931000", "154530.933000", "154530.936000", "154530.938000", "154530.941000", "154530.943000", "154530.946000", "154530.949000", "154530.951000", "154530.954000", "154530.956000", "154530.959000", "154530.961000", "154530.964000", "154551.192000", "154551.195000", "154551.198000", "154551.207000", "154551.210000", "154551.212000", "154551.215000", "154551.217000", "154551.220000", "154551.222000", "154551.225000", "154551.228000", "154551.230000", "154551.233000"],
