{
  "AcquisitionMatrixPE": 104,
  "AcquisitionNumber": 1,
  "AcquisitionTime": "16:00:16.142500",
  "BandwidthPerPixelPhaseEncode": 17.17,
  "BaseResolution": 104,
  "BodyPartExamined": "BRAIN",
  "CoilCombinationMethod": "Sum of Squares",
  "ConsistencyInfo": "N4_VE11C_LATEST_20160120",
  "ConversionSoftware": "dcm2niix",
  "ConversionSoftwareVersion": "v1.0.20211006",
  "DerivedVendorReportedEchoSpacing": 0.000560011,
  "DeviceSerialNumber": "167006",
  "DwellTime": 2.1e-06,
  "EchoTime": 0.037,
  "EchoTime1": 0.037,
  "EchoTime2": 0.001,
  "EchoTrainLength": 104,
  "EffectiveEchoSpacing": 0.000560011,
  "FlipAngle": 52,
  "HeudiconvVersion": "0.5.3.post569+g418601f",
  "ImageComments": "Unaliased MB4/PE3/LB",
  "ImageOrientationPatientDICOM": [0.999081, -0.0414854, -0.010774, 0.0362855, 0.952433, -0.302579],
  "ImageOrientationText": "Tra>Cor(-17.6)>Sag(-1.3)",
  "ImageType": [
    "ORIGINAL",
    "PRIMARY",
    "P",
    "MB",
    "ND",
    "MOSAIC",
    "PHASE"
],
  "ImagingFrequency": 123.259,
  "InPlanePhaseEncodingDirectionDICOM": "COL",
  "InstitutionAddress": "Chemin Queen-Mary 4565,Montreal,District,CA,H3W 1W5",
  "InstitutionName": "IUGM",
  "InstitutionalDepartmentName": "Department",
  "MRAcquisitionType": "2D",
  "MagneticFieldStrength": 3,
  "Manufacturer": "Siemens",
  "ManufacturersModelName": "Prisma_fit",
  "MatrixCoilMode": "SENSE",
  "Modality": "MR",
  "MultibandAccelerationFactor": 4,
  "PartialFourier": 1,
  "PatientPosition": "HFS",
  "PercentPhaseFOV": 100,
  "PercentSampling": 100,
  "PhaseEncodingDirection": "j",
  "PhaseEncodingSteps": 104,
  "PhaseResolution": 1,
  "PixelBandwidth": 2290,
  "ProcedureStepDescription": "games^mario",
  "ProtocolName": "func_task-mario_run-04",
  "PulseSequenceDetails": "%CustomerSeq%\\cmrr_mbep2d_bold",
  "ReceiveCoilActiveElements": "HC1-7;NC1,2",
  "ReceiveCoilName": "HeadNeck_64",
  "ReconMatrixPE": 104,
  "RepetitionTime": 1.49,
  "SAR": 0.0388093,
  "ScanOptions": "FS",
  "ScanningSequence": "EP",
  "SequenceName": "epfid2d1_104",
  "SequenceVariant": "SK\\SS",
  "SeriesDescription": "func_task-mario_run-04",
  "SeriesNumber": 20,
  "ShimSetting": [624, -7254, -8837, 594, -1, -225, -47, -24],
  "SliceThickness": 2,
  "SliceTiming": [0, 0.7825, 0.0975, 0.88, 0.195, 0.98, 0.2925, 1.0775, 0.39, 1.175, 0.49, 1.2725, 0.5875, 1.37, 0.685, 0, 0.7825, 0.0975, 0.88, 0.195, 0.98, 0.2925, 1.0775, 0.39, 1.175, 0.49, 1.2725, 0.5875, 1.37, 0.685, 0, 0.7825, 0.0975, 0.88, 0.195, 0.98, 0.2925, 1.0775, 0.39, 1.175, 0.49, 1.2725, 0.5875, 1.37, 0.685, 0, 0.7825, 0.0975, 0.88, 0.195, 0.98, 0.2925, 1.0775, 0.39, 1.175, 0.49, 1.2725, 0.5875, 1.37, 0.685],
  "SoftwareVersions": "syngo MR E11",
  "SpacingBetweenSlices": 2,
  "StationName": "MRC35049",
  "TaskName": "mario",
  "TotalReadoutTime": 0.0576811,
  "TxRefAmp": 234.049,
  "WipMemBlock": "7be5c8bd-4ff0-45aa-a920-e9dac4818968||Sequence: R016 ve11c/master r/e634e98; Dec 19 2017 11:00:25 by eja",
  "dcmmeta_affine": [
    [-1.998162031173706, 0.07257093489170074, -0.045628320425748825, 104.04368591308594],
    [0.08297087997198105, 1.9048664569854736, -0.6038208603858948, -71.93013763427734],
    [-0.021548008546233177, 0.6051588654518127, 1.906126618385315, -65.374267578125],
    [0.0, 0.0, 0.0, 1.0]
],
  "dcmmeta_reorient_transform": [
    [0.0, -1.0, 0.0, 103.0],
    [1.0, 0.0, 0.0, 0.0],
    [0.0, 0.0, 1.0, 0.0],
    [0.0, 0.0, 0.0, 1.0]
],
  "dcmmeta_shape": [104, 104, 60, 432],
  "dcmmeta_slice_dim": 2,
  "dcmmeta_version": 0.6,
  "global": {
    "const": {
      "AcquisitionMatrix": [104, 0, 0, 104],
      "AngioFlag": "N",
      "BitsAllocated": 16,
      "BitsStored": 16,
      "BodyPartExamined": "BRAIN",
      "Columns": 832,
      "EchoNumbers": 1,
      "EchoTime": 37.0,
      "EchoTrainLength": 104,
      "FlipAngle": 52.0,
      "HighBit": 15,
      "ImageOrientationPatient": [0.99908101723972, -0.0414854411231, -0.0107740041801, 0.03628546616254, 0.95243322639348, -0.3025794345409],
      "ImagePositionPatient": [-865.26529056778, -787.44109289792, 225.07839673973],
      "ImageType": [
        "ORIGINAL",
        "PRIMARY",
        "P",
        "MB",
        "ND",
        "MOSAIC"
],
      "ImagedNucleus": "1H",
      "ImagingFrequency": 123.258831,
      "InPlanePhaseEncodingDirection": "COL",
      "LargestImagePixelValue": 4095,
      "MRAcquisitionType": "2D",
      "MagneticFieldStrength": 3.0,
      "Manufacturer": "SIEMENS",
      "ManufacturerModelName": "Prisma_fit",
      "Modality": "MR",
      "NumberOfAverages": 1.0,
      "NumberOfPhaseEncodingSteps": 104,
      "PercentPhaseFieldOfView": 100.0,
      "PercentSampling": 100.0,
      "PerformedProcedureStepStartTime": "145110.560000",
      "PhotometricInterpretation": "MONOCHROME2",
      "PixelBandwidth": 2290.0,
      "PixelRepresentation": 0,
      "PixelSpacing": [2.0, 2.0],
      "ProtocolName": "func_task-mario_run-04",
      "RepetitionTime": 1490.0,
      "RescaleIntercept": -4096.0,
      "RescaleSlope": 2.0,
      "RescaleType": "US",
      "Rows": 832,
      "SAR": 0.03880930410744,
      "SamplesPerPixel": 1,
      "ScanOptions": "FS",
      "ScanningSequence": "EP",
      "SequenceName": "epfid2d1_104",
      "SequenceVariant": [
        "SK",
        "SS"
],
      "SeriesDescription": "func_task-mario_run-04",
      "SeriesNumber": 20,
      "SeriesTime": "160131.616000",
      "SliceLocation": -42.963026114862,
      "SliceThickness": 2.0,
      "SmallestImagePixelValue": 0,
      "SoftwareVersions": "syngo MR E11",
      "SpacingBetweenSlices": 2.0000000171945,
      "SpecificCharacterSet": "ISO_IR 100",
      "StudyID": "1",
      "StudyTime": "145110.402000",
      "TransmitCoilName": "Body",
      "VariableFlipAngleFlag": "N",
      "WindowCenterWidthExplanation": "Algo1",
      "dBdt": 0.0},
    "slices": {}
  },
  "time": {
    "samples": {
      "AcquisitionNumber": [1, 2, 3, 4, 5, 6, 7, 8, 9, 10, 11, 12, 13, 14, 15, 16, 17, 18, 19, 20, 21, 22, 23, 24, 25, 26, 27, 28, 29, 30, 31, 32, 33, 34, 35, 36, 37, 38, 39, 40, 41, 42, 43, 44, 45, 46, 47, 48, 49, 50, 51, 52, 53, 54, 55, 56, 57, 58, 59, 60, 61, 62, 63, 64, 65, 66, 67, 68, 69, 70, 71, 72, 73, 74, 75, 76, 77, 78, 79, 80, 81, 82, 83, 84, 85, 86, 87, 88, 89, 90, 91, 92, 93, 94, 95, 96, 97, 98, 99, 100, 101, 102, 103, 104, 105, 106, 107, 108, 109, 110, 111, 112, 113, 114, 115, 116, 117, 118, 119, 120, 121, 122, 123, 124, 125, 126, 127, 128, 129, 130, 131, 132, 133, 134, 135, 136, 137, 138, 139, 140, 141, 142, 143, 144, 145, 146, 147, 148, 149, 150, 151, 152, 153, 154, 155, 156, 157, 158, 159, 160, 161, 162, 163, 164, 165, 166, 167, 168, 169, 170, 171, 172, 173, 174, 175, 176, 177, 178, 179, 180, 181, 182, 183, 184, 185, 186, 187, 188, 189, 190, 191, 192, 193, 194, 195, 196, 197, 198, 199, 200, 201, 202, 203, 204, 205, 206, 207, 208, 209, 210, 211, 212, 213, 214, 215, 216, 217, 218, 219, 220, 221, 222, 223, 224, 225, 226, 227, 228, 229, 230, 231, 232, 233, 234, 235, 236, 237, 238, 239, 240, 241, 242, 243, 244, 245, 246, 247, 248, 249, 250, 251, 252, 253, 254, 255, 256, 257, 258, 259, 260, 261, 262, 263, 264, 265, 266, 267, 268, 269, 270, 271, 272, 273, 274, 275, 276, 277, 278, 279, 280, 281, 282, 283, 284, 285, 286, 287, 288, 289, 290, 291, 292, 293, 294, 295, 296, 297, 298, 299, 300, 301, 302, 303, 304, 305, 306, 307, 308, 309, 310, 311, 312, 313, 314, 315, 316, 317, 318, 319, 320, 321, 322, 323, 324, 325, 326, 327, 328, 329, 330, 331, 332, 333, 334, 335, 336, 337, 338, 339, 340, 341, 342, 343, 344, 345, 346, 347, 348, 349, 350, 351, 352, 353, 354, 355, 356, 357, 358, 359, 360, 361, 362, 363, 364, 365, 366, 367, 368, 369, 370, 371, 372, 373, 374, 375, 376, 377, 378, 379, 380, 381, 382, 383, 384, 385, 386, 387, 388, 389, 390, 391, 392, 393, 394, 395, 396, 397, 398, 399, 400, 401, 402, 403, 404, 405, 406, 407, 408, 409, 410, 411, 412, 413, 414, 415, 416, 417, 418, 419, 420, 421, 422, 423, 424, 425, 426, 427, 428, 429, 430, 431, 432],
      "AcquisitionTime": ["160016.142500", "160017.632500", "160019.122500", "160020.612500", "160022.102500", "160023.592500", "160025.082500", "160026.572500", "160028.062500", "160029.552500", "160031.042500", "160032.532500", "160034.022500", "160035.512500", "160037.002500", "160038.492500", "160039.982500", "160041.472500", "160042.962500", "160044.452500", "160045.942500", "160047.432500", "160048.922500", "160050.412500", "160051.902500", "160053.392500", "160054.882500", "160056.372500", "160057.862500", "160059.352500", "160100.842500", "160102.332500", "160103.822500", "160105.312500", "160106.802500", "160108.292500", "160109.782500", "160111.272500", "160112.762500", "160114.252500", "160115.742500", "160117.232500", "160118.722500", "160120.212500", "160121.702500", "160123.192500", "160124.682500", "160126.172500", "160127.662500", "160129.152500", "160130.642500", "160132.132500", "160133.622500", "160135.112500", "160136.602500", "160138.092500", "160139.582500", "160141.072500", "160142.562500", "160144.052500", "160145.542500", "160147.032500", "160148.522500", "160150.012500", "160151.502500", "160152.992500", "160154.482500", "160155.972500", "160157.462500", "160158.952500", "160200.442500", "160201.932500", "160203.422500", "160204.912500", "160206.402500", "160207.892500", "160209.382500", "160210.872500", "160212.362500", "160213.852500", "160215.342500", "160216.832500", "160218.322500", "160219.812500", "160221.302500", "160222.792500", "160224.282500", "160225.772500", "160227.262500", "160228.752500", "160230.242500", "160231.732500", "160233.222500", "160234.712500", "160236.202500", "160237.692500", "160239.182500", "160240.672500", "160242.162500", "160243.652500", "160245.142500", "160246.632500", "160248.122500", "160249.612500", "160251.102500", "160252.592500", "160254.082500", "160255.572500", "160257.062500", "160258.552500", "160300.042500", "160301.532500", "160303.022500", "160304.512500", "160306.002500", "160307.492500", "160308.982500", "160310.472500", "160311.962500", "160313.452500", "160314.942500", "160316.432500", "160317.922500", "160319.412500", "160320.902500", "160322.392500", "160323.882500", "160325.372500", "160326.862500", "160328.352500", "160329.842500", "160331.332500", "160332.822500", "160334.312500", "160335.802500", "160337.292500", "160338.782500", "160340.272500", "160341.762500", "160343.252500", "160344.742500", "160346.232500", "160347.722500", "160349.212500", "160350.702500", "160352.192500", "160353.682500", "160355.172500", "160356.662500", "160358.152500", "160359.642500", "160401.132500", "160402.622500", "160404.112500", "160405.602500", "160407.092500", "160408.582500", "160410.072500", "160411.562500", "160413.052500", "160414.542500", "160416.032500", "160417.522500", "160419.012500", "160420.502500", "160421.992500", "160423.482500", "160424.972500", "160426.462500", "160427.952500", "160429.442500", "160430.932500", "160432.422500", "160433.912500", "160435.402500", "160436.892500", "160438.382500", "160439.872500", "160441.362500", "160442.852500", "160444.342500", "160445.832500", "160447.322500", "160448.812500", "160450.302500", "160451.792500", "160453.282500", "160454.772500", "160456.262500", "160457.752500", "160459.242500", "160500.732500", "160502.222500", "160503.712500", "160505.202500", "160506.692500", "160508.182500", "160509.672500", "160511.162500", "160512.652500", "160514.142500", "160515.632500", "160517.122500", "160518.612500", "160520.102500", "160521.592500", "160523.082500", "160524.572500", "160526.062500", "160527.552500", "160529.042500", "160530.532500", "160532.022500", "160533.512500", "160535.002500", "160536.492500", "160537.982500", "160539.472500", "160540.962500", "160542.452500", "160543.942500", "160545.432500", "160546.922500", "160548.412500", "160549.902500", "160551.392500", "160552.882500", "160554.372500", "160555.862500", "160557.352500", "160558.842500", "160600.332500", "160601.822500", "160603.312500", "160604.802500", "160606.292500", "160607.782500", "160609.272500", "160610.762500", "160612.252500", "160613.742500", "160615.232500", "160616.722500", "160618.212500", "160619.702500", "160621.192500", "160622.682500", "160624.172500", "160625.662500", "160627.152500", "160628.642500", "160630.132500", "160631.622500", "160633.112500", "160634.602500", "160636.092500", "160637.582500", "160639.072500", "160640.562500", "160642.052500", "160643.542500", "160645.032500", "160646.522500", "160648.012500", "160649.502500", "160650.992500", "160652.482500", "160653.972500", "160655.462500", "160656.952500", "160658.442500", "160659.932500", "160701.422500", "160702.912500", "160704.402500", "160705.892500", "160707.382500", "160708.872500", "160710.362500", "160711.852500", "160713.342500", "160714.832500", "160716.322500", "160717.812500", "160719.302500", "160720.792500", "160722.282500", "160723.772500", "160725.262500", "160726.752500", "160728.242500", "160729.732500", "160731.222500", "160732.712500", "160734.202500", "160735.692500", "160737.182500", "160738.672500", "160740.162500", "160741.652500", "160743.142500", "160744.632500", "160746.122500", "160747.612500", "160749.102500", "160750.592500", "160752.082500", "160753.572500", "160755.062500", "160756.552500", "160758.042500", "160759.532500", "160801.022500", "160802.512500", "160804.002500", "160805.492500", "160806.982500", "160808.472500", "160809.962500", "160811.452500", "160812.942500", "160814.432500", "160815.922500", "160817.412500", "160818.902500", "160820.392500", "160821.882500", "160823.372500", "160824.862500", "160826.352500", "160827.842500", "160829.332500", "160830.822500", "160832.312500", "160833.802500", "160835.292500", "160836.782500", "160838.272500", "160839.762500", "160841.252500", "160842.742500", "160844.232500", "160845.722500", "160847.212500", "160848.702500", "160850.192500", "160851.682500", "160853.172500", "160854.662500", "160856.152500", "160857.642500", "160859.132500", "160900.622500", "160902.112500", "160903.602500", "160905.092500", "160906.582500", "160908.072500", "160909.562500", "160911.052500", "160912.542500", "160914.032500", "160915.522500", "160917.012500", "160918.502500", "160919.992500", "160921.482500", "160922.972500", "160924.462500", "160925.952500", "160927.442500", "160928.932500", "160930.422500", "160931.912500", "160933.402500", "160934.892500", "160936.382500", "160937.872500", "160939.362500", "160940.852500", "160942.342500", "160943.832500", "160945.322500", "160946.812500", "160948.302500", "160949.792500", "160951.282500", "160952.772500", "160954.262500", "160955.752500", "160957.242500", "160958.732500", "161000.222500", "161001.712500", "161003.202500", "161004.692500", "161006.182500", "161007.672500", "161009.162500", "161010.652500", "161012.142500", "161013.632500", "161015.122500", "161016.612500", "161018.102500", "161019.592500", "161021.082500", "161022.572500", "161024.062500", "161025.552500", "161027.042500", "161028.532500", "161030.022500", "161031.512500", "161033.002500", "161034.492500", "161035.982500", "161037.472500", "161038.962500", "161040.452500", "161041.942500", "161043.432500", "161044.922500", "161046.412500", "161047.902500", "161049.392500", "161050.882500", "161052.372500", "161053.862500", "161055.352500", "161056.842500", "161058.332500"],
      "ContentTime": ["160131.618000", "160131.628000", "160131.631000", "160131.633000", "160131.636000", "160131.638000", "160131.641000", "160131.643000", "160131.645000", "160131.648000", "160131.650000", "160131.653000", "160131.655000", "160131.658000", "160131.660000", "160131.663000", "160131.665000", "160131.668000", "160131.671000", "160131.676000", "160131.679000", "160151.119000", "160151.121000", "160151.124000", "160151.126000", "160151.129000", "160151.131000", "160151.134000", "160151.136000", "160151.139000", "160151.142000", "160151.145000", "160151.148000", "160151.150000", "160151.153000", "160151.155000", "160151.158000", "160151.160000", "160151.163000", "160151.165000", "160151.168000", "160211.118000", "160211.120000", "160211.134000", "160211.137000", "160211.139000", "160211.142000", "160211.144000", "160211.147000", "160211.149000", "160211.152000", "160211.154000", "160211.157000", "160211.159000", "160211.162000", "160211.164000", "160211.167000", "160211.169000", "160211.172000", "160211.174000", "160211.177000", "160211.179000", "160231.100000", "160231.103000", "160231.106000", "160231.108000", "160231.111000", "160231.113000", "160231.116000", "160231.118000", "160231.121000", "160231.123000", "160231.126000", "160231.128000", "160231.131000", "160231.133000", "160231.136000", "160231.138000", "160231.141000", "160231.143000", "160231.146000", "160231.148000", "160251.111000", "160251.114000", "160251.116000", "160251.119000", "160251.121000", "160251.124000", "160251.126000", "160251.129000", "160251.131000", "160251.134000", "160251.137000", "160251.139000", "160251.142000", "160251.144000", "160251.147000", "160251.149000", "160251.152000", "160251.154000", "160251.157000", "160251.159000", "160331.164000", "160331.167000", "160331.170000", "160331.172000", "160331.175000", "160331.177000", "160331.180000", "160331.182000", "160331.185000", "160331.187000", "160331.190000", "160331.192000", "160331.195000", "160331.197000", "160331.200000", "160331.202000", "160331.205000", "160331.207000", "160331.210000", "160331.212000", "160331.215000", "160331.218000", "160331.220000", "160331.232000", "160331.234000", "160331.237000", "160331.240000", "160331.242000", "160411.153000", "160411.156000", "160411.159000", "160411.161000", "160411.164000", "160411.166000", "160411.169000", "160411.171000", "160411.174000", "160411.176000", "160411.179000", "160411.181000", "160411.184000", "160411.186000", "160411.189000", "160411.191000", "160411.194000", "160411.196000", "160411.199000", "160411.202000", "160411.204000", "160411.207000", "160411.209000", "160411.212000", "160411.214000", "160411.217000", "160411.219000", "160451.133000", "160451.136000", "160451.138000", "160451.141000", "160451.144000", "160451.146000", "160451.149000", "160451.151000", "160451.154000", "160451.156000", "160451.159000", "160451.161000", "160451.164000", "160451.167000", "160451.169000", "160451.172000", "160451.174000", "160451.177000", "160451.179000", "160451.182000", "160451.184000", "160451.187000", "160451.189000", "160451.192000", "160451.194000", "160451.197000", "160451.199000", "160531.152000", "160531.155000", "160531.158000", "160531.160000", "160531.163000", "160531.165000", "160531.168000", "160531.170000", "160531.173000", "160531.175000", "160531.178000", "160531.181000", "160531.183000", "160531.185000", "160531.188000", "160531.191000", "160531.193000", "160531.196000", "160531.198000", "160531.201000", "160531.203000", "160531.206000", "160531.208000", "160531.211000", "160531.213000", "160531.216000", "160611.143000", "160611.145000", "160611.148000", "160611.151000", "160611.153000", "160611.155000", "160611.158000", "160611.161000", "160611.163000", "160611.166000", "160611.168000", "160611.171000", "160611.173000", "160611.176000", "160611.178000", "160611.181000", "160611.184000", "160611.187000", "160611.189000", "160611.192000", "160611.194000", "160611.197000", "160611.200000", "160611.202000", "160611.205000", "160611.207000", "160611.210000", "160651.133000", "160651.136000", "160651.138000", "160651.141000", "160651.144000", "160651.146000", "160651.149000", "160651.151000", "160651.154000", "160651.156000", "160651.159000", "160651.161000", "160651.164000", "160651.166000", "160651.169000", "160651.172000", "160651.174000", "160651.177000", "160651.179000", "160651.182000", "160651.184000", "160651.187000", "160651.189000", "160651.192000", "160651.194000", "160651.197000", "160651.200000", "160731.142000", "160731.145000", "160731.148000", "160731.150000", "160731.153000", "160731.155000", "160731.158000", "160731.160000", "160731.163000", "160731.165000", "160731.168000", "160731.171000", "160731.173000", "160731.176000", "160731.178000", "160731.181000", "160731.183000", "160731.186000", "160731.188000", "160731.191000", "160731.193000", "160731.196000", "160731.199000", "160731.201000", "160731.204000", "160731.206000", "160731.209000", "160811.139000", "160811.142000", "160811.144000", "160811.147000", "160811.149000", "160811.152000", "160811.154000", "160811.157000", "160811.160000", "160811.162000", "160811.164000", "160811.167000", "160811.170000", "160811.172000", "160811.175000", "160811.177000", "160811.180000", "160811.182000", "160811.185000", "160811.187000", "160811.190000", "160811.192000", "160811.195000", "160811.197000", "160811.200000", "160811.202000", "160811.205000", "160851.141000", "160851.144000", "160851.146000", "160851.149000", "160851.151000", "160851.154000", "160851.156000", "160851.159000", "160851.161000", "160851.164000", "160851.166000", "160851.169000", "160851.171000", "160851.174000", "160851.176000", "160851.179000", "160851.181000", "160851.184000", "160851.187000", "160851.189000", "160851.192000", "160851.194000", "160851.197000", "160851.199000", "160851.202000", "160851.204000", "160851.207000", "160931.144000", "160931.147000", "160931.150000", "160931.152000", "160931.162000", "160931.164000", "160931.167000", "160931.169000", "160931.172000", "160931.174000", "160931.177000", "160931.180000", "160931.182000", "160931.185000", "160931.187000", "160931.190000", "160931.192000", "160931.195000", "160931.197000", "160931.200000", "160931.202000", "160931.205000", "160931.207000", "160931.210000", "160931.212000", "160931.215000", "161011.130000", "161011.132000", "161011.135000", "161011.138000", "161011.140000", "161011.143000", "161011.145000", "161011.148000", "161011.151000", "161011.153000", "161011.156000", "161011.158000", "161011.161000", "161011.163000", "161011.166000", "161011.168000", "161011.171000", "161011.173000", "161011.176000", "161011.178000", "161011.181000", "161011.183000", "161011.186000", "161011.188000", "161011.191000", "161011.194000", "161011.196000", "161051.126000", "161051.129000", "161051.132000", "161051.134000", "161051.146000", "161051.149000", "161051.152000", "161051.154000", "161051.157000", "161051.159000", "161051.162000", "161051.164000", "161051.167000", "161051.169000", "161051.172000", "161051.174000", "161051.177000", "161051.179000", "161051.182000", "161051.184000", "161051.187000", "161051.189000", "161051.192000", "161051.194000", "161051.197000", "161051.199000", "161051.202000", "161100.764000", "161100.767000", "161100.770000", "161100.772000", "161100.775000", "161100.777000", "161100.780000"],
