{
  "AcquisitionMatrixPE": 104,
  "AcquisitionNumber": 1,
  "AcquisitionTime": "16:12:58.365000",
  "BandwidthPerPixelPhaseEncode": 17.17,
  "BaseResolution": 104,
  "BodyPartExamined": "BRAIN",
  "CoilCombinationMethod": "Sum of Squares",
  "ConsistencyInfo": "N4_VE11C_LATEST_20160120",
  "ConversionSoftware": "dcm2niix",
  "ConversionSoftwareVersion": "v1.0.20211006",
  "DerivedVendorReportedEchoSpacing": 0.000560011,
  "DeviceSerialNumber": "167006",
  "DwellTime": 2.1e-06,
  "EchoTime": 0.037,
  "EchoTrainLength": 104,
  "EffectiveEchoSpacing": 0.000560011,
  "FlipAngle": 52,
  "HeudiconvVersion": "0.5.3.post569+g418601f",
  "ImageComments": "Unaliased MB4/PE3/LB",
  "ImageOrientationPatientDICOM": [0.999081, -0.0414854, -0.010774, 0.0362855, 0.952433, -0.302579],
  "ImageOrientationText": "Tra>Cor(-17.6)>Sag(-1.3)",
  "ImageType": [
    "ORIGINAL",
    "PRIMARY",
    "M",
    "MB",
    "ND",
    "MOSAIC"
],
  "ImagingFrequency": 123.259,
  "InPlanePhaseEncodingDirectionDICOM": "COL",
  "InstitutionAddress": "Chemin Queen-Mary 4565,Montreal,District,CA,H3W 1W5",
  "InstitutionName": "IUGM",
  "InstitutionalDepartmentName": "Department",
  "MRAcquisitionType": "2D",
  "MagneticFieldStrength": 3,
  "Manufacturer": "Siemens",
  "ManufacturersModelName": "Prisma_fit",
  "MatrixCoilMode": "SENSE",
  "Modality": "MR",
  "MultibandAccelerationFactor": 4,
  "PartialFourier": 1,
  "PatientPosition": "HFS",
  "PercentPhaseFOV": 100,
  "PercentSampling": 100,
  "PhaseEncodingDirection": "j",
  "PhaseEncodingSteps": 104,
  "PhaseResolution": 1,
  "PixelBandwidth": 2290,
  "ProcedureStepDescription": "games^mario",
  "ProtocolName": "func_task-mario_run-05",
  "PulseSequenceDetails": "%CustomerSeq%\\cmrr_mbep2d_bold",
  "ReceiveCoilActiveElements": "HC1-7;NC1,2",
  "ReceiveCoilName": "HeadNeck_64",
  "ReconMatrixPE": 104,
  "RepetitionTime": 1.49,
  "SAR": 0.0388093,
  "ScanOptions": "FS",
  "ScanningSequence": "EP",
  "SequenceName": "epfid2d1_104",
  "SequenceVariant": "SK\\SS",
  "SeriesDescription": "func_task-mario_run-05",
  "SeriesNumber": 22,
  "ShimSetting": [624, -7254, -8837, 594, -1, -225, -47, -24],
  "SliceThickness": 2,
  "SliceTiming": [0, 0.7825, 0.0975, 0.88, 0.195, 0.98, 0.2925, 1.0775, 0.39, 1.175, 0.49, 1.2725, 0.5875, 1.37, 0.685, 0, 0.7825, 0.0975, 0.88, 0.195, 0.98, 0.2925, 1.0775, 0.39, 1.175, 0.49, 1.2725, 0.5875, 1.37, 0.685, 0, 0.7825, 0.0975, 0.88, 0.195, 0.98, 0.2925, 1.0775, 0.39, 1.175, 0.49, 1.2725, 0.5875, 1.37, 0.685, 0, 0.7825, 0.0975, 0.88, 0.195, 0.98, 0.2925, 1.0775, 0.39, 1.175, 0.49, 1.2725, 0.5875, 1.37, 0.685],
  "SoftwareVersions": "syngo MR E11",
  "SpacingBetweenSlices": 2,
  "StationName": "MRC35049",
  "TaskName": "mario",
  "TotalReadoutTime": 0.0576811,
  "TxRefAmp": 234.049,
  "WipMemBlock": "0c50b5dc-e406-438a-a359-e56dcd33da23||Sequence: R016 ve11c/master r/e634e98; Dec 19 2017 11:00:25 by eja",
  "dcmmeta_affine": [
    [-1.998162031173706, 0.07257093489170074, -0.045628320425748825, 104.04368591308594],
    [0.08297087997198105, 1.9048664569854736, -0.6038208603858948, -71.93013763427734],
    [-0.021548008546233177, 0.6051588654518127, 1.906126618385315, -65.374267578125],
    [0.0, 0.0, 0.0, 1.0]
],
  "dcmmeta_reorient_transform": [
    [0.0, -1.0, 0.0, 103.0],
    [1.0, 0.0, 0.0, 0.0],
    [0.0, 0.0, 1.0, 0.0],
    [0.0, 0.0, 0.0, 1.0]
],
  "dcmmeta_shape": [104, 104, 60, 423],
  "dcmmeta_slice_dim": 2,
  "dcmmeta_version": 0.6,
  "global": {
    "const": {
      "AcquisitionMatrix": [104, 0, 0, 104],
      "AngioFlag": "N",
      "BitsAllocated": 16,
      "BitsStored": 16,
      "BodyPartExamined": "BRAIN",
      "Columns": 832,
      "EchoNumbers": 1,
      "EchoTime": 37.0,
      "EchoTrainLength": 104,
      "FlipAngle": 52.0,
      "HighBit": 15,
      "ImageOrientationPatient": [0.99908101723972, -0.0414854411231, -0.0107740041801, 0.03628546616254, 0.95243322639348, -0.3025794345409],
      "ImagePositionPatient": [-865.26529056778, -787.44109289792, 225.07839673973],
      "ImageType": [
        "ORIGINAL",
        "PRIMARY",
        "M",
        "MB",
        "ND",
        "MOSAIC"
],
      "ImagedNucleus": "1H",
      "ImagingFrequency": 123.258835,
      "InPlanePhaseEncodingDirection": "COL",
      "MRAcquisitionType": "2D",
      "MagneticFieldStrength": 3.0,
      "Manufacturer": "SIEMENS",
      "ManufacturerModelName": "Prisma_fit",
      "Modality": "MR",
      "NumberOfAverages": 1.0,
      "NumberOfPhaseEncodingSteps": 104,
      "PercentPhaseFieldOfView": 100.0,
      "PercentSampling": 100.0,
      "PerformedProcedureStepStartTime": "145110.560000",
      "PhotometricInterpretation": "MONOCHROME2",
      "PixelBandwidth": 2290.0,
      "PixelRepresentation": 0,
      "PixelSpacing": [2.0, 2.0],
      "ProtocolName": "func_task-mario_run-05",
      "RepetitionTime": 1490.0,
      "Rows": 832,
      "SAR": 0.03880930410744,
      "SamplesPerPixel": 1,
      "ScanOptions": "FS",
      "ScanningSequence": "EP",
      "SequenceName": "epfid2d1_104",
      "SequenceVariant": [
        "SK",
        "SS"
],
      "SeriesDescription": "func_task-mario_run-05",
      "SeriesNumber": 22,
      "SeriesTime": "161431.114000",
      "SliceLocation": -42.963026114862,
      "SliceThickness": 2.0,
      "SmallestImagePixelValue": 0,
      "SoftwareVersions": "syngo MR E11",
      "SpacingBetweenSlices": 2.0000000171945,
      "SpecificCharacterSet": "ISO_IR 100",
      "StudyID": "1",
      "StudyTime": "145110.402000",
      "TransmitCoilName": "Body",
      "VariableFlipAngleFlag": "N",
      "WindowCenterWidthExplanation": "Algo1",
      "dBdt": 0.0},
    "slices": {}
  },
  "time": {
    "samples": {
      "AcquisitionNumber": [1, 2, 3, 4, 5, 6, 7, 8, 9, 10, 11, 12, 13, 14, 15, 16, 17, 18, 19, 20, 21, 22, 23, 24, 25, 26, 27, 28, 29, 30, 31, 32, 33, 34, 35, 36, 37, 38, 39, 40, 41, 42, 43, 44, 45, 46, 47, 48, 49, 50, 51, 52, 53, 54, 55, 56, 57, 58, 59, 60, 61, 62, 63, 64, 65, 66, 67, 68, 69, 70, 71, 72, 73, 74, 75, 76, 77, 78, 79, 80, 81, 82, 83, 84, 85, 86, 87, 88, 89, 90, 91, 92, 93, 94, 95, 96, 97, 98, 99, 100, 101, 102, 103, 104, 105, 106, 107, 108, 109, 110, 111, 112, 113, 114, 115, 116, 117, 118, 119, 120, 121, 122, 123, 124, 125, 126, 127, 128, 129, 130, 131, 132, 133, 134, 135, 136, 137, 138, 139, 140, 141, 142, 143, 144, 145, 146, 147, 148, 149, 150, 151, 152, 153, 154, 155, 156, 157, 158, 159, 160, 161, 162, 163, 164, 165, 166, 167, 168, 169, 170, 171, 172, 173, 174, 175, 176, 177, 178, 179, 180, 181, 182, 183, 184, 185, 186, 187, 188, 189, 190, 191, 192, 193, 194, 195, 196, 197, 198, 199, 200, 201, 202, 203, 204, 205, 206, 207, 208, 209, 210, 211, 212, 213, 214, 215, 216, 217, 218, 219, 220, 221, 222, 223, 224, 225, 226, 227, 228, 229, 230, 231, 232, 233, 234, 235, 236, 237, 238, 239, 240, 241, 242, 243, 244, 245, 246, 247, 248, 249, 250, 251, 252, 253, 254, 255, 256, 257, 258, 259, 260, 261, 262, 263, 264, 265, 266, 267, 268, 269, 270, 271, 272, 273, 274, 275, 276, 277, 278, 279, 280, 281, 282, 283, 284, 285, 286, 287, 288, 289, 290, 291, 292, 293, 294, 295, 296, 297, 298, 299, 300, 301, 302, 303, 304, 305, 306, 307, 308, 309, 310, 311, 312, 313, 314, 315, 316, 317, 318, 319, 320, 321, 322, 323, 324, 325, 326, 327, 328, 329, 330, 331, 332, 333, 334, 335, 336, 337, 338, 339, 340, 341, 342, 343, 344, 345, 346, 347, 348, 349, 350, 351, 352, 353, 354, 355, 356, 357, 358, 359, 360, 361, 362, 363, 364, 365, 366, 367, 368, 369, 370, 371, 372, 373, 374, 375, 376, 377, 378, 379, 380, 381, 382, 383, 384, 385, 386, 387, 388, 389, 390, 391, 392, 393, 394, 395, 396, 397, 398, 399, 400, 401, 402, 403, 404, 405, 406, 407, 408, 409, 410, 411, 412, 413, 414, 415, 416, 417, 418, 419, 420, 421, 422, 423],
      "AcquisitionTime": ["161258.365000", "161259.855000", "161301.345000", "161302.835000", "161304.325000", "161305.815000", "161307.305000", "161308.795000", "161310.285000", "161311.775000", "161313.265000", "161314.755000", "161316.245000", "161317.735000", "161319.225000", "161320.715000", "161322.205000", "161323.695000", "161325.185000", "161326.675000", "161328.165000", "161329.655000", "161331.145000", "161332.635000", "161334.125000", "161335.615000", "161337.105000", "161338.595000", "161340.085000", "161341.575000", "161343.065000", "161344.555000", "161346.045000", "161347.535000", "161349.025000", "161350.515000", "161352.005000", "161353.495000", "161354.985000", "161356.475000", "161357.965000", "161359.455000", "161400.945000", "161402.435000", "161403.925000", "161405.415000", "161406.905000", "161408.395000", "161409.885000", "161411.375000", "161412.865000", "161414.355000", "161415.845000", "161417.335000", "161418.825000", "161420.315000", "161421.805000", "161423.295000", "161424.785000", "161426.275000", "161427.765000", "161429.255000", "161430.745000", "161432.235000", "161433.725000", "161435.215000", "161436.705000", "161438.195000", "161439.685000", "161441.175000", "161442.665000", "161444.155000", "161445.645000", "161447.135000", "161448.625000", "161450.115000", "161451.605000", "161453.095000", "161454.585000", "161456.075000", "161457.565000", "161459.055000", "161500.545000", "161502.035000", "161503.525000", "161505.015000", "161506.505000", "161507.995000", "161509.485000", "161510.975000", "161512.465000", "161513.955000", "161515.445000", "161516.935000", "161518.425000", "161519.915000", "161521.405000", "161522.895000", "161524.385000", "161525.875000", "161527.365000", "161528.855000", "161530.345000", "161531.835000", "161533.325000", "161534.815000", "161536.305000", "161537.795000", "161539.285000", "161540.775000", "161542.265000", "161543.755000", "161545.245000", "161546.735000", "161548.225000", "161549.715000", "161551.205000", "161552.695000", "161554.185000", "161555.675000", "161557.165000", "161558.655000", "161600.145000", "161601.635000", "161603.125000", "161604.615000", "161606.105000", "161607.595000", "161609.085000", "161610.575000", "161612.065000", "161613.555000", "161615.045000", "161616.535000", "161618.025000", "161619.515000", "161621.005000", "161622.495000", "161623.985000", "161625.475000", "161626.965000", "161628.455000", "161629.945000", "161631.435000", "161632.925000", "161634.415000", "161635.905000", "161637.395000", "161638.885000", "161640.375000", "161641.865000", "161643.355000", "161644.845000", "161646.335000", "161647.825000", "161649.315000", "161650.805000", "161652.295000", "161653.785000", "161655.275000", "161656.765000", "161658.255000", "161659.745000", "161701.235000", "161702.725000", "161704.215000", "161705.705000", "161707.195000", "161708.685000", "161710.175000", "161711.665000", "161713.155000", "161714.645000", "161716.135000", "161717.625000", "161719.115000", "161720.605000", "161722.095000", "161723.585000", "161725.075000", "161726.565000", "161728.055000", "161729.545000", "161731.035000", "161732.525000", "161734.015000", "161735.505000", "161736.995000", "161738.485000", "161739.975000", "161741.465000", "161742.955000", "161744.445000", "161745.935000", "161747.425000", "161748.915000", "161750.405000", "161751.895000", "161753.385000", "161754.875000", "161756.365000", "161757.855000", "161759.345000", "161800.835000", "161802.325000", "161803.815000", "161805.305000", "161806.795000", "161808.285000", "161809.775000", "161811.265000", "161812.755000", "161814.245000", "161815.735000", "161817.225000", "161818.715000", "161820.205000", "161821.695000", "161823.185000", "161824.675000", "161826.165000", "161827.655000", "161829.145000", "161830.635000", "161832.125000", "161833.615000", "161835.105000", "161836.595000", "161838.085000", "161839.575000", "161841.065000", "161842.555000", "161844.045000", "161845.535000", "161847.025000", "161848.515000", "161850.005000", "161851.495000", "161852.985000", "161854.475000", "161855.965000", "161857.455000", "161858.945000", "161900.435000", "161901.925000", "161903.415000", "161904.905000", "161906.395000", "161907.885000", "161909.375000", "161910.865000", "161912.355000", "161913.845000", "161915.335000", "161916.825000", "161918.315000", "161919.805000", "161921.295000", "161922.785000", "161924.275000", "161925.765000", "161927.255000", "161928.745000", "161930.235000", "161931.725000", "161933.215000", "161934.705000", "161936.195000", "161937.685000", "161939.175000", "161940.665000", "161942.155000", "161943.645000", "161945.135000", "161946.625000", "161948.115000", "161949.605000", "161951.095000", "161952.585000", "161954.075000", "161955.565000", "161957.055000", "161958.545000", "162000.035000", "162001.525000", "162003.015000", "162004.505000", "162005.995000", "162007.485000", "162008.975000", "162010.465000", "162011.955000", "162013.445000", "162014.935000", "162016.425000", "162017.915000", "162019.405000", "162020.895000", "162022.385000", "162023.875000", "162025.365000", "162026.855000", "162028.345000", "162029.835000", "162031.325000", "162032.815000", "162034.305000", "162035.795000", "162037.285000", "162038.775000", "162040.265000", "162041.755000", "162043.245000", "162044.735000", "162046.225000", "162047.715000", "162049.205000", "162050.695000", "162052.185000", "162053.675000", "162055.165000", "162056.655000", "162058.145000", "162059.635000", "162101.125000", "162102.615000", "162104.105000", "162105.595000", "162107.085000", "162108.575000", "162110.065000", "162111.555000", "162113.045000", "162114.535000", "162116.025000", "162117.515000", "162119.005000", "162120.495000", "162121.985000", "162123.475000", "162124.965000", "162126.455000", "162127.945000", "162129.435000", "162130.925000", "162132.415000", "162133.905000", "162135.395000", "162136.885000", "162138.375000", "162139.865000", "162141.355000", "162142.845000", "162144.335000", "162145.825000", "162147.315000", "162148.805000", "162150.295000", "162151.785000", "162153.275000", "162154.765000", "162156.255000", "162157.745000", "162159.235000", "162200.725000", "162202.215000", "162203.705000", "162205.195000", "162206.685000", "162208.175000", "162209.665000", "162211.155000", "162212.645000", "162214.135000", "162215.625000", "162217.115000", "162218.605000", "162220.095000", "162221.585000", "162223.075000", "162224.565000", "162226.055000", "162227.545000", "162229.035000", "162230.525000", "162232.015000", "162233.505000", "162234.995000", "162236.485000", "162237.975000", "162239.465000", "162240.955000", "162242.445000", "162243.935000", "162245.425000", "162246.915000", "162248.405000", "162249.895000", "162251.385000", "162252.875000", "162254.365000", "162255.855000", "162257.345000", "162258.835000", "162300.325000", "162301.815000", "162303.305000", "162304.795000", "162306.285000", "162307.775000", "162309.265000", "162310.755000", "162312.245000", "162313.735000", "162315.225000", "162316.715000", "162318.205000", "162319.695000", "162321.185000", "162322.675000", "162324.165000", "162325.655000", "162327.145000"],
      "ContentTime": ["161431.117000", "161431.121000", "161431.125000", "161431.128000", "161431.131000", "161431.134000", "161431.146000", "161431.149000", "161431.153000", "161431.156000", "161431.159000", "161431.163000", "161431.166000", "161431.169000", "161431.173000", "161431.176000", "161431.179000", "161431.182000", "161431.186000", "161431.189000", "161431.192000", "161431.196000", "161431.199000", "161431.202000", "161431.206000", "161431.209000", "161431.212000", "161431.215000", "161431.219000", "161431.222000", "161431.225000", "161431.229000", "161431.232000", "161431.235000", "161431.239000", "161431.242000", "161431.245000", "161431.248000", "161431.252000", "161450.705000", "161450.709000", "161450.712000", "161450.715000", "161450.719000", "161450.722000", "161450.726000", "161450.729000", "161450.732000", "161450.735000", "161450.739000", "161450.742000", "161450.745000", "161450.748000", "161450.752000", "161450.755000", "161450.758000", "161450.762000", "161450.765000", "161450.768000", "161510.706000", "161510.709000", "161510.713000", "161510.716000", "161510.720000", "161510.723000", "161510.727000", "161510.730000", "161510.733000", "161510.737000", "161510.740000", "161510.743000", "161510.747000", "161510.750000", "161510.753000", "161510.757000", "161510.760000", "161510.763000", "161510.767000", "161510.770000", "161510.786000", "161530.705000", "161530.709000", "161530.712000", "161530.715000", "161530.719000", "161530.722000", "161530.726000", "161530.729000", "161530.732000", "161530.736000", "161530.739000", "161530.742000", "161530.745000", "161530.749000", "161530.752000", "161530.755000", "161530.759000", "161530.762000", "161530.765000", "161530.769000", "161610.705000", "161610.709000", "161610.712000", "161610.715000", "161610.719000", "161610.722000", "161610.725000", "161610.729000", "161610.732000", "161610.736000", "161610.739000", "161610.742000", "161610.746000", "161610.749000", "161610.752000", "161610.755000", "161610.759000", "161610.762000", "161610.765000", "161610.769000", "161610.772000", "161610.775000", "161610.779000", "161610.782000", "161610.785000", "161610.789000", "161610.792000", "161610.795000", "161650.705000", "161650.709000", "161650.712000", "161650.715000", "161650.719000", "161650.722000", "161650.726000", "161650.729000", "161650.732000", "161650.736000", "161650.739000", "161650.742000", "161650.745000", "161650.749000", "161650.752000", "161650.755000", "161650.759000", "161650.762000", "161650.766000", "161650.769000", "161650.772000", "161650.776000", "161650.779000", "161650.782000", "161650.786000", "161650.789000", "161650.792000", "161730.705000", "161730.709000", "161730.712000", "161730.716000", "161730.719000", "161730.722000", "161730.726000", "161730.729000", "161730.732000", "161730.736000", "161730.739000", "161730.758000", "161730.761000", "161730.764000", "161730.768000", "161730.780000", "161730.783000", "161730.786000", "161730.790000", "161730.793000", "161730.796000", "161730.799000", "161730.803000", "161730.806000", "161730.810000", "161730.813000", "161730.816000", "161810.705000", "161810.709000", "161810.712000", "161810.716000", "161810.733000", "161810.736000", "161810.739000", "161810.743000", "161810.746000", "161810.749000", "161810.753000", "161810.756000", "161810.760000", "161810.763000", "161810.766000", "161810.769000", "161810.773000", "161810.776000", "161810.779000", "161810.783000", "161810.786000", "161810.789000", "161810.793000", "161810.796000", "161810.799000", "161810.803000", "161810.806000", "161850.705000", "161850.709000", "161850.712000", "161850.716000", "161850.719000", "161850.722000", "161850.726000", "161850.729000", "161850.733000", "161850.737000", "161850.740000", "161850.743000", "161850.747000", "161850.750000", "161850.754000", "161850.757000", "161850.760000", "161850.763000", "161850.767000", "161850.770000", "161850.774000", "161850.777000", "161850.780000", "161850.783000", "161850.787000", "161850.790000", "161930.705000", "161930.709000", "161930.712000", "161930.715000", "161930.719000", "161930.722000", "161930.726000", "161930.729000", "161930.732000", "161930.735000", "161930.739000", "161930.742000", "161930.746000", "161930.749000", "161930.752000", "161930.756000", "161930.759000", "161930.762000", "161930.766000", "161930.769000", "161930.773000", "161930.776000", "161930.779000", "161930.783000", "161930.786000", "161930.789000", "161930.792000", "162010.705000", "162010.709000", "162010.712000", "162010.715000", "162010.730000", "162010.733000", "162010.736000", "162010.740000", "162010.743000", "162010.747000", "162010.750000", "162010.753000", "162010.757000", "162010.761000", "162010.764000", "162010.767000", "162010.771000", "162010.774000", "162010.777000", "162010.781000", "162010.784000", "162010.787000", "162010.791000", "162010.794000", "162010.797000", "162010.801000", "162010.804000", "162050.705000", "162050.709000", "162050.712000", "162050.716000", "162050.719000", "162050.722000", "162050.726000", "162050.729000", "162050.732000", "162050.736000", "162050.739000", "162050.743000", "162050.746000", "162050.749000", "162050.753000", "162050.756000", "162050.759000", "162050.763000", "162050.766000", "162050.769000", "162050.773000", "162050.776000", "162050.793000", "162050.796000", "162050.799000", "162050.802000", "162050.806000", "162130.705000", "162130.709000", "162130.712000", "162130.715000", "162130.719000", "162130.722000", "162130.725000", "162130.729000", "162130.732000", "162130.736000", "162130.739000", "162130.742000", "162130.746000", "162130.749000", "162130.752000", "162130.756000", "162130.759000", "162130.762000", "162130.766000", "162130.769000", "162130.773000", "162130.776000", "162130.779000", "162130.782000", "162130.786000", "162130.789000", "162130.793000", "162210.705000", "162210.709000", "162210.712000", "162210.716000", "162210.719000", "162210.722000", "162210.726000", "162210.729000", "162210.733000", "162210.736000", "162210.740000", "162210.743000", "162210.746000", "162210.749000", "162210.754000", "162210.758000", "162210.768000", "162210.771000", "162210.775000", "162210.778000", "162210.781000", "162210.784000", "162210.788000", "162210.791000", "162210.794000", "162210.797000", "162210.801000", "162250.705000", "162250.709000", "162250.712000", "162250.716000", "162250.719000", "162250.722000", "162250.725000", "162250.736000", "162250.740000", "162250.743000", "162250.746000", "162250.750000", "162250.754000", "162250.759000", "162250.763000", "162250.767000", "162250.771000", "162250.775000", "162250.778000", "162250.782000", "162250.785000", "162250.789000", "162250.792000", "162250.796000", "162250.799000", "162250.802000", "162330.707000", "162330.710000", "162330.714000", "162330.717000", "162330.720000", "162330.724000", "162330.727000", "162330.730000", "162330.733000", "162330.737000", "162330.740000", "162330.743000", "162330.747000", "162330.750000", "162330.753000", "162330.757000", "162330.760000", "162330.763000", "162330.766000", "162330.770000", "162330.773000", "162330.776000", "162330.780000", "162330.783000", "162330.786000", "162330.789000", "162330.793000"],
      "InstanceCreationTime": ["161431.117000", "161431.121000", "161431.125000", "161431.128000", "161431.131000", "161431.134000", "161431.146000", "161431.149000", "161431.153000", "161431.156000", "161431.159000", "161431.163000", "161431.166000", "161431.169000", "161431.173000", "161431.176000", "161431.179000", "161431.182000", "161431.186000", "161431.189000", "161431.192000", "161431.196000", "161431.199000", "161431.202000", "161431.206000", "161431.209000", "161431.212000", "161431.215000", "161431.219000", "161431.222000", "161431.225000", "161431.229000", "161431.232000", "161431.235000", "161431.239000", "161431.242000", "161431.245000", "161431.248000", "161431.252000", "161450.705000", "161450.709000", "161450.712000", "161450.715000", "161450.719000", "161450.722000", "161450.726000", "161450.729000", "161450.732000", "161450.735000", "161450.739000", "161450.742000", "161450.745000", "161450.748000", "161450.752000", "161450.755000", "161450.758000", "161450.762000", "161450.765000", "161450.768000", "161510.706000", "161510.709000", "161510.713000", "161510.716000", "161510.720000", "161510.723000", "161510.727000", "161510.730000", "161510.733000", "161510.737000", "161510.740000", "161510.743000", "161510.747000", "161510.750000", "161510.753000", "161510.757000", "161510.760000", "161510.763000", "161510.767000", "161510.770000", "161510.786000", "161530.705000", "161530.709000", "161530.712000", "161530.715000", "161530.719000", "161530.722000", "161530.726000", "161530.729000", "161530.732000", "161530.736000", "161530.739000", "161530.742000", "161530.745000", "161530.749000", "161530.752000", "161530.755000", "161530.759000", "161530.762000", "161530.765000", "161530.769000", "161610.705000", "161610.709000", "161610.712000", "161610.715000", "161610.719000", "161610.722000", "161610.725000", "161610.729000", "161610.732000", "161610.736000", "161610.739000", "161610.742000", "161610.746000", "161610.749000", "161610.752000", "161610.755000", "161610.759000", "161610.762000", "161610.765000", "161610.769000", "161610.772000", "161610.775000", "161610.779000", "161610.782000", "161610.785000", "161610.789000", "161610.792000", "161610.795000", "161650.705000", "161650.709000", "161650.712000", "161650.715000", "161650.719000", "161650.722000", "161650.726000", "161650.729000", "161650.732000", "161650.736000", "161650.739000", "161650.742000", "161650.745000", "161650.749000", "161650.752000", "161650.755000", "161650.759000", "161650.762000", "161650.766000", "161650.769000", "161650.772000", "161650.776000", "161650.779000", "161650.782000", "161650.786000", "161650.789000", "161650.792000", "161730.705000", "161730.709000", "161730.712000", "161730.716000", "161730.719000", "161730.722000", "161730.726000", "161730.729000", "161730.732000", "161730.736000", "161730.739000", "161730.758000", "161730.761000", "161730.764000", "161730.768000", "161730.780000", "161730.783000", "161730.786000", "161730.790000", "161730.793000", "161730.796000", "161730.799000", "161730.803000", "161730.806000", "161730.810000", "161730.813000", "161730.816000", "161810.705000", "161810.709000", "161810.712000", "161810.716000", "161810.733000", "161810.736000", "161810.739000", "161810.743000", "161810.746000", "161810.749000", "161810.753000", "161810.756000", "161810.760000", "161810.763000", "161810.766000", "161810.769000", "161810.773000", "161810.776000", "161810.779000", "161810.783000", "161810.786000", "161810.789000", "161810.793000", "161810.796000", "161810.799000", "161810.803000", "161810.806000", "161850.705000", "161850.709000", "161850.712000", "161850.716000", "161850.719000", "161850.722000", "161850.726000", "161850.729000", "161850.733000", "161850.737000", "161850.740000", "161850.743000", "161850.747000", "161850.750000", "161850.754000", "161850.757000", "161850.760000", "161850.763000", "161850.767000", "161850.770000", "161850.774000", "161850.777000", "161850.780000", "161850.783000", "161850.787000", "161850.790000", "161930.705000", "161930.709000", "161930.712000", "161930.715000", "161930.719000", "161930.722000", "161930.726000", "161930.729000", "161930.732000", "161930.735000", "161930.739000", "161930.742000", "161930.746000", "161930.749000", "161930.752000", "161930.756000", "161930.759000", "161930.762000", "161930.766000", "161930.769000", "161930.773000", "161930.776000", "161930.779000", "161930.783000", "161930.786000", "161930.789000", "161930.792000", "162010.705000", "162010.709000", "162010.712000", "162010.715000", "162010.730000", "162010.733000", "162010.736000", "162010.740000", "162010.743000", "162010.747000", "162010.750000", "162010.753000", "162010.757000", "162010.761000", "162010.764000", "162010.767000", "162010.771000", "162010.774000", "162010.777000", "162010.781000", "162010.784000", "162010.787000", "162010.791000", "162010.794000", "162010.797000", "162010.801000", "162010.804000", "162050.705000", "162050.709000", "162050.712000", "162050.716000", "162050.719000", "162050.722000", "162050.726000", "162050.729000", "162050.732000", "162050.736000", "162050.739000", "162050.743000", "162050.746000", "162050.749000", "162050.753000", "162050.756000", "162050.759000", "162050.763000", "162050.766000", "162050.769000", "162050.773000", "162050.776000", "162050.793000", "162050.796000", "162050.799000", "162050.802000", "162050.806000", "162130.705000", "162130.709000", "162130.712000", "162130.715000", "162130.719000", "162130.722000", "162130.725000", "162130.729000", "162130.732000", "162130.736000", "162130.739000", "162130.742000", "162130.746000", "162130.749000", "162130.752000", "162130.756000", "162130.759000", "162130.762000", "162130.766000", "162130.769000", "162130.773000", "162130.776000", "162130.779000", "162130.782000", "162130.786000", "162130.789000", "162130.793000", "162210.705000", "162210.709000", "162210.712000", "162210.716000", "162210.719000", "162210.722000", "162210.726000", "162210.729000", "162210.733000", "162210.736000", "162210.740000", "162210.743000", "162210.746000", "162210.749000", "162210.754000", "162210.758000", "162210.768000", "162210.771000", "162210.775000", "162210.778000", "162210.781000", "162210.784000", "162210.788000", "162210.791000", "162210.794000", "162210.797000", "162210.801000", "162250.705000", "162250.709000", "162250.712000", "162250.716000", "162250.719000", "162250.722000", "162250.725000", "162250.736000", "162250.740000", "162250.743000", "162250.746000", "162250.750000", "162250.754000", "162250.759000", "162250.763000", "162250.767000", "162250.771000", "162250.775000", "162250.778000", "162250.782000", "162250.785000", "162250.789000", "162250.792000", "162250.796000", "162250.799000", "162250.802000", "162330.707000", "162330.710000", "162330.714000", "162330.717000", "162330.720000", "162330.724000", "162330.727000", "162330.730000", "162330.733000", "162330.737000", "162330.740000", "162330.743000", "162330.747000", "162330.750000", "162330.753000", "162330.757000", "162330.760000", "162330.763000", "162330.766000", "162330.770000", "162330.773000", "162330.776000", "162330.780000", "162330.783000", "162330.786000", "162330.789000", "162330.793000"],
