{
  "AcquisitionMatrixPE": 104,
  "AcquisitionNumber": 1,
  "AcquisitionTime": "16:00:16.142500",
  "BandwidthPerPixelPhaseEncode": 17.17,
  "BaseResolution": 104,
  "BodyPartExamined": "BRAIN",
  "CoilCombinationMethod": "Sum of Squares",
  "ConsistencyInfo": "N4_VE11C_LATEST_20160120",
  "ConversionSoftware": "dcm2niix",
  "ConversionSoftwareVersion": "v1.0.20211006",
  "DerivedVendorReportedEchoSpacing": 0.000560011,
  "DeviceSerialNumber": "167006",
  "DwellTime": 2.1e-06,
  "EchoTime": 0.037,
  "EchoTrainLength": 104,
  "EffectiveEchoSpacing": 0.000560011,
  "FlipAngle": 52,
  "HeudiconvVersion": "0.5.3.post569+g418601f",
  "ImageComments": "Unaliased MB4/PE3/LB",
  "ImageOrientationPatientDICOM": [0.999081, -0.0414854, -0.010774, 0.0362855, 0.952433, -0.302579],
  "ImageOrientationText": "Tra>Cor(-17.6)>Sag(-1.3)",
  "ImageType": [
    "ORIGINAL",
    "PRIMARY",
    "M",
    "MB",
    "ND",
    "MOSAIC"
],
  "ImagingFrequency": 123.259,
  "InPlanePhaseEncodingDirectionDICOM": "COL",
  "InstitutionAddress": "Chemin Queen-Mary 4565,Montreal,District,CA,H3W 1W5",
  "InstitutionName": "IUGM",
  "InstitutionalDepartmentName": "Department",
  "MRAcquisitionType": "2D",
  "MagneticFieldStrength": 3,
  "Manufacturer": "Siemens",
  "ManufacturersModelName": "Prisma_fit",
  "MatrixCoilMode": "SENSE",
  "Modality": "MR",
  "MultibandAccelerationFactor": 4,
  "PartialFourier": 1,
  "PatientPosition": "HFS",
  "PercentPhaseFOV": 100,
  "PercentSampling": 100,
  "PhaseEncodingDirection": "j",
  "PhaseEncodingSteps": 104,
  "PhaseResolution": 1,
  "PixelBandwidth": 2290,
  "ProcedureStepDescription": "games^mario",
  "ProtocolName": "func_task-mario_run-04",
  "PulseSequenceDetails": "%CustomerSeq%\\cmrr_mbep2d_bold",
  "ReceiveCoilActiveElements": "HC1-7;NC1,2",
  "ReceiveCoilName": "HeadNeck_64",
  "ReconMatrixPE": 104,
  "RepetitionTime": 1.49,
  "SAR": 0.0388093,
  "ScanOptions": "FS",
  "ScanningSequence": "EP",
  "SequenceName": "epfid2d1_104",
  "SequenceVariant": "SK\\SS",
  "SeriesDescription": "func_task-mario_run-04",
  "SeriesNumber": 19,
  "ShimSetting": [624, -7254, -8837, 594, -1, -225, -47, -24],
  "SliceThickness": 2,
  "SliceTiming": [0, 0.7825, 0.0975, 0.88, 0.195, 0.98, 0.2925, 1.0775, 0.39, 1.175, 0.49, 1.2725, 0.5875, 1.37, 0.685, 0, 0.7825, 0.0975, 0.88, 0.195, 0.98, 0.2925, 1.0775, 0.39, 1.175, 0.49, 1.2725, 0.5875, 1.37, 0.685, 0, 0.7825, 0.0975, 0.88, 0.195, 0.98, 0.2925, 1.0775, 0.39, 1.175, 0.49, 1.2725, 0.5875, 1.37, 0.685, 0, 0.7825, 0.0975, 0.88, 0.195, 0.98, 0.2925, 1.0775, 0.39, 1.175, 0.49, 1.2725, 0.5875, 1.37, 0.685],
  "SoftwareVersions": "syngo MR E11",
  "SpacingBetweenSlices": 2,
  "StationName": "MRC35049",
  "TaskName": "mario",
  "TotalReadoutTime": 0.0576811,
  "TxRefAmp": 234.049,
  "WipMemBlock": "7be5c8bd-4ff0-45aa-a920-e9dac4818968||Sequence: R016 ve11c/master r/e634e98; Dec 19 2017 11:00:25 by eja",
  "dcmmeta_affine": [
    [-1.998162031173706, 0.07257093489170074, -0.045628320425748825, 104.04368591308594],
    [0.08297087997198105, 1.9048664569854736, -0.6038208603858948, -71.93013763427734],
    [-0.021548008546233177, 0.6051588654518127, 1.906126618385315, -65.374267578125],
    [0.0, 0.0, 0.0, 1.0]
],
  "dcmmeta_reorient_transform": [
    [0.0, -1.0, 0.0, 103.0],
    [1.0, 0.0, 0.0, 0.0],
    [0.0, 0.0, 1.0, 0.0],
    [0.0, 0.0, 0.0, 1.0]
],
  "dcmmeta_shape": [104, 104, 60, 432],
  "dcmmeta_slice_dim": 2,
  "dcmmeta_version": 0.6,
  "global": {
    "const": {
      "AcquisitionMatrix": [104, 0, 0, 104],
      "AngioFlag": "N",
      "BitsAllocated": 16,
      "BitsStored": 16,
      "BodyPartExamined": "BRAIN",
      "Columns": 832,
      "EchoNumbers": 1,
      "EchoTime": 37.0,
      "EchoTrainLength": 104,
      "FlipAngle": 52.0,
      "HighBit": 15,
      "ImageOrientationPatient": [0.99908101723972, -0.0414854411231, -0.0107740041801, 0.03628546616254, 0.95243322639348, -0.3025794345409],
      "ImagePositionPatient": [-865.26529056778, -787.44109289792, 225.07839673973],
      "ImageType": [
        "ORIGINAL",
        "PRIMARY",
        "M",
        "MB",
        "ND",
        "MOSAIC"
],
      "ImagedNucleus": "1H",
      "ImagingFrequency": 123.258831,
      "InPlanePhaseEncodingDirection": "COL",
      "MRAcquisitionType": "2D",
      "MagneticFieldStrength": 3.0,
      "Manufacturer": "SIEMENS",
      "ManufacturerModelName": "Prisma_fit",
      "Modality": "MR",
      "NumberOfAverages": 1.0,
      "NumberOfPhaseEncodingSteps": 104,
      "PercentPhaseFieldOfView": 100.0,
      "PercentSampling": 100.0,
      "PerformedProcedureStepStartTime": "145110.560000",
      "PhotometricInterpretation": "MONOCHROME2",
      "PixelBandwidth": 2290.0,
      "PixelRepresentation": 0,
      "PixelSpacing": [2.0, 2.0],
      "ProtocolName": "func_task-mario_run-04",
      "RepetitionTime": 1490.0,
      "Rows": 832,
      "SAR": 0.03880930410744,
      "SamplesPerPixel": 1,
      "ScanOptions": "FS",
      "ScanningSequence": "EP",
      "SequenceName": "epfid2d1_104",
      "SequenceVariant": [
        "SK",
        "SS"
],
      "SeriesDescription": "func_task-mario_run-04",
      "SeriesNumber": 19,
      "SeriesTime": "160131.049000",
      "SliceLocation": -42.963026114862,
      "SliceThickness": 2.0,
      "SmallestImagePixelValue": 0,
      "SoftwareVersions": "syngo MR E11",
      "SpacingBetweenSlices": 2.0000000171945,
      "SpecificCharacterSet": "ISO_IR 100",
      "StudyID": "1",
      "StudyTime": "145110.402000",
      "TransmitCoilName": "Body",
      "VariableFlipAngleFlag": "N",
      "WindowCenterWidthExplanation": "Algo1",
      "dBdt": 0.0},
    "slices": {}
  },
  "time": {
    "samples": {
      "AcquisitionNumber": [1, 2, 3, 4, 5, 6, 7, 8, 9, 10, 11, 12, 13, 14, 15, 16, 17, 18, 19, 20, 21, 22, 23, 24, 25, 26, 27, 28, 29, 30, 31, 32, 33, 34, 35, 36, 37, 38, 39, 40, 41, 42, 43, 44, 45, 46, 47, 48, 49, 50, 51, 52, 53, 54, 55, 56, 57, 58, 59, 60, 61, 62, 63, 64, 65, 66, 67, 68, 69, 70, 71, 72, 73, 74, 75, 76, 77, 78, 79, 80, 81, 82, 83, 84, 85, 86, 87, 88, 89, 90, 91, 92, 93, 94, 95, 96, 97, 98, 99, 100, 101, 102, 103, 104, 105, 106, 107, 108, 109, 110, 111, 112, 113, 114, 115, 116, 117, 118, 119, 120, 121, 122, 123, 124, 125, 126, 127, 128, 129, 130, 131, 132, 133, 134, 135, 136, 137, 138, 139, 140, 141, 142, 143, 144, 145, 146, 147, 148, 149, 150, 151, 152, 153, 154, 155, 156, 157, 158, 159, 160, 161, 162, 163, 164, 165, 166, 167, 168, 169, 170, 171, 172, 173, 174, 175, 176, 177, 178, 179, 180, 181, 182, 183, 184, 185, 186, 187, 188, 189, 190, 191, 192, 193, 194, 195, 196, 197, 198, 199, 200, 201, 202, 203, 204, 205, 206, 207, 208, 209, 210, 211, 212, 213, 214, 215, 216, 217, 218, 219, 220, 221, 222, 223, 224, 225, 226, 227, 228, 229, 230, 231, 232, 233, 234, 235, 236, 237, 238, 239, 240, 241, 242, 243, 244, 245, 246, 247, 248, 249, 250, 251, 252, 253, 254, 255, 256, 257, 258, 259, 260, 261, 262, 263, 264, 265, 266, 267, 268, 269, 270, 271, 272, 273, 274, 275, 276, 277, 278, 279, 280, 281, 282, 283, 284, 285, 286, 287, 288, 289, 290, 291, 292, 293, 294, 295, 296, 297, 298, 299, 300, 301, 302, 303, 304, 305, 306, 307, 308, 309, 310, 311, 312, 313, 314, 315, 316, 317, 318, 319, 320, 321, 322, 323, 324, 325, 326, 327, 328, 329, 330, 331, 332, 333, 334, 335, 336, 337, 338, 339, 340, 341, 342, 343, 344, 345, 346, 347, 348, 349, 350, 351, 352, 353, 354, 355, 356, 357, 358, 359, 360, 361, 362, 363, 364, 365, 366, 367, 368, 369, 370, 371, 372, 373, 374, 375, 376, 377, 378, 379, 380, 381, 382, 383, 384, 385, 386, 387, 388, 389, 390, 391, 392, 393, 394, 395, 396, 397, 398, 399, 400, 401, 402, 403, 404, 405, 406, 407, 408, 409, 410, 411, 412, 413, 414, 415, 416, 417, 418, 419, 420, 421, 422, 423, 424, 425, 426, 427, 428, 429, 430, 431, 432],
      "AcquisitionTime": ["160016.142500", "160017.632500", "160019.122500", "160020.612500", "160022.102500", "160023.592500", "160025.082500", "160026.572500", "160028.062500", "160029.552500", "160031.042500", "160032.532500", "160034.022500", "160035.512500", "160037.002500", "160038.492500", "160039.982500", "160041.472500", "160042.962500", "160044.452500", "160045.942500", "160047.432500", "160048.922500", "160050.412500", "160051.902500", "160053.392500", "160054.882500", "160056.372500", "160057.862500", "160059.352500", "160100.842500", "160102.332500", "160103.822500", "160105.312500", "160106.802500", "160108.292500", "160109.782500", "160111.272500", "160112.762500", "160114.252500", "160115.742500", "160117.232500", "160118.722500", "160120.212500", "160121.702500", "160123.192500", "160124.682500", "160126.172500", "160127.662500", "160129.152500", "160130.642500", "160132.132500", "160133.622500", "160135.112500", "160136.602500", "160138.092500", "160139.582500", "160141.072500", "160142.562500", "160144.052500", "160145.542500", "160147.032500", "160148.522500", "160150.012500", "160151.502500", "160152.992500", "160154.482500", "160155.972500", "160157.462500", "160158.952500", "160200.442500", "160201.932500", "160203.422500", "160204.912500", "160206.402500", "160207.892500", "160209.382500", "160210.872500", "160212.362500", "160213.852500", "160215.342500", "160216.832500", "160218.322500", "160219.812500", "160221.302500", "160222.792500", "160224.282500", "160225.772500", "160227.262500", "160228.752500", "160230.242500", "160231.732500", "160233.222500", "160234.712500", "160236.202500", "160237.692500", "160239.182500", "160240.672500", "160242.162500", "160243.652500", "160245.142500", "160246.632500", "160248.122500", "160249.612500", "160251.102500", "160252.592500", "160254.082500", "160255.572500", "160257.062500", "160258.552500", "160300.042500", "160301.532500", "160303.022500", "160304.512500", "160306.002500", "160307.492500", "160308.982500", "160310.472500", "160311.962500", "160313.452500", "160314.942500", "160316.432500", "160317.922500", "160319.412500", "160320.902500", "160322.392500", "160323.882500", "160325.372500", "160326.862500", "160328.352500", "160329.842500", "160331.332500", "160332.822500", "160334.312500", "160335.802500", "160337.292500", "160338.782500", "160340.272500", "160341.762500", "160343.252500", "160344.742500", "160346.232500", "160347.722500", "160349.212500", "160350.702500", "160352.192500", "160353.682500", "160355.172500", "160356.662500", "160358.152500", "160359.642500", "160401.132500", "160402.622500", "160404.112500", "160405.602500", "160407.092500", "160408.582500", "160410.072500", "160411.562500", "160413.052500", "160414.542500", "160416.032500", "160417.522500", "160419.012500", "160420.502500", "160421.992500", "160423.482500", "160424.972500", "160426.462500", "160427.952500", "160429.442500", "160430.932500", "160432.422500", "160433.912500", "160435.402500", "160436.892500", "160438.382500", "160439.872500", "160441.362500", "160442.852500", "160444.342500", "160445.832500", "160447.322500", "160448.812500", "160450.302500", "160451.792500", "160453.282500", "160454.772500", "160456.262500", "160457.752500", "160459.242500", "160500.732500", "160502.222500", "160503.712500", "160505.202500", "160506.692500", "160508.182500", "160509.672500", "160511.162500", "160512.652500", "160514.142500", "160515.632500", "160517.122500", "160518.612500", "160520.102500", "160521.592500", "160523.082500", "160524.572500", "160526.062500", "160527.552500", "160529.042500", "160530.532500", "160532.022500", "160533.512500", "160535.002500", "160536.492500", "160537.982500", "160539.472500", "160540.962500", "160542.452500", "160543.942500", "160545.432500", "160546.922500", "160548.412500", "160549.902500", "160551.392500", "160552.882500", "160554.372500", "160555.862500", "160557.352500", "160558.842500", "160600.332500", "160601.822500", "160603.312500", "160604.802500", "160606.292500", "160607.782500", "160609.272500", "160610.762500", "160612.252500", "160613.742500", "160615.232500", "160616.722500", "160618.212500", "160619.702500", "160621.192500", "160622.682500", "160624.172500", "160625.662500", "160627.152500", "160628.642500", "160630.132500", "160631.622500", "160633.112500", "160634.602500", "160636.092500", "160637.582500", "160639.072500", "160640.562500", "160642.052500", "160643.542500", "160645.032500", "160646.522500", "160648.012500", "160649.502500", "160650.992500", "160652.482500", "160653.972500", "160655.462500", "160656.952500", "160658.442500", "160659.932500", "160701.422500", "160702.912500", "160704.402500", "160705.892500", "160707.382500", "160708.872500", "160710.362500", "160711.852500", "160713.342500", "160714.832500", "160716.322500", "160717.812500", "160719.302500", "160720.792500", "160722.282500", "160723.772500", "160725.262500", "160726.752500", "160728.242500", "160729.732500", "160731.222500", "160732.712500", "160734.202500", "160735.692500", "160737.182500", "160738.672500", "160740.162500", "160741.652500", "160743.142500", "160744.632500", "160746.122500", "160747.612500", "160749.102500", "160750.592500", "160752.082500", "160753.572500", "160755.062500", "160756.552500", "160758.042500", "160759.532500", "160801.022500", "160802.512500", "160804.002500", "160805.492500", "160806.982500", "160808.472500", "160809.962500", "160811.452500", "160812.942500", "160814.432500", "160815.922500", "160817.412500", "160818.902500", "160820.392500", "160821.882500", "160823.372500", "160824.862500", "160826.352500", "160827.842500", "160829.332500", "160830.822500", "160832.312500", "160833.802500", "160835.292500", "160836.782500", "160838.272500", "160839.762500", "160841.252500", "160842.742500", "160844.232500", "160845.722500", "160847.212500", "160848.702500", "160850.192500", "160851.682500", "160853.172500", "160854.662500", "160856.152500", "160857.642500", "160859.132500", "160900.622500", "160902.112500", "160903.602500", "160905.092500", "160906.582500", "160908.072500", "160909.562500", "160911.052500", "160912.542500", "160914.032500", "160915.522500", "160917.012500", "160918.502500", "160919.992500", "160921.482500", "160922.972500", "160924.462500", "160925.952500", "160927.442500", "160928.932500", "160930.422500", "160931.912500", "160933.402500", "160934.892500", "160936.382500", "160937.872500", "160939.362500", "160940.852500", "160942.342500", "160943.832500", "160945.322500", "160946.812500", "160948.302500", "160949.792500", "160951.282500", "160952.772500", "160954.262500", "160955.752500", "160957.242500", "160958.732500", "161000.222500", "161001.712500", "161003.202500", "161004.692500", "161006.182500", "161007.672500", "161009.162500", "161010.652500", "161012.142500", "161013.632500", "161015.122500", "161016.612500", "161018.102500", "161019.592500", "161021.082500", "161022.572500", "161024.062500", "161025.552500", "161027.042500", "161028.532500", "161030.022500", "161031.512500", "161033.002500", "161034.492500", "161035.982500", "161037.472500", "161038.962500", "161040.452500", "161041.942500", "161043.432500", "161044.922500", "161046.412500", "161047.902500", "161049.392500", "161050.882500", "161052.372500", "161053.862500", "161055.352500", "161056.842500", "161058.332500"],
      "ContentTime": ["160131.052000", "160131.055000", "160131.059000", "160131.062000", "160131.065000", "160131.070000", "160131.073000", "160131.077000", "160131.080000", "160131.083000", "160131.086000", "160131.090000", "160131.093000", "160131.096000", "160131.100000", "160131.103000", "160131.106000", "160131.110000", "160131.113000", "160131.116000", "160131.125000", "160150.994000", "160150.998000", "160151.002000", "160151.005000", "160151.009000", "160151.012000", "160151.015000", "160151.019000", "160151.022000", "160151.025000", "160151.029000", "160151.032000", "160151.035000", "160151.039000", "160151.042000", "160151.045000", "160151.049000", "160151.052000", "160151.055000", "160151.073000", "160210.994000", "160210.998000", "160211.002000", "160211.009000", "160211.013000", "160211.016000", "160211.019000", "160211.023000", "160211.026000", "160211.029000", "160211.032000", "160211.036000", "160211.039000", "160211.042000", "160211.046000", "160211.049000", "160211.052000", "160211.056000", "160211.059000", "160211.062000", "160211.066000", "160230.995000", "160230.999000", "160231.002000", "160231.006000", "160231.009000", "160231.012000", "160231.015000", "160231.019000", "160231.022000", "160231.025000", "160231.029000", "160231.032000", "160231.035000", "160231.039000", "160231.042000", "160231.045000", "160231.048000", "160231.052000", "160231.055000", "160231.058000", "160250.995000", "160251.000000", "160251.003000", "160251.006000", "160251.010000", "160251.013000", "160251.016000", "160251.019000", "160251.023000", "160251.026000", "160251.029000", "160251.033000", "160251.036000", "160251.039000", "160251.042000", "160251.046000", "160251.049000", "160251.053000", "160251.056000", "160251.059000", "160330.994000", "160330.998000", "160331.002000", "160331.006000", "160331.009000", "160331.012000", "160331.016000", "160331.019000", "160331.022000", "160331.026000", "160331.029000", "160331.032000", "160331.036000", "160331.039000", "160331.042000", "160331.046000", "160331.049000", "160331.052000", "160331.056000", "160331.059000", "160331.062000", "160331.066000", "160331.069000", "160331.072000", "160331.075000", "160331.079000", "160331.082000", "160331.086000", "160410.994000", "160411.003000", "160411.006000", "160411.010000", "160411.013000", "160411.016000", "160411.020000", "160411.023000", "160411.026000", "160411.030000", "160411.033000", "160411.036000", "160411.039000", "160411.061000", "160411.065000", "160411.068000", "160411.071000", "160411.075000", "160411.078000", "160411.081000", "160411.085000", "160411.088000", "160411.091000", "160411.095000", "160411.098000", "160411.101000", "160411.105000", "160450.995000", "160450.999000", "160451.002000", "160451.006000", "160451.010000", "160451.013000", "160451.016000", "160451.020000", "160451.023000", "160451.026000", "160451.030000", "160451.033000", "160451.037000", "160451.040000", "160451.043000", "160451.046000", "160451.050000", "160451.053000", "160451.056000", "160451.060000", "160451.063000", "160451.066000", "160451.070000", "160451.073000", "160451.076000", "160451.080000", "160451.083000", "160530.994000", "160530.998000", "160531.002000", "160531.006000", "160531.009000", "160531.013000", "160531.016000", "160531.019000", "160531.023000", "160531.026000", "160531.029000", "160531.033000", "160531.036000", "160531.040000", "160531.043000", "160531.046000", "160531.050000", "160531.053000", "160531.056000", "160531.060000", "160531.081000", "160531.085000", "160531.088000", "160531.092000", "160531.096000", "160531.100000", "160610.994000", "160610.998000", "160611.002000", "160611.006000", "160611.009000", "160611.020000", "160611.023000", "160611.026000", "160611.030000", "160611.033000", "160611.036000", "160611.040000", "160611.043000", "160611.046000", "160611.050000", "160611.053000", "160611.056000", "160611.060000", "160611.063000", "160611.067000", "160611.070000", "160611.073000", "160611.077000", "160611.080000", "160611.083000", "160611.087000", "160611.090000", "160650.994000", "160650.998000", "160651.002000", "160651.006000", "160651.009000", "160651.012000", "160651.016000", "160651.019000", "160651.023000", "160651.026000", "160651.029000", "160651.033000", "160651.036000", "160651.039000", "160651.042000", "160651.046000", "160651.049000", "160651.052000", "160651.056000", "160651.059000", "160651.063000", "160651.066000", "160651.069000", "160651.073000", "160651.076000", "160651.083000", "160651.087000", "160730.994000", "160730.998000", "160731.003000", "160731.006000", "160731.009000", "160731.013000", "160731.016000", "160731.019000", "160731.027000", "160731.030000", "160731.034000", "160731.037000", "160731.040000", "160731.044000", "160731.047000", "160731.050000", "160731.054000", "160731.057000", "160731.060000", "160731.064000", "160731.067000", "160731.070000", "160731.074000", "160731.077000", "160731.080000", "160731.084000", "160731.087000", "160810.994000", "160810.998000", "160811.002000", "160811.006000", "160811.009000", "160811.013000", "160811.016000", "160811.019000", "160811.023000", "160811.026000", "160811.029000", "160811.033000", "160811.036000", "160811.039000", "160811.043000", "160811.046000", "160811.050000", "160811.053000", "160811.056000", "160811.059000", "160811.063000", "160811.066000", "160811.069000", "160811.073000", "160811.076000", "160811.079000", "160811.083000", "160850.994000", "160850.998000", "160851.003000", "160851.006000", "160851.009000", "160851.013000", "160851.016000", "160851.019000", "160851.023000", "160851.026000", "160851.030000", "160851.033000", "160851.036000", "160851.040000", "160851.054000", "160851.057000", "160851.060000", "160851.064000", "160851.067000", "160851.070000", "160851.074000", "160851.077000", "160851.081000", "160851.084000", "160851.087000", "160851.090000", "160851.094000", "160930.995000", "160930.999000", "160931.003000", "160931.020000", "160931.023000", "160931.027000", "160931.030000", "160931.034000", "160931.037000", "160931.040000", "160931.044000", "160931.047000", "160931.050000", "160931.054000", "160931.057000", "160931.061000", "160931.064000", "160931.067000", "160931.072000", "160931.075000", "160931.079000", "160931.082000", "160931.085000", "160931.089000", "160931.092000", "160931.095000", "160931.099000", "161010.994000", "161010.998000", "161011.003000", "161011.006000", "161011.009000", "161011.013000", "161011.016000", "161011.019000", "161011.022000", "161011.026000", "161011.029000", "161011.033000", "161011.036000", "161011.039000", "161011.043000", "161011.046000", "161011.049000", "161011.052000", "161011.056000", "161011.059000", "161011.062000", "161011.066000", "161011.069000", "161011.072000", "161011.076000", "161011.079000", "161050.994000", "161050.998000", "161051.002000", "161051.006000", "161051.009000", "161051.013000", "161051.016000", "161051.019000", "161051.022000", "161051.026000", "161051.029000", "161051.033000", "161051.036000", "161051.039000", "161051.043000", "161051.046000", "161051.049000", "161051.053000", "161051.056000", "161051.059000", "161051.063000", "161051.066000", "161051.069000", "161051.073000", "161051.076000", "161051.080000", "161051.083000", "161100.697000", "161100.701000", "161100.704000", "161100.708000", "161100.711000", "161100.714000", "161100.718000"],
      "InstanceCreationTime": ["160131.052000", "160131.055000", "160131.059000", "160131.062000", "160131.065000", "160131.070000", "160131.073000", "160131.077000", "160131.080000", "160131.083000", "160131.086000", "160131.090000", "160131.093000", "160131.096000", "160131.100000", "160131.103000", "160131.106000", "160131.110000", "160131.113000", "160131.116000", "160131.125000", "160150.994000", "160150.998000", "160151.002000", "160151.005000", "160151.009000", "160151.012000", "160151.015000", "160151.019000", "160151.022000", "160151.025000", "160151.029000", "160151.032000", "160151.035000", "160151.039000", "160151.042000", "160151.045000", "160151.049000", "160151.052000", "160151.055000", "160151.073000", "160210.994000", "160210.998000", "160211.002000", "160211.009000", "160211.013000", "160211.016000", "160211.019000", "160211.023000", "160211.026000", "160211.029000", "160211.032000", "160211.036000", "160211.039000", "160211.042000", "160211.046000", "160211.049000", "160211.052000", "160211.056000", "160211.059000", "160211.062000", "160211.066000", "160230.995000", "160230.999000", "160231.002000", "160231.006000", "160231.009000", "160231.012000", "160231.015000", "160231.019000", "160231.022000", "160231.025000", "160231.029000", "160231.032000", "160231.035000", "160231.039000", "160231.042000", "160231.045000", "160231.048000", "160231.052000", "160231.055000", "160231.058000", "160250.995000", "160251.000000", "160251.003000", "160251.006000", "160251.010000", "160251.013000", "160251.016000", "160251.019000", "160251.023000", "160251.026000", "160251.029000", "160251.033000", "160251.036000", "160251.039000", "160251.042000", "160251.046000", "160251.049000", "160251.053000", "160251.056000", "160251.059000", "160330.994000", "160330.998000", "160331.002000", "160331.006000", "160331.009000", "160331.012000", "160331.016000", "160331.019000", "160331.022000", "160331.026000", "160331.029000", "160331.032000", "160331.036000", "160331.039000", "160331.042000", "160331.046000", "160331.049000", "160331.052000", "160331.056000", "160331.059000", "160331.062000", "160331.066000", "160331.069000", "160331.072000", "160331.075000", "160331.079000", "160331.082000", "160331.086000", "160410.994000", "160411.003000", "160411.006000", "160411.010000", "160411.013000", "160411.016000", "160411.020000", "160411.023000", "160411.026000", "160411.030000", "160411.033000", "160411.036000", "160411.039000", "160411.061000", "160411.065000", "160411.068000", "160411.071000", "160411.075000", "160411.078000", "160411.081000", "160411.085000", "160411.088000", "160411.091000", "160411.095000", "160411.098000", "160411.101000", "160411.105000", "160450.995000", "160450.999000", "160451.002000", "160451.006000", "160451.010000", "160451.013000", "160451.016000", "160451.020000", "160451.023000", "160451.026000", "160451.030000", "160451.033000", "160451.037000", "160451.040000", "160451.043000", "160451.046000", "160451.050000", "160451.053000", "160451.056000", "160451.060000", "160451.063000", "160451.066000", "160451.070000", "160451.073000", "160451.076000", "160451.080000", "160451.083000", "160530.994000", "160530.998000", "160531.002000", "160531.006000", "160531.009000", "160531.013000", "160531.016000", "160531.019000", "160531.023000", "160531.026000", "160531.029000", "160531.033000", "160531.036000", "160531.040000", "160531.043000", "160531.046000", "160531.050000", "160531.053000", "160531.056000", "160531.060000", "160531.081000", "160531.085000", "160531.088000", "160531.092000", "160531.096000", "160531.100000", "160610.994000", "160610.998000", "160611.002000", "160611.006000", "160611.009000", "160611.020000", "160611.023000", "160611.026000", "160611.030000", "160611.033000", "160611.036000", "160611.040000", "160611.043000", "160611.046000", "160611.050000", "160611.053000", "160611.056000", "160611.060000", "160611.063000", "160611.067000", "160611.070000", "160611.073000", "160611.077000", "160611.080000", "160611.083000", "160611.087000", "160611.090000", "160650.994000", "160650.998000", "160651.002000", "160651.006000", "160651.009000", "160651.012000", "160651.016000", "160651.019000", "160651.023000", "160651.026000", "160651.029000", "160651.033000", "160651.036000", "160651.039000", "160651.042000", "160651.046000", "160651.049000", "160651.052000", "160651.056000", "160651.059000", "160651.063000", "160651.066000", "160651.069000", "160651.073000", "160651.076000", "160651.083000", "160651.087000", "160730.994000", "160730.998000", "160731.003000", "160731.006000", "160731.009000", "160731.013000", "160731.016000", "160731.019000", "160731.027000", "160731.030000", "160731.034000", "160731.037000", "160731.040000", "160731.044000", "160731.047000", "160731.050000", "160731.054000", "160731.057000", "160731.060000", "160731.064000", "160731.067000", "160731.070000", "160731.074000", "160731.077000", "160731.080000", "160731.084000", "160731.087000", "160810.994000", "160810.998000", "160811.002000", "160811.006000", "160811.009000", "160811.013000", "160811.016000", "160811.019000", "160811.023000", "160811.026000", "160811.029000", "160811.033000", "160811.036000", "160811.039000", "160811.043000", "160811.046000", "160811.050000", "160811.053000", "160811.056000", "160811.059000", "160811.063000", "160811.066000", "160811.069000", "160811.073000", "160811.076000", "160811.079000", "160811.083000", "160850.994000", "160850.998000", "160851.003000", "160851.006000", "160851.009000", "160851.013000", "160851.016000", "160851.019000", "160851.023000", "160851.026000", "160851.030000", "160851.033000", "160851.036000", "160851.040000", "160851.054000", "160851.057000", "160851.060000", "160851.064000", "160851.067000", "160851.070000", "160851.074000", "160851.077000", "160851.081000", "160851.084000", "160851.087000", "160851.090000", "160851.094000", "160930.995000", "160930.999000", "160931.003000", "160931.020000", "160931.023000", "160931.027000", "160931.030000", "160931.034000", "160931.037000", "160931.040000", "160931.044000", "160931.047000", "160931.050000", "160931.054000", "160931.057000", "160931.061000", "160931.064000", "160931.067000", "160931.072000", "160931.075000", "160931.079000", "160931.082000", "160931.085000", "160931.089000", "160931.092000", "160931.095000", "160931.099000", "161010.994000", "161010.998000", "161011.003000", "161011.006000", "161011.009000", "161011.013000", "161011.016000", "161011.019000", "161011.022000", "161011.026000", "161011.029000", "161011.033000", "161011.036000", "161011.039000", "161011.043000", "161011.046000", "161011.049000", "161011.052000", "161011.056000", "161011.059000", "161011.062000", "161011.066000", "161011.069000", "161011.072000", "161011.076000", "161011.079000", "161050.994000", "161050.998000", "161051.002000", "161051.006000", "161051.009000", "161051.013000", "161051.016000", "161051.019000", "161051.022000", "161051.026000", "161051.029000", "161051.033000", "161051.036000", "161051.039000", "161051.043000", "161051.046000", "161051.049000", "161051.053000", "161051.056000", "161051.059000", "161051.063000", "161051.066000", "161051.069000", "161051.073000", "161051.076000", "161051.080000", "161051.083000", "161100.697000", "161100.701000", "161100.704000", "161100.708000", "161100.711000", "161100.714000", "161100.718000"],
