{
  "AcquisitionMatrixPE": 104,
  "AcquisitionNumber": 1,
  "AcquisitionTime": "16:12:1.175000",
  "BandwidthPerPixelPhaseEncode": 17.17,
  "BaseResolution": 104,
  "BodyPartExamined": "BRAIN",
  "CoilString": "HC1-7;NC1_2",
  "ConsistencyInfo": "N4_VE11C_LATEST_20160120",
  "ConversionSoftware": "dcm2niix",
  "ConversionSoftwareVersion": "v1.0.20190902",
  "DerivedVendorReportedEchoSpacing": 0.000560011,
  "DeviceSerialNumber": "167006",
  "DwellTime": 2.1e-06,
  "EchoTime": 0.037,
  "EchoTrainLength": 104,
  "EffectiveEchoSpacing": 0.000560011,
  "FlipAngle": 52,
  "HeudiconvVersion": "0.10.0",
  "ImageComments": "Unaliased_MB4_PE3_LB",
  "ImageOrientationPatientDICOM": [0.999402, -0.0296309, 0.0178403, 0.0338521, 0.943771, -0.328863],
  "ImageType": [
    "ORIGINAL",
    "PRIMARY",
    "M",
    "MB",
    "ND",
    "MOSAIC"
],
  "ImagingFrequency": 123.259,
  "InPlanePhaseEncodingDirectionDICOM": "COL",
  "InstitutionAddress": "Chemin_Queen-Mary_4565_Montreal_District_CA_H3W_1W5",
  "InstitutionName": "IUGM",
  "InstitutionalDepartmentName": "Department",
  "MRAcquisitionType": "2D",
  "MagneticFieldStrength": 3,
  "Manufacturer": "Siemens",
  "ManufacturersModelName": "Prisma_fit",
  "Modality": "MR",
  "MultibandAccelerationFactor": 4,
  "PartialFourier": 1,
  "PatientPosition": "HFS",
  "PercentPhaseFOV": 100,
  "PhaseEncodingDirection": "j",
  "PhaseEncodingSteps": 104,
  "PhaseResolution": 1,
  "PixelBandwidth": 2290,
  "ProcedureStepDescription": "games_mario",
  "ProtocolName": "func_task-mario_run-02",
  "PulseSequenceDetails": "%CustomerSeq%_cmrr_mbep2d_bold",
  "ReceiveCoilActiveElements": "HC1-7;NC1,2",
  "ReceiveCoilName": "HeadNeck_64",
  "ReconMatrixPE": 104,
  "RepetitionTime": 1.49,
  "SAR": 0.054369,
  "ScanOptions": "FS",
  "ScanningSequence": "EP",
  "SequenceName": "epfid2d1_104",
  "SequenceVariant": "SK_SS",
  "SeriesDescription": "func_task-mario_run-02",
  "SeriesNumber": 13,
  "ShimSetting": [628, -7242, -8849, 561, -3, -173, -156, -21],
  "SliceThickness": 2,
  "SliceTiming": [0, 0.785, 0.0975, 0.8825, 0.195, 0.98, 0.295, 1.0775, 0.3925, 1.175, 0.49, 1.275, 0.5875, 1.3725, 0.685, 0, 0.785, 0.0975, 0.8825, 0.195, 0.98, 0.295, 1.0775, 0.3925, 1.175, 0.49, 1.275, 0.5875, 1.3725, 0.685, 0, 0.785, 0.0975, 0.8825, 0.195, 0.98, 0.295, 1.0775, 0.3925, 1.175, 0.49, 1.275, 0.5875, 1.3725, 0.685, 0, 0.785, 0.0975, 0.8825, 0.195, 0.98, 0.295, 1.0775, 0.3925, 1.175, 0.49, 1.275, 0.5875, 1.3725, 0.685],
  "SoftwareVersions": "syngo_MR_E11",
  "SpacingBetweenSlices": 2,
  "StationName": "MRC35049",
  "TaskName": "mario",
  "TotalReadoutTime": 0.0576811,
  "TxRefAmp": 261.873,
  "WipMemBlock": "1791aaa9-d3ae-4242-a2c9-c4b79128daa9||Sequence: R016 ve11c/master r/e634e98; Dec 19 2017 11:00:25 by eja",
  "dcmmeta_affine": [
    [-1.9988033771514893, 0.06770415604114532, 0.014185318723320961, 102.3501205444336],
    [0.05926185101270676, 1.88754141330719, -0.6585404872894287, -68.64869689941406],
    [0.03568065166473389, 0.6577261090278625, 1.888418197631836, -70.10465240478516],
    [0.0, 0.0, 0.0, 1.0]
],
  "dcmmeta_reorient_transform": [
    [0.0, -1.0, 0.0, 103.0],
    [1.0, 0.0, 0.0, 0.0],
    [0.0, 0.0, 1.0, 0.0],
    [0.0, 0.0, 0.0, 1.0]
],
  "dcmmeta_shape": [104, 104, 60, 442],
  "dcmmeta_slice_dim": 2,
  "dcmmeta_version": 0.6,
  "global": {
    "const": {
      "AcquisitionMatrix": [104, 0, 0, 104],
      "AngioFlag": "N",
      "BitsAllocated": 16,
      "BitsStored": 16,
      "BodyPartExamined": "BRAIN",
      "Columns": 832,
      "EchoNumbers": 1,
      "EchoTime": 37.0,
      "EchoTrainLength": 104,
      "FlipAngle": 52.0,
      "HighBit": 15,
      "ImageOrientationPatient": [0.99940168650107, -0.0296309263049, 0.01784032581328, 0.03385207824911, 0.94377069277931, -0.3288630661067],
      "ImagePositionPatient": [-861.53239001217, -791.2618126385, 224.06569302591],
      "ImageType": [
        "ORIGINAL",
        "PRIMARY",
        "M",
        "MB",
        "ND",
        "MOSAIC"
],
      "ImagedNucleus": "1H",
      "ImagingFrequency": 123.258883,
      "InPlanePhaseEncodingDirection": "COL",
      "MRAcquisitionType": "2D",
      "MagneticFieldStrength": 3.0,
      "Manufacturer": "SIEMENS",
      "ManufacturerModelName": "Prisma_fit",
      "Modality": "MR",
      "NumberOfAverages": 1.0,
      "NumberOfPhaseEncodingSteps": 104,
      "PercentPhaseFieldOfView": 100.0,
      "PercentSampling": 100.0,
      "PerformedProcedureStepStartTime": "152346.731000",
      "PhotometricInterpretation": "MONOCHROME2",
      "PixelBandwidth": 2290.0,
      "PixelRepresentation": 0,
      "PixelSpacing": [2.0, 2.0],
      "ProtocolName": "func_task-mario_run-02",
      "RepetitionTime": 1490.0,
      "Rows": 832,
      "SAR": 0.05436897317655,
      "SamplesPerPixel": 1,
      "ScanOptions": "FS",
      "ScanningSequence": "EP",
      "SequenceName": "epfid2d1_104",
      "SequenceVariant": [
        "SK",
        "SS"
],
      "SeriesDescription": "func_task-mario_run-02",
      "SeriesNumber": 13,
      "SeriesTime": "161317.665000",
      "SliceLocation": -42.863542993043,
      "SliceThickness": 2.0,
      "SmallestImagePixelValue": 0,
      "SoftwareVersions": "syngo MR E11",
      "SpacingBetweenSlices": 2.0000000453305,
      "SpecificCharacterSet": "ISO_IR 100",
      "StudyID": "1",
      "StudyTime": "152346.617000",
      "TransmitCoilName": "Body",
      "VariableFlipAngleFlag": "N",
      "WindowCenterWidthExplanation": "Algo1",
      "dBdt": 0.0},
    "slices": {}
  },
  "time": {
    "samples": {
      "AcquisitionNumber": [1, 2, 3, 4, 5, 6, 7, 8, 9, 10, 11, 12, 13, 14, 15, 16, 17, 18, 19, 20, 21, 22, 23, 24, 25, 26, 27, 28, 29, 30, 31, 32, 33, 34, 35, 36, 37, 38, 39, 40, 41, 42, 43, 44, 45, 46, 47, 48, 49, 50, 51, 52, 53, 54, 55, 56, 57, 58, 59, 60, 61, 62, 63, 64, 65, 66, 67, 68, 69, 70, 71, 72, 73, 74, 75, 76, 77, 78, 79, 80, 81, 82, 83, 84, 85, 86, 87, 88, 89, 90, 91, 92, 93, 94, 95, 96, 97, 98, 99, 100, 101, 102, 103, 104, 105, 106, 107, 108, 109, 110, 111, 112, 113, 114, 115, 116, 117, 118, 119, 120, 121, 122, 123, 124, 125, 126, 127, 128, 129, 130, 131, 132, 133, 134, 135, 136, 137, 138, 139, 140, 141, 142, 143, 144, 145, 146, 147, 148, 149, 150, 151, 152, 153, 154, 155, 156, 157, 158, 159, 160, 161, 162, 163, 164, 165, 166, 167, 168, 169, 170, 171, 172, 173, 174, 175, 176, 177, 178, 179, 180, 181, 182, 183, 184, 185, 186, 187, 188, 189, 190, 191, 192, 193, 194, 195, 196, 197, 198, 199, 200, 201, 202, 203, 204, 205, 206, 207, 208, 209, 210, 211, 212, 213, 214, 215, 216, 217, 218, 219, 220, 221, 222, 223, 224, 225, 226, 227, 228, 229, 230, 231, 232, 233, 234, 235, 236, 237, 238, 239, 240, 241, 242, 243, 244, 245, 246, 247, 248, 249, 250, 251, 252, 253, 254, 255, 256, 257, 258, 259, 260, 261, 262, 263, 264, 265, 266, 267, 268, 269, 270, 271, 272, 273, 274, 275, 276, 277, 278, 279, 280, 281, 282, 283, 284, 285, 286, 287, 288, 289, 290, 291, 292, 293, 294, 295, 296, 297, 298, 299, 300, 301, 302, 303, 304, 305, 306, 307, 308, 309, 310, 311, 312, 313, 314, 315, 316, 317, 318, 319, 320, 321, 322, 323, 324, 325, 326, 327, 328, 329, 330, 331, 332, 333, 334, 335, 336, 337, 338, 339, 340, 341, 342, 343, 344, 345, 346, 347, 348, 349, 350, 351, 352, 353, 354, 355, 356, 357, 358, 359, 360, 361, 362, 363, 364, 365, 366, 367, 368, 369, 370, 371, 372, 373, 374, 375, 376, 377, 378, 379, 380, 381, 382, 383, 384, 385, 386, 387, 388, 389, 390, 391, 392, 393, 394, 395, 396, 397, 398, 399, 400, 401, 402, 403, 404, 405, 406, 407, 408, 409, 410, 411, 412, 413, 414, 415, 416, 417, 418, 419, 420, 421, 422, 423, 424, 425, 426, 427, 428, 429, 430, 431, 432, 433, 434, 435, 436, 437, 438, 439, 440, 441, 442],
      "AcquisitionTime": ["161201.175000", "161202.665000", "161204.155000", "161205.645000", "161207.135000", "161208.625000", "161210.115000", "161211.605000", "161213.095000", "161214.585000", "161216.075000", "161217.565000", "161219.055000", "161220.545000", "161222.035000", "161223.525000", "161225.015000", "161226.505000", "161227.995000", "161229.485000", "161230.975000", "161232.465000", "161233.955000", "161235.445000", "161236.935000", "161238.425000", "161239.915000", "161241.405000", "161242.895000", "161244.385000", "161245.875000", "161247.365000", "161248.855000", "161250.345000", "161251.835000", "161253.325000", "161254.815000", "161256.305000", "161257.795000", "161259.285000", "161300.775000", "161302.265000", "161303.755000", "161305.245000", "161306.735000", "161308.225000", "161309.715000", "161311.205000", "161312.695000", "161314.185000", "161315.675000", "161317.165000", "161318.655000", "161320.145000", "161321.635000", "161323.125000", "161324.615000", "161326.105000", "161327.595000", "161329.085000", "161330.575000", "161332.065000", "161333.555000", "161335.045000", "161336.535000", "161338.025000", "161339.515000", "161341.005000", "161342.495000", "161343.985000", "161345.475000", "161346.965000", "161348.455000", "161349.945000", "161351.435000", "161352.925000", "161354.415000", "161355.905000", "161357.395000", "161358.885000", "161400.375000", "161401.865000", "161403.355000", "161404.845000", "161406.335000", "161407.825000", "161409.315000", "161410.805000", "161412.295000", "161413.785000", "161415.275000", "161416.765000", "161418.255000", "161419.745000", "161421.235000", "161422.725000", "161424.215000", "161425.705000", "161427.195000", "161428.685000", "161430.175000", "161431.665000", "161433.155000", "161434.645000", "161436.135000", "161437.625000", "161439.115000", "161440.605000", "161442.095000", "161443.585000", "161445.075000", "161446.565000", "161448.055000", "161449.545000", "161451.035000", "161452.525000", "161454.015000", "161455.505000", "161456.995000", "161458.485000", "161459.975000", "161501.465000", "161502.955000", "161504.445000", "161505.935000", "161507.425000", "161508.915000", "161510.405000", "161511.895000", "161513.385000", "161514.875000", "161516.365000", "161517.855000", "161519.345000", "161520.835000", "161522.325000", "161523.815000", "161525.305000", "161526.795000", "161528.285000", "161529.775000", "161531.265000", "161532.755000", "161534.245000", "161535.735000", "161537.225000", "161538.715000", "161540.205000", "161541.695000", "161543.185000", "161544.675000", "161546.165000", "161547.655000", "161549.145000", "161550.635000", "161552.125000", "161553.615000", "161555.105000", "161556.595000", "161558.085000", "161559.575000", "161601.065000", "161602.555000", "161604.045000", "161605.535000", "161607.025000", "161608.515000", "161610.005000", "161611.495000", "161612.985000", "161614.475000", "161615.965000", "161617.455000", "161618.945000", "161620.435000", "161621.925000", "161623.415000", "161624.905000", "161626.395000", "161627.885000", "161629.375000", "161630.865000", "161632.355000", "161633.845000", "161635.335000", "161636.825000", "161638.315000", "161639.805000", "161641.295000", "161642.785000", "161644.275000", "161645.765000", "161647.255000", "161648.745000", "161650.235000", "161651.725000", "161653.215000", "161654.705000", "161656.195000", "161657.685000", "161659.175000", "161700.665000", "161702.155000", "161703.645000", "161705.135000", "161706.625000", "161708.115000", "161709.605000", "161711.095000", "161712.585000", "161714.075000", "161715.565000", "161717.055000", "161718.545000", "161720.035000", "161721.525000", "161723.015000", "161724.505000", "161725.995000", "161727.485000", "161728.975000", "161730.465000", "161731.955000", "161733.445000", "161734.935000", "161736.425000", "161737.915000", "161739.405000", "161740.895000", "161742.385000", "161743.875000", "161745.365000", "161746.855000", "161748.345000", "161749.835000", "161751.325000", "161752.815000", "161754.305000", "161755.795000", "161757.285000", "161758.775000", "161800.265000", "161801.755000", "161803.245000", "161804.735000", "161806.225000", "161807.715000", "161809.205000", "161810.695000", "161812.185000", "161813.675000", "161815.165000", "161816.655000", "161818.145000", "161819.635000", "161821.125000", "161822.615000", "161824.105000", "161825.595000", "161827.085000", "161828.575000", "161830.065000", "161831.555000", "161833.045000", "161834.535000", "161836.025000", "161837.515000", "161839.005000", "161840.495000", "161841.985000", "161843.475000", "161844.965000", "161846.455000", "161847.945000", "161849.435000", "161850.925000", "161852.415000", "161853.905000", "161855.395000", "161856.885000", "161858.375000", "161859.865000", "161901.355000", "161902.845000", "161904.335000", "161905.825000", "161907.315000", "161908.805000", "161910.295000", "161911.785000", "161913.275000", "161914.765000", "161916.255000", "161917.745000", "161919.235000", "161920.725000", "161922.215000", "161923.705000", "161925.195000", "161926.685000", "161928.175000", "161929.665000", "161931.155000", "161932.645000", "161934.135000", "161935.625000", "161937.115000", "161938.605000", "161940.095000", "161941.585000", "161943.075000", "161944.565000", "161946.055000", "161947.545000", "161949.035000", "161950.525000", "161952.015000", "161953.505000", "161954.995000", "161956.485000", "161957.975000", "161959.465000", "162000.955000", "162002.445000", "162003.935000", "162005.425000", "162006.915000", "162008.405000", "162009.895000", "162011.385000", "162012.875000", "162014.365000", "162015.855000", "162017.345000", "162018.835000", "162020.325000", "162021.815000", "162023.305000", "162024.795000", "162026.285000", "162027.775000", "162029.265000", "162030.755000", "162032.245000", "162033.735000", "162035.225000", "162036.715000", "162038.205000", "162039.695000", "162041.185000", "162042.675000", "162044.165000", "162045.655000", "162047.145000", "162048.635000", "162050.125000", "162051.615000", "162053.105000", "162054.595000", "162056.085000", "162057.575000", "162059.065000", "162100.555000", "162102.045000", "162103.535000", "162105.025000", "162106.515000", "162108.005000", "162109.495000", "162110.985000", "162112.475000", "162113.965000", "162115.455000", "162116.945000", "162118.435000", "162119.925000", "162121.415000", "162122.905000", "162124.395000", "162125.885000", "162127.375000", "162128.865000", "162130.355000", "162131.845000", "162133.335000", "162134.825000", "162136.315000", "162137.805000", "162139.295000", "162140.785000", "162142.275000", "162143.765000", "162145.255000", "162146.745000", "162148.235000", "162149.725000", "162151.215000", "162152.705000", "162154.195000", "162155.685000", "162157.175000", "162158.665000", "162200.155000", "162201.645000", "162203.135000", "162204.625000", "162206.115000", "162207.605000", "162209.095000", "162210.585000", "162212.075000", "162213.565000", "162215.055000", "162216.545000", "162218.035000", "162219.525000", "162221.015000", "162222.505000", "162223.995000", "162225.485000", "162226.975000", "162228.465000", "162229.955000", "162231.445000", "162232.935000", "162234.425000", "162235.915000", "162237.405000", "162238.895000", "162240.385000", "162241.875000", "162243.365000", "162244.855000", "162246.345000", "162247.835000", "162249.325000", "162250.815000", "162252.305000", "162253.795000", "162255.285000", "162256.775000", "162258.265000"],
      "ContentTime": ["161317.668000", "161317.672000", "161317.675000", "161317.678000", "161317.682000", "161317.685000", "161317.697000", "161317.700000", "161317.703000", "161317.706000", "161317.710000", "161317.713000", "161317.716000", "161317.719000", "161317.723000", "161317.726000", "161317.729000", "161317.732000", "161317.736000", "161317.739000", "161317.742000", "161317.745000", "161317.748000", "161337.635000", "161337.639000", "161337.642000", "161337.645000", "161337.648000", "161337.652000", "161337.655000", "161337.658000", "161337.661000", "161337.665000", "161337.668000", "161337.671000", "161337.674000", "161337.678000", "161337.681000", "161337.684000", "161337.687000", "161337.691000", "161337.694000", "161337.697000", "161357.635000", "161357.639000", "161357.642000", "161357.645000", "161357.649000", "161357.652000", "161357.655000", "161357.658000", "161357.661000", "161357.665000", "161357.668000", "161357.671000", "161357.675000", "161357.687000", "161357.690000", "161357.694000", "161357.697000", "161357.700000", "161357.704000", "161357.707000", "161417.634000", "161417.647000", "161417.650000", "161417.653000", "161417.656000", "161417.660000", "161417.663000", "161417.666000", "161417.670000", "161417.673000", "161417.676000", "161417.679000", "161417.683000", "161417.686000", "161417.689000", "161417.693000", "161417.696000", "161417.699000", "161417.702000", "161417.706000", "161417.709000", "161437.634000", "161437.638000", "161437.641000", "161437.644000", "161437.648000", "161437.651000", "161437.654000", "161437.658000", "161437.661000", "161437.664000", "161437.667000", "161437.671000", "161437.674000", "161437.677000", "161437.680000", "161437.684000", "161437.687000", "161437.690000", "161437.693000", "161437.697000", "161517.635000", "161517.639000", "161517.642000", "161517.646000", "161517.649000", "161517.652000", "161517.655000", "161517.659000", "161517.662000", "161517.676000", "161517.679000", "161517.683000", "161517.686000", "161517.689000", "161517.692000", "161517.696000", "161517.699000", "161517.703000", "161517.706000", "161517.709000", "161517.713000", "161517.716000", "161517.719000", "161517.722000", "161517.726000", "161517.729000", "161517.732000", "161557.635000", "161557.645000", "161557.649000", "161557.652000", "161557.655000", "161557.659000", "161557.662000", "161557.665000", "161557.668000", "161557.672000", "161557.675000", "161557.678000", "161557.682000", "161557.685000", "161557.688000", "161557.692000", "161557.695000", "161557.699000", "161557.702000", "161557.705000", "161557.708000", "161557.712000", "161557.715000", "161557.718000", "161557.722000", "161557.725000", "161557.728000", "161637.634000", "161637.638000", "161637.641000", "161637.645000", "161637.648000", "161637.651000", "161637.655000", "161637.658000", "161637.661000", "161637.665000", "161637.668000", "161637.671000", "161637.675000", "161637.678000", "161637.681000", "161637.685000", "161637.688000", "161637.691000", "161637.694000", "161637.698000", "161637.701000", "161637.705000", "161637.708000", "161637.711000", "161637.715000", "161637.718000", "161637.721000", "161717.634000", "161717.638000", "161717.642000", "161717.645000", "161717.648000", "161717.652000", "161717.655000", "161717.658000", "161717.662000", "161717.665000", "161717.668000", "161717.672000", "161717.675000", "161717.678000", "161717.682000", "161717.685000", "161717.688000", "161717.693000", "161717.696000", "161717.699000", "161717.702000", "161717.706000", "161717.709000", "161717.712000", "161717.716000", "161717.719000", "161717.722000", "161757.635000", "161757.639000", "161757.642000", "161757.646000", "161757.649000", "161757.652000", "161757.656000", "161757.659000", "161757.662000", "161757.666000", "161757.669000", "161757.672000", "161757.675000", "161757.679000", "161757.689000", "161757.692000", "161757.696000", "161757.699000", "161757.703000", "161757.706000", "161757.709000", "161757.712000", "161757.716000", "161757.719000", "161757.722000", "161757.726000", "161837.635000", "161837.639000", "161837.642000", "161837.646000", "161837.649000", "161837.652000", "161837.655000", "161837.659000", "161837.662000", "161837.666000", "161837.669000", "161837.672000", "161837.676000", "161837.679000", "161837.682000", "161837.685000", "161837.689000", "161837.692000", "161837.695000", "161837.699000", "161837.702000", "161837.705000", "161837.709000", "161837.712000", "161837.715000", "161837.719000", "161837.722000", "161857.634000", "161857.638000", "161857.642000", "161857.645000", "161857.648000", "161857.651000", "161857.655000", "161857.658000", "161857.661000", "161857.665000", "161857.668000", "161857.671000", "161857.674000", "161857.678000", "161937.635000", "161937.639000", "161937.642000", "161937.646000", "161937.649000", "161937.652000", "161937.656000", "161937.659000", "161937.662000", "161937.666000", "161937.669000", "161937.672000", "161937.676000", "161937.679000", "161937.682000", "161937.686000", "161937.689000", "161937.693000", "161937.696000", "161937.699000", "161937.702000", "161937.706000", "161937.709000", "161937.712000", "161937.716000", "161937.719000", "161937.722000", "162017.635000", "162017.639000", "162017.642000", "162017.646000", "162017.649000", "162017.652000", "162017.656000", "162017.659000", "162017.663000", "162017.666000", "162017.669000", "162017.673000", "162017.676000", "162017.679000", "162017.683000", "162017.686000", "162017.690000", "162017.693000", "162017.696000", "162017.699000", "162017.703000", "162017.706000", "162017.709000", "162017.713000", "162017.716000", "162017.719000", "162057.634000", "162057.638000", "162057.641000", "162057.645000", "162057.648000", "162057.651000", "162057.655000", "162057.658000", "162057.661000", "162057.665000", "162057.668000", "162057.672000", "162057.675000", "162057.678000", "162057.681000", "162057.685000", "162057.688000", "162057.691000", "162057.695000", "162057.698000", "162057.701000", "162057.705000", "162057.708000", "162057.712000", "162057.715000", "162057.718000", "162057.721000", "162137.634000", "162137.638000", "162137.642000", "162137.645000", "162137.649000", "162137.652000", "162137.655000", "162137.659000", "162137.662000", "162137.665000", "162137.669000", "162137.672000", "162137.675000", "162137.679000", "162137.682000", "162137.686000", "162137.689000", "162137.692000", "162137.696000", "162137.699000", "162137.704000", "162137.707000", "162137.710000", "162137.714000", "162137.717000", "162137.721000", "162137.724000", "162217.635000", "162217.639000", "162217.642000", "162217.646000", "162217.649000", "162217.652000", "162217.656000", "162217.674000", "162217.677000", "162217.681000", "162217.684000", "162217.687000", "162217.691000", "162217.694000", "162217.697000", "162217.701000", "162217.704000", "162217.707000", "162217.710000", "162217.714000", "162217.717000", "162217.720000", "162217.724000", "162217.727000", "162217.730000", "162217.734000", "162217.737000", "162257.635000", "162257.639000", "162257.642000", "162257.646000", "162257.649000", "162257.652000", "162257.656000", "162257.660000", "162257.663000", "162257.667000", "162257.670000", "162257.673000", "162257.677000", "162257.680000", "162257.683000", "162257.687000", "162257.690000", "162257.693000", "162257.697000", "162257.700000", "162257.703000", "162257.707000", "162257.710000", "162257.713000", "162257.716000", "162257.720000", "162257.723000", "162301.083000", "162301.087000"],
