{
  "AcquisitionMatrixPE": 104,
  "AcquisitionNumber": 1,
  "AcquisitionTime": "16:00:2.465000",
  "BandwidthPerPixelPhaseEncode": 17.17,
  "BaseResolution": 104,
  "BodyPartExamined": "BRAIN",
  "CoilString": "HC1-7;NC1_2",
  "ConsistencyInfo": "N4_VE11C_LATEST_20160120",
  "ConversionSoftware": "dcm2niix",
  "ConversionSoftwareVersion": "v1.0.20190902",
  "DerivedVendorReportedEchoSpacing": 0.000560011,
  "DeviceSerialNumber": "167006",
  "DwellTime": 2.1e-06,
  "EchoTime": 0.037,
  "EchoTrainLength": 104,
  "EffectiveEchoSpacing": 0.000560011,
  "FlipAngle": 52,
  "HeudiconvVersion": "0.10.0",
  "ImageComments": "Unaliased_MB4_PE3_LB",
  "ImageOrientationPatientDICOM": [0.999402, -0.0296309, 0.0178403, 0.0338521, 0.943771, -0.328863],
  "ImageType": [
    "ORIGINAL",
    "PRIMARY",
    "P",
    "MB",
    "ND",
    "MOSAIC"
],
  "ImagingFrequency": 123.259,
  "InPlanePhaseEncodingDirectionDICOM": "COL",
  "InstitutionAddress": "Chemin_Queen-Mary_4565_Montreal_District_CA_H3W_1W5",
  "InstitutionName": "IUGM",
  "InstitutionalDepartmentName": "Department",
  "MRAcquisitionType": "2D",
  "MagneticFieldStrength": 3,
  "Manufacturer": "Siemens",
  "ManufacturersModelName": "Prisma_fit",
  "Modality": "MR",
  "MultibandAccelerationFactor": 4,
  "PartialFourier": 1,
  "PatientPosition": "HFS",
  "PercentPhaseFOV": 100,
  "PhaseEncodingDirection": "j",
  "PhaseEncodingSteps": 104,
  "PhaseResolution": 1,
  "PixelBandwidth": 2290,
  "ProcedureStepDescription": "games_mario",
  "ProtocolName": "func_task-mario_run-01",
  "PulseSequenceDetails": "%CustomerSeq%_cmrr_mbep2d_bold",
  "ReceiveCoilActiveElements": "HC1-7;NC1,2",
  "ReceiveCoilName": "HeadNeck_64",
  "ReconMatrixPE": 104,
  "RepetitionTime": 1.49,
  "SAR": 0.054369,
  "ScanOptions": "FS",
  "ScanningSequence": "EP",
  "SequenceName": "epfid2d1_104",
  "SequenceVariant": "SK_SS",
  "SeriesDescription": "func_task-mario_run-01",
  "SeriesNumber": 11,
  "ShimSetting": [628, -7242, -8849, 561, -3, -173, -156, -21],
  "SliceThickness": 2,
  "SliceTiming": [0, 0.7825, 0.0975, 0.88, 0.195, 0.9775, 0.2925, 1.0775, 0.39, 1.175, 0.49, 1.2725, 0.5875, 1.37, 0.685, 0, 0.7825, 0.0975, 0.88, 0.195, 0.9775, 0.2925, 1.0775, 0.39, 1.175, 0.49, 1.2725, 0.5875, 1.37, 0.685, 0, 0.7825, 0.0975, 0.88, 0.195, 0.9775, 0.2925, 1.0775, 0.39, 1.175, 0.49, 1.2725, 0.5875, 1.37, 0.685, 0, 0.7825, 0.0975, 0.88, 0.195, 0.9775, 0.2925, 1.0775, 0.39, 1.175, 0.49, 1.2725, 0.5875, 1.37, 0.685],
  "SoftwareVersions": "syngo_MR_E11",
  "SpacingBetweenSlices": 2,
  "StationName": "MRC35049",
  "TaskName": "mario",
  "TotalReadoutTime": 0.0576811,
  "TxRefAmp": 261.873,
  "WipMemBlock": "7e9a2b80-5925-46ce-9f5e-31809aa8adca||Sequence: R016 ve11c/master r/e634e98; Dec 19 2017 11:00:25 by eja",
  "dcmmeta_affine": [
    [-1.9988033771514893, 0.06770415604114532, 0.014185318723320961, 102.3501205444336],
    [0.05926185101270676, 1.88754141330719, -0.6585404872894287, -68.64869689941406],
    [0.03568065166473389, 0.6577261090278625, 1.888418197631836, -70.10465240478516],
    [0.0, 0.0, 0.0, 1.0]
],
  "dcmmeta_reorient_transform": [
    [0.0, -1.0, 0.0, 103.0],
    [1.0, 0.0, 0.0, 0.0],
    [0.0, 0.0, 1.0, 0.0],
    [0.0, 0.0, 0.0, 1.0]
],
  "dcmmeta_shape": [104, 104, 60, 462],
  "dcmmeta_slice_dim": 2,
  "dcmmeta_version": 0.6,
  "global": {
    "const": {
      "AcquisitionMatrix": [104, 0, 0, 104],
      "AngioFlag": "N",
      "BitsAllocated": 16,
      "BitsStored": 16,
      "BodyPartExamined": "BRAIN",
      "Columns": 832,
      "EchoNumbers": 1,
      "EchoTime": 37.0,
      "EchoTrainLength": 104,
      "FlipAngle": 52.0,
      "HighBit": 15,
      "ImageOrientationPatient": [0.99940168650107, -0.0296309263049, 0.01784032581328, 0.03385207824911, 0.94377069277931, -0.3288630661067],
      "ImagePositionPatient": [-861.53239001217, -791.2618126385, 224.06569302591],
      "ImageType": [
        "ORIGINAL",
        "PRIMARY",
        "P",
        "MB",
        "ND",
        "MOSAIC"
],
      "ImagedNucleus": "1H",
      "ImagingFrequency": 123.258875,
      "InPlanePhaseEncodingDirection": "COL",
      "LargestImagePixelValue": 4095,
      "MRAcquisitionType": "2D",
      "MagneticFieldStrength": 3.0,
      "Manufacturer": "SIEMENS",
      "ManufacturerModelName": "Prisma_fit",
      "Modality": "MR",
      "NumberOfAverages": 1.0,
      "NumberOfPhaseEncodingSteps": 104,
      "PercentPhaseFieldOfView": 100.0,
      "PercentSampling": 100.0,
      "PerformedProcedureStepStartTime": "152346.731000",
      "PhotometricInterpretation": "MONOCHROME2",
      "PixelBandwidth": 2290.0,
      "PixelRepresentation": 0,
      "PixelSpacing": [2.0, 2.0],
      "ProtocolName": "func_task-mario_run-01",
      "RepetitionTime": 1490.0,
      "RescaleIntercept": -4096.0,
      "RescaleSlope": 2.0,
      "RescaleType": "US",
      "Rows": 832,
      "SAR": 0.05436897317655,
      "SamplesPerPixel": 1,
      "ScanOptions": "FS",
      "ScanningSequence": "EP",
      "SequenceName": "epfid2d1_104",
      "SequenceVariant": [
        "SK",
        "SS"
],
      "SeriesDescription": "func_task-mario_run-01",
      "SeriesNumber": 11,
      "SeriesTime": "160108.940000",
      "SliceLocation": -42.863542993043,
      "SliceThickness": 2.0,
      "SmallestImagePixelValue": 0,
      "SoftwareVersions": "syngo MR E11",
      "SpacingBetweenSlices": 2.0000000453305,
      "SpecificCharacterSet": "ISO_IR 100",
      "StudyID": "1",
      "StudyTime": "152346.617000",
      "TransmitCoilName": "Body",
      "VariableFlipAngleFlag": "N",
      "WindowCenterWidthExplanation": "Algo1",
      "dBdt": 0.0},
    "slices": {}
  },
  "time": {
    "samples": {
      "AcquisitionNumber": [1, 2, 3, 4, 5, 6, 7, 8, 9, 10, 11, 12, 13, 14, 15, 16, 17, 18, 19, 20, 21, 22, 23, 24, 25, 26, 27, 28, 29, 30, 31, 32, 33, 34, 35, 36, 37, 38, 39, 40, 41, 42, 43, 44, 45, 46, 47, 48, 49, 50, 51, 52, 53, 54, 55, 56, 57, 58, 59, 60, 61, 62, 63, 64, 65, 66, 67, 68, 69, 70, 71, 72, 73, 74, 75, 76, 77, 78, 79, 80, 81, 82, 83, 84, 85, 86, 87, 88, 89, 90, 91, 92, 93, 94, 95, 96, 97, 98, 99, 100, 101, 102, 103, 104, 105, 106, 107, 108, 109, 110, 111, 112, 113, 114, 115, 116, 117, 118, 119, 120, 121, 122, 123, 124, 125, 126, 127, 128, 129, 130, 131, 132, 133, 134, 135, 136, 137, 138, 139, 140, 141, 142, 143, 144, 145, 146, 147, 148, 149, 150, 151, 152, 153, 154, 155, 156, 157, 158, 159, 160, 161, 162, 163, 164, 165, 166, 167, 168, 169, 170, 171, 172, 173, 174, 175, 176, 177, 178, 179, 180, 181, 182, 183, 184, 185, 186, 187, 188, 189, 190, 191, 192, 193, 194, 195, 196, 197, 198, 199, 200, 201, 202, 203, 204, 205, 206, 207, 208, 209, 210, 211, 212, 213, 214, 215, 216, 217, 218, 219, 220, 221, 222, 223, 224, 225, 226, 227, 228, 229, 230, 231, 232, 233, 234, 235, 236, 237, 238, 239, 240, 241, 242, 243, 244, 245, 246, 247, 248, 249, 250, 251, 252, 253, 254, 255, 256, 257, 258, 259, 260, 261, 262, 263, 264, 265, 266, 267, 268, 269, 270, 271, 272, 273, 274, 275, 276, 277, 278, 279, 280, 281, 282, 283, 284, 285, 286, 287, 288, 289, 290, 291, 292, 293, 294, 295, 296, 297, 298, 299, 300, 301, 302, 303, 304, 305, 306, 307, 308, 309, 310, 311, 312, 313, 314, 315, 316, 317, 318, 319, 320, 321, 322, 323, 324, 325, 326, 327, 328, 329, 330, 331, 332, 333, 334, 335, 336, 337, 338, 339, 340, 341, 342, 343, 344, 345, 346, 347, 348, 349, 350, 351, 352, 353, 354, 355, 356, 357, 358, 359, 360, 361, 362, 363, 364, 365, 366, 367, 368, 369, 370, 371, 372, 373, 374, 375, 376, 377, 378, 379, 380, 381, 382, 383, 384, 385, 386, 387, 388, 389, 390, 391, 392, 393, 394, 395, 396, 397, 398, 399, 400, 401, 402, 403, 404, 405, 406, 407, 408, 409, 410, 411, 412, 413, 414, 415, 416, 417, 418, 419, 420, 421, 422, 423, 424, 425, 426, 427, 428, 429, 430, 431, 432, 433, 434, 435, 436, 437, 438, 439, 440, 441, 442, 443, 444, 445, 446, 447, 448, 449, 450, 451, 452, 453, 454, 455, 456, 457, 458, 459, 460, 461, 462],
      "AcquisitionTime": ["160002.465000", "160003.955000", "160005.445000", "160006.935000", "160008.425000", "160009.915000", "160011.405000", "160012.895000", "160014.385000", "160015.875000", "160017.365000", "160018.855000", "160020.345000", "160021.835000", "160023.325000", "160024.815000", "160026.305000", "160027.795000", "160029.285000", "160030.775000", "160032.265000", "160033.755000", "160035.245000", "160036.735000", "160038.225000", "160039.715000", "160041.205000", "160042.695000", "160044.185000", "160045.675000", "160047.165000", "160048.655000", "160050.145000", "160051.635000", "160053.125000", "160054.615000", "160056.105000", "160057.595000", "160059.085000", "160100.575000", "160102.065000", "160103.555000", "160105.045000", "160106.535000", "160108.025000", "160109.515000", "160111.005000", "160112.495000", "160113.985000", "160115.475000", "160116.965000", "160118.455000", "160119.945000", "160121.435000", "160122.925000", "160124.415000", "160125.905000", "160127.395000", "160128.885000", "160130.375000", "160131.865000", "160133.355000", "160134.845000", "160136.335000", "160137.825000", "160139.315000", "160140.805000", "160142.295000", "160143.785000", "160145.275000", "160146.765000", "160148.255000", "160149.745000", "160151.235000", "160152.725000", "160154.215000", "160155.705000", "160157.195000", "160158.685000", "160200.175000", "160201.665000", "160203.155000", "160204.645000", "160206.135000", "160207.625000", "160209.115000", "160210.605000", "160212.095000", "160213.585000", "160215.075000", "160216.565000", "160218.055000", "160219.545000", "160221.035000", "160222.525000", "160224.015000", "160225.505000", "160226.995000", "160228.485000", "160229.975000", "160231.465000", "160232.955000", "160234.445000", "160235.935000", "160237.425000", "160238.915000", "160240.405000", "160241.895000", "160243.385000", "160244.875000", "160246.365000", "160247.855000", "160249.345000", "160250.835000", "160252.325000", "160253.815000", "160255.305000", "160256.795000", "160258.285000", "160259.775000", "160301.265000", "160302.755000", "160304.245000", "160305.735000", "160307.225000", "160308.715000", "160310.205000", "160311.695000", "160313.185000", "160314.675000", "160316.165000", "160317.655000", "160319.145000", "160320.635000", "160322.125000", "160323.615000", "160325.105000", "160326.595000", "160328.085000", "160329.575000", "160331.065000", "160332.555000", "160334.045000", "160335.535000", "160337.025000", "160338.515000", "160340.005000", "160341.495000", "160342.985000", "160344.475000", "160345.965000", "160347.455000", "160348.945000", "160350.435000", "160351.925000", "160353.415000", "160354.905000", "160356.395000", "160357.885000", "160359.375000", "160400.865000", "160402.355000", "160403.845000", "160405.335000", "160406.825000", "160408.315000", "160409.805000", "160411.295000", "160412.785000", "160414.275000", "160415.765000", "160417.255000", "160418.745000", "160420.235000", "160421.725000", "160423.215000", "160424.705000", "160426.195000", "160427.685000", "160429.175000", "160430.665000", "160432.155000", "160433.645000", "160435.135000", "160436.625000", "160438.115000", "160439.605000", "160441.095000", "160442.585000", "160444.075000", "160445.565000", "160447.055000", "160448.545000", "160450.035000", "160451.525000", "160453.015000", "160454.505000", "160455.995000", "160457.485000", "160458.975000", "160500.465000", "160501.955000", "160503.445000", "160504.935000", "160506.425000", "160507.915000", "160509.405000", "160510.895000", "160512.385000", "160513.875000", "160515.365000", "160516.855000", "160518.345000", "160519.835000", "160521.325000", "160522.815000", "160524.305000", "160525.795000", "160527.285000", "160528.775000", "160530.265000", "160531.755000", "160533.245000", "160534.735000", "160536.225000", "160537.715000", "160539.205000", "160540.695000", "160542.185000", "160543.675000", "160545.165000", "160546.655000", "160548.145000", "160549.635000", "160551.125000", "160552.615000", "160554.105000", "160555.595000", "160557.085000", "160558.575000", "160600.065000", "160601.555000", "160603.045000", "160604.535000", "160606.025000", "160607.515000", "160609.005000", "160610.495000", "160611.985000", "160613.475000", "160614.965000", "160616.455000", "160617.945000", "160619.435000", "160620.925000", "160622.415000", "160623.905000", "160625.395000", "160626.885000", "160628.375000", "160629.865000", "160631.355000", "160632.845000", "160634.335000", "160635.825000", "160637.315000", "160638.805000", "160640.295000", "160641.785000", "160643.275000", "160644.765000", "160646.255000", "160647.745000", "160649.235000", "160650.725000", "160652.215000", "160653.705000", "160655.195000", "160656.685000", "160658.175000", "160659.665000", "160701.155000", "160702.645000", "160704.135000", "160705.625000", "160707.115000", "160708.605000", "160710.095000", "160711.585000", "160713.075000", "160714.565000", "160716.055000", "160717.545000", "160719.035000", "160720.525000", "160722.015000", "160723.505000", "160724.995000", "160726.485000", "160727.975000", "160729.465000", "160730.955000", "160732.445000", "160733.935000", "160735.425000", "160736.915000", "160738.405000", "160739.895000", "160741.385000", "160742.875000", "160744.365000", "160745.855000", "160747.345000", "160748.835000", "160750.325000", "160751.815000", "160753.305000", "160754.795000", "160756.285000", "160757.775000", "160759.265000", "160800.755000", "160802.245000", "160803.735000", "160805.225000", "160806.715000", "160808.205000", "160809.695000", "160811.185000", "160812.675000", "160814.165000", "160815.655000", "160817.145000", "160818.635000", "160820.125000", "160821.615000", "160823.105000", "160824.595000", "160826.085000", "160827.575000", "160829.065000", "160830.555000", "160832.045000", "160833.535000", "160835.025000", "160836.515000", "160838.005000", "160839.495000", "160840.985000", "160842.475000", "160843.965000", "160845.455000", "160846.945000", "160848.435000", "160849.925000", "160851.415000", "160852.905000", "160854.395000", "160855.885000", "160857.375000", "160858.865000", "160900.355000", "160901.845000", "160903.335000", "160904.825000", "160906.315000", "160907.805000", "160909.295000", "160910.785000", "160912.275000", "160913.765000", "160915.255000", "160916.745000", "160918.235000", "160919.725000", "160921.215000", "160922.705000", "160924.195000", "160925.685000", "160927.175000", "160928.665000", "160930.155000", "160931.645000", "160933.135000", "160934.625000", "160936.115000", "160937.605000", "160939.095000", "160940.585000", "160942.075000", "160943.565000", "160945.055000", "160946.545000", "160948.035000", "160949.525000", "160951.015000", "160952.505000", "160953.995000", "160955.485000", "160956.975000", "160958.465000", "160959.955000", "161001.445000", "161002.935000", "161004.425000", "161005.915000", "161007.405000", "161008.895000", "161010.385000", "161011.875000", "161013.365000", "161014.855000", "161016.345000", "161017.835000", "161019.325000", "161020.815000", "161022.305000", "161023.795000", "161025.285000", "161026.775000", "161028.265000", "161029.755000", "161031.245000", "161032.735000", "161034.225000", "161035.715000", "161037.205000", "161038.695000", "161040.185000", "161041.675000", "161043.165000", "161044.655000", "161046.145000", "161047.635000", "161049.125000", "161050.615000", "161052.105000", "161053.595000", "161055.085000", "161056.575000", "161058.065000", "161059.555000", "161101.045000", "161102.535000", "161104.025000", "161105.515000", "161107.005000", "161108.495000", "161109.985000", "161111.475000", "161112.965000", "161114.455000", "161115.945000", "161117.435000", "161118.925000", "161120.415000", "161121.905000", "161123.395000", "161124.885000", "161126.375000", "161127.865000", "161129.355000"],
      "ContentTime": ["160108.942000", "160108.951000", "160108.953000", "160108.968000", "160108.970000", "160108.973000", "160108.975000", "160108.978000", "160108.980000", "160108.983000", "160108.985000", "160108.988000", "160128.913000", "160128.916000", "160128.918000", "160128.921000", "160128.923000", "160128.926000", "160128.928000", "160128.931000", "160128.933000", "160128.936000", "160128.938000", "160128.940000", "160128.943000", "160128.945000", "160128.951000", "160128.954000", "160128.956000", "160128.959000", "160128.961000", "160128.964000", "160128.966000", "160148.912000", "160148.915000", "160148.917000", "160148.920000", "160148.922000", "160148.925000", "160148.927000", "160148.930000", "160148.932000", "160148.934000", "160148.937000", "160148.939000", "160148.942000", "160148.944000", "160148.947000", "160148.949000", "160148.951000", "160148.954000", "160148.956000", "160148.959000", "160208.918000", "160208.921000", "160208.923000", "160208.926000", "160208.928000", "160208.931000", "160208.933000", "160208.936000", "160208.938000", "160208.941000", "160208.943000", "160208.946000", "160208.948000", "160208.950000", "160208.953000", "160208.956000", "160208.958000", "160208.960000", "160208.963000", "160208.965000", "160228.916000", "160228.919000", "160228.922000", "160228.924000", "160228.926000", "160228.929000", "160228.931000", "160228.934000", "160228.936000", "160228.939000", "160228.941000", "160228.943000", "160228.946000", "160228.948000", "160228.951000", "160228.953000", "160228.956000", "160228.958000", "160228.961000", "160228.963000", "160308.970000", "160308.973000", "160308.975000", "160308.978000", "160308.980000", "160308.983000", "160308.985000", "160308.988000", "160308.990000", "160308.993000", "160308.995000", "160308.998000", "160309.001000", "160309.004000", "160309.007000", "160309.011000", "160309.013000", "160309.016000", "160309.018000", "160309.021000", "160309.024000", "160309.026000", "160309.029000", "160309.031000", "160309.034000", "160309.036000", "160309.039000", "160309.041000", "160309.044000", "160309.046000", "160309.049000", "160348.937000", "160348.939000", "160348.942000", "160348.945000", "160348.947000", "160348.950000", "160348.952000", "160348.955000", "160348.957000", "160348.960000", "160348.963000", "160348.965000", "160348.968000", "160348.970000", "160348.973000", "160348.975000", "160348.978000", "160348.980000", "160348.983000", "160348.985000", "160348.988000", "160348.990000", "160348.993000", "160348.995000", "160348.998000", "160349.001000", "160349.004000", "160428.946000", "160428.948000", "160428.951000", "160428.953000", "160428.956000", "160428.959000", "160428.961000", "160428.964000", "160428.966000", "160428.969000", "160428.971000", "160428.974000", "160428.976000", "160428.979000", "160428.981000", "160428.984000", "160428.986000", "160428.988000", "160428.991000", "160428.993000", "160428.996000", "160428.998000", "160429.001000", "160429.003000", "160429.006000", "160429.008000", "160429.011000", "160508.941000", "160508.944000", "160508.947000", "160508.949000", "160508.952000", "160508.954000", "160508.957000", "160508.959000", "160508.962000", "160508.964000", "160508.966000", "160508.969000", "160508.971000", "160508.974000", "160508.976000", "160508.979000", "160508.981000", "160508.984000", "160508.986000", "160508.989000", "160508.991000", "160508.994000", "160508.996000", "160509.000000", "160509.003000", "160509.005000", "160509.008000", "160548.944000", "160548.946000", "160548.949000", "160548.951000", "160548.954000", "160548.956000", "160548.959000", "160548.961000", "160548.964000", "160548.966000", "160548.969000", "160548.971000", "160548.974000", "160548.976000", "160548.979000", "160548.981000", "160548.984000", "160548.986000", "160548.989000", "160548.991000", "160548.994000", "160548.996000", "160549.000000", "160549.027000", "160549.030000", "160549.032000", "160549.034000", "160628.934000", "160628.937000", "160628.939000", "160628.942000", "160628.944000", "160628.947000", "160628.949000", "160628.951000", "160628.954000", "160628.956000", "160628.959000", "160628.961000", "160628.964000", "160628.966000", "160628.969000", "160628.971000", "160628.974000", "160628.976000", "160628.979000", "160628.981000", "160628.984000", "160628.986000", "160628.989000", "160628.991000", "160628.994000", "160628.996000", "160629.000000", "160708.937000", "160708.940000", "160708.942000", "160708.945000", "160708.947000", "160708.950000", "160708.953000", "160708.955000", "160708.957000", "160708.960000", "160708.963000", "160708.965000", "160708.968000", "160708.970000", "160708.973000", "160708.975000", "160708.978000", "160708.980000", "160708.983000", "160708.985000", "160708.988000", "160708.990000", "160708.993000", "160708.995000", "160708.998000", "160709.001000", "160748.956000", "160748.959000", "160748.962000", "160748.964000", "160748.967000", "160748.969000", "160748.972000", "160748.974000", "160748.977000", "160748.979000", "160748.982000", "160748.984000", "160748.987000", "160748.990000", "160748.992000", "160748.994000", "160748.997000", "160749.001000", "160749.003000", "160749.006000", "160749.009000", "160749.012000", "160749.014000", "160749.017000", "160749.019000", "160749.022000", "160749.024000", "160828.942000", "160828.944000", "160828.947000", "160828.957000", "160828.959000", "160828.962000", "160828.973000", "160828.975000", "160828.978000", "160828.980000", "160828.983000", "160828.985000", "160828.988000", "160828.990000", "160828.993000", "160828.995000", "160828.998000", "160829.001000", "160829.004000", "160829.006000", "160829.009000", "160829.011000", "160829.014000", "160829.016000", "160829.019000", "160829.021000", "160829.024000", "160908.945000", "160908.948000", "160908.950000", "160908.953000", "160908.955000", "160908.958000", "160908.960000", "160908.963000", "160908.966000", "160908.968000", "160908.971000", "160908.973000", "160908.976000", "160908.978000", "160908.981000", "160908.983000", "160908.986000", "160908.988000", "160908.991000", "160908.993000", "160908.999000", "160909.001000", "160909.004000", "160909.006000", "160909.009000", "160909.011000", "160909.014000", "160948.947000", "160948.950000", "160948.952000", "160948.955000", "160948.957000", "160948.960000", "160948.962000", "160948.965000", "160948.967000", "160948.970000", "160948.972000", "160948.975000", "160948.977000", "160948.979000", "160948.982000", "160948.984000", "160948.987000", "160948.989000", "160948.992000", "160948.994000", "160948.997000", "160949.000000", "160949.003000", "160949.005000", "160949.008000", "160949.010000", "160949.012000", "161028.938000", "161028.941000", "161028.943000", "161028.946000", "161028.948000", "161028.951000", "161028.953000", "161028.956000", "161028.958000", "161028.961000", "161028.963000", "161028.966000", "161028.968000", "161028.971000", "161028.973000", "161028.976000", "161028.978000", "161028.980000", "161028.983000", "161028.985000", "161028.988000", "161028.990000", "161028.993000", "161028.995000", "161028.998000", "161029.001000", "161029.004000", "161108.941000", "161108.944000", "161108.946000", "161108.949000", "161108.951000", "161108.954000", "161108.956000", "161108.958000", "161108.961000", "161108.963000", "161108.966000", "161108.968000", "161108.971000", "161108.973000", "161108.976000", "161108.979000", "161108.981000", "161108.983000", "161108.987000", "161108.989000", "161108.992000", "161108.994000", "161108.997000", "161109.000000", "161109.003000", "161109.005000", "161131.646000", "161131.649000", "161131.651000", "161131.654000", "161131.656000", "161131.659000", "161131.661000", "161131.664000", "161131.666000", "161131.669000", "161131.671000", "161131.674000", "161131.676000", "161131.679000", "161131.681000", "161131.684000"],
