{
  "AcquisitionMatrixPE": 104,
  "AcquisitionNumber": 1,
  "AcquisitionTime": "16:12:1.175000",
  "BandwidthPerPixelPhaseEncode": 17.17,
  "BaseResolution": 104,
  "BodyPartExamined": "BRAIN",
  "CoilString": "HC1-7;NC1_2",
  "ConsistencyInfo": "N4_VE11C_LATEST_20160120",
  "ConversionSoftware": "dcm2niix",
  "ConversionSoftwareVersion": "v1.0.20190902",
  "DerivedVendorReportedEchoSpacing": 0.000560011,
  "DeviceSerialNumber": "167006",
  "DwellTime": 2.1e-06,
  "EchoTime": 0.037,
  "EchoTrainLength": 104,
  "EffectiveEchoSpacing": 0.000560011,
  "FlipAngle": 52,
  "HeudiconvVersion": "0.10.0",
  "ImageComments": "Unaliased_MB4_PE3_LB",
  "ImageOrientationPatientDICOM": [0.999402, -0.0296309, 0.0178403, 0.0338521, 0.943771, -0.328863],
  "ImageType": [
    "ORIGINAL",
    "PRIMARY",
    "P",
    "MB",
    "ND",
    "MOSAIC"
],
  "ImagingFrequency": 123.259,
  "InPlanePhaseEncodingDirectionDICOM": "COL",
  "InstitutionAddress": "Chemin_Queen-Mary_4565_Montreal_District_CA_H3W_1W5",
  "InstitutionName": "IUGM",
  "InstitutionalDepartmentName": "Department",
  "MRAcquisitionType": "2D",
  "MagneticFieldStrength": 3,
  "Manufacturer": "Siemens",
  "ManufacturersModelName": "Prisma_fit",
  "Modality": "MR",
  "MultibandAccelerationFactor": 4,
  "PartialFourier": 1,
  "PatientPosition": "HFS",
  "PercentPhaseFOV": 100,
  "PhaseEncodingDirection": "j",
  "PhaseEncodingSteps": 104,
  "PhaseResolution": 1,
  "PixelBandwidth": 2290,
  "ProcedureStepDescription": "games_mario",
  "ProtocolName": "func_task-mario_run-02",
  "PulseSequenceDetails": "%CustomerSeq%_cmrr_mbep2d_bold",
  "ReceiveCoilActiveElements": "HC1-7;NC1,2",
  "ReceiveCoilName": "HeadNeck_64",
  "ReconMatrixPE": 104,
  "RepetitionTime": 1.49,
  "SAR": 0.054369,
  "ScanOptions": "FS",
  "ScanningSequence": "EP",
  "SequenceName": "epfid2d1_104",
  "SequenceVariant": "SK_SS",
  "SeriesDescription": "func_task-mario_run-02",
  "SeriesNumber": 14,
  "ShimSetting": [628, -7242, -8849, 561, -3, -173, -156, -21],
  "SliceThickness": 2,
  "SliceTiming": [0, 0.785, 0.0975, 0.8825, 0.195, 0.98, 0.295, 1.0775, 0.3925, 1.175, 0.49, 1.275, 0.5875, 1.3725, 0.685, 0, 0.785, 0.0975, 0.8825, 0.195, 0.98, 0.295, 1.0775, 0.3925, 1.175, 0.49, 1.275, 0.5875, 1.3725, 0.685, 0, 0.785, 0.0975, 0.8825, 0.195, 0.98, 0.295, 1.0775, 0.3925, 1.175, 0.49, 1.275, 0.5875, 1.3725, 0.685, 0, 0.785, 0.0975, 0.8825, 0.195, 0.98, 0.295, 1.0775, 0.3925, 1.175, 0.49, 1.275, 0.5875, 1.3725, 0.685],
  "SoftwareVersions": "syngo_MR_E11",
  "SpacingBetweenSlices": 2,
  "StationName": "MRC35049",
  "TaskName": "mario",
  "TotalReadoutTime": 0.0576811,
  "TxRefAmp": 261.873,
  "WipMemBlock": "1791aaa9-d3ae-4242-a2c9-c4b79128daa9||Sequence: R016 ve11c/master r/e634e98; Dec 19 2017 11:00:25 by eja",
  "dcmmeta_affine": [
    [-1.9988033771514893, 0.06770415604114532, 0.014185318723320961, 102.3501205444336],
    [0.05926185101270676, 1.88754141330719, -0.6585404872894287, -68.64869689941406],
    [0.03568065166473389, 0.6577261090278625, 1.888418197631836, -70.10465240478516],
    [0.0, 0.0, 0.0, 1.0]
],
  "dcmmeta_reorient_transform": [
    [0.0, -1.0, 0.0, 103.0],
    [1.0, 0.0, 0.0, 0.0],
    [0.0, 0.0, 1.0, 0.0],
    [0.0, 0.0, 0.0, 1.0]
],
  "dcmmeta_shape": [104, 104, 60, 442],
  "dcmmeta_slice_dim": 2,
  "dcmmeta_version": 0.6,
  "global": {
    "const": {
      "AcquisitionMatrix": [104, 0, 0, 104],
      "AngioFlag": "N",
      "BitsAllocated": 16,
      "BitsStored": 16,
      "BodyPartExamined": "BRAIN",
      "Columns": 832,
      "EchoNumbers": 1,
      "EchoTime": 37.0,
      "EchoTrainLength": 104,
      "FlipAngle": 52.0,
      "HighBit": 15,
      "ImageOrientationPatient": [0.99940168650107, -0.0296309263049, 0.01784032581328, 0.03385207824911, 0.94377069277931, -0.3288630661067],
      "ImagePositionPatient": [-861.53239001217, -791.2618126385, 224.06569302591],
      "ImageType": [
        "ORIGINAL",
        "PRIMARY",
        "P",
        "MB",
        "ND",
        "MOSAIC"
],
      "ImagedNucleus": "1H",
      "ImagingFrequency": 123.258883,
      "InPlanePhaseEncodingDirection": "COL",
      "LargestImagePixelValue": 4095,
      "MRAcquisitionType": "2D",
      "MagneticFieldStrength": 3.0,
      "Manufacturer": "SIEMENS",
      "ManufacturerModelName": "Prisma_fit",
      "Modality": "MR",
      "NumberOfAverages": 1.0,
      "NumberOfPhaseEncodingSteps": 104,
      "PercentPhaseFieldOfView": 100.0,
      "PercentSampling": 100.0,
      "PerformedProcedureStepStartTime": "152346.731000",
      "PhotometricInterpretation": "MONOCHROME2",
      "PixelBandwidth": 2290.0,
      "PixelRepresentation": 0,
      "PixelSpacing": [2.0, 2.0],
      "ProtocolName": "func_task-mario_run-02",
      "RepetitionTime": 1490.0,
      "RescaleIntercept": -4096.0,
      "RescaleSlope": 2.0,
      "RescaleType": "US",
      "Rows": 832,
      "SAR": 0.05436897317655,
      "SamplesPerPixel": 1,
      "ScanOptions": "FS",
      "ScanningSequence": "EP",
      "SequenceName": "epfid2d1_104",
      "SequenceVariant": [
        "SK",
        "SS"
],
      "SeriesDescription": "func_task-mario_run-02",
      "SeriesNumber": 14,
      "SeriesTime": "161317.788000",
      "SliceLocation": -42.863542993043,
      "SliceThickness": 2.0,
      "SmallestImagePixelValue": 0,
      "SoftwareVersions": "syngo MR E11",
      "SpacingBetweenSlices": 2.0000000453305,
      "SpecificCharacterSet": "ISO_IR 100",
      "StudyID": "1",
      "StudyTime": "152346.617000",
      "TransmitCoilName": "Body",
      "VariableFlipAngleFlag": "N",
      "WindowCenterWidthExplanation": "Algo1",
      "dBdt": 0.0},
    "slices": {}
  },
  "time": {
    "samples": {
      "AcquisitionNumber": [1, 2, 3, 4, 5, 6, 7, 8, 9, 10, 11, 12, 13, 14, 15, 16, 17, 18, 19, 20, 21, 22, 23, 24, 25, 26, 27, 28, 29, 30, 31, 32, 33, 34, 35, 36, 37, 38, 39, 40, 41, 42, 43, 44, 45, 46, 47, 48, 49, 50, 51, 52, 53, 54, 55, 56, 57, 58, 59, 60, 61, 62, 63, 64, 65, 66, 67, 68, 69, 70, 71, 72, 73, 74, 75, 76, 77, 78, 79, 80, 81, 82, 83, 84, 85, 86, 87, 88, 89, 90, 91, 92, 93, 94, 95, 96, 97, 98, 99, 100, 101, 102, 103, 104, 105, 106, 107, 108, 109, 110, 111, 112, 113, 114, 115, 116, 117, 118, 119, 120, 121, 122, 123, 124, 125, 126, 127, 128, 129, 130, 131, 132, 133, 134, 135, 136, 137, 138, 139, 140, 141, 142, 143, 144, 145, 146, 147, 148, 149, 150, 151, 152, 153, 154, 155, 156, 157, 158, 159, 160, 161, 162, 163, 164, 165, 166, 167, 168, 169, 170, 171, 172, 173, 174, 175, 176, 177, 178, 179, 180, 181, 182, 183, 184, 185, 186, 187, 188, 189, 190, 191, 192, 193, 194, 195, 196, 197, 198, 199, 200, 201, 202, 203, 204, 205, 206, 207, 208, 209, 210, 211, 212, 213, 214, 215, 216, 217, 218, 219, 220, 221, 222, 223, 224, 225, 226, 227, 228, 229, 230, 231, 232, 233, 234, 235, 236, 237, 238, 239, 240, 241, 242, 243, 244, 245, 246, 247, 248, 249, 250, 251, 252, 253, 254, 255, 256, 257, 258, 259, 260, 261, 262, 263, 264, 265, 266, 267, 268, 269, 270, 271, 272, 273, 274, 275, 276, 277, 278, 279, 280, 281, 282, 283, 284, 285, 286, 287, 288, 289, 290, 291, 292, 293, 294, 295, 296, 297, 298, 299, 300, 301, 302, 303, 304, 305, 306, 307, 308, 309, 310, 311, 312, 313, 314, 315, 316, 317, 318, 319, 320, 321, 322, 323, 324, 325, 326, 327, 328, 329, 330, 331, 332, 333, 334, 335, 336, 337, 338, 339, 340, 341, 342, 343, 344, 345, 346, 347, 348, 349, 350, 351, 352, 353, 354, 355, 356, 357, 358, 359, 360, 361, 362, 363, 364, 365, 366, 367, 368, 369, 370, 371, 372, 373, 374, 375, 376, 377, 378, 379, 380, 381, 382, 383, 384, 385, 386, 387, 388, 389, 390, 391, 392, 393, 394, 395, 396, 397, 398, 399, 400, 401, 402, 403, 404, 405, 406, 407, 408, 409, 410, 411, 412, 413, 414, 415, 416, 417, 418, 419, 420, 421, 422, 423, 424, 425, 426, 427, 428, 429, 430, 431, 432, 433, 434, 435, 436, 437, 438, 439, 440, 441, 442],
      "AcquisitionTime": ["161201.175000", "161202.665000", "161204.155000", "161205.645000", "161207.135000", "161208.625000", "161210.115000", "161211.605000", "161213.095000", "161214.585000", "161216.075000", "161217.565000", "161219.055000", "161220.545000", "161222.035000", "161223.525000", "161225.015000", "161226.505000", "161227.995000", "161229.485000", "161230.975000", "161232.465000", "161233.955000", "161235.445000", "161236.935000", "161238.425000", "161239.915000", "161241.405000", "161242.895000", "161244.385000", "161245.875000", "161247.365000", "161248.855000", "161250.345000", "161251.835000", "161253.325000", "161254.815000", "161256.305000", "161257.795000", "161259.285000", "161300.775000", "161302.265000", "161303.755000", "161305.245000", "161306.735000", "161308.225000", "161309.715000", "161311.205000", "161312.695000", "161314.185000", "161315.675000", "161317.165000", "161318.655000", "161320.145000", "161321.635000", "161323.125000", "161324.615000", "161326.105000", "161327.595000", "161329.085000", "161330.575000", "161332.065000", "161333.555000", "161335.045000", "161336.535000", "161338.025000", "161339.515000", "161341.005000", "161342.495000", "161343.985000", "161345.475000", "161346.965000", "161348.455000", "161349.945000", "161351.435000", "161352.925000", "161354.415000", "161355.905000", "161357.395000", "161358.885000", "161400.375000", "161401.865000", "161403.355000", "161404.845000", "161406.335000", "161407.825000", "161409.315000", "161410.805000", "161412.295000", "161413.785000", "161415.275000", "161416.765000", "161418.255000", "161419.745000", "161421.235000", "161422.725000", "161424.215000", "161425.705000", "161427.195000", "161428.685000", "161430.175000", "161431.665000", "161433.155000", "161434.645000", "161436.135000", "161437.625000", "161439.115000", "161440.605000", "161442.095000", "161443.585000", "161445.075000", "161446.565000", "161448.055000", "161449.545000", "161451.035000", "161452.525000", "161454.015000", "161455.505000", "161456.995000", "161458.485000", "161459.975000", "161501.465000", "161502.955000", "161504.445000", "161505.935000", "161507.425000", "161508.915000", "161510.405000", "161511.895000", "161513.385000", "161514.875000", "161516.365000", "161517.855000", "161519.345000", "161520.835000", "161522.325000", "161523.815000", "161525.305000", "161526.795000", "161528.285000", "161529.775000", "161531.265000", "161532.755000", "161534.245000", "161535.735000", "161537.225000", "161538.715000", "161540.205000", "161541.695000", "161543.185000", "161544.675000", "161546.165000", "161547.655000", "161549.145000", "161550.635000", "161552.125000", "161553.615000", "161555.105000", "161556.595000", "161558.085000", "161559.575000", "161601.065000", "161602.555000", "161604.045000", "161605.535000", "161607.025000", "161608.515000", "161610.005000", "161611.495000", "161612.985000", "161614.475000", "161615.965000", "161617.455000", "161618.945000", "161620.435000", "161621.925000", "161623.415000", "161624.905000", "161626.395000", "161627.885000", "161629.375000", "161630.865000", "161632.355000", "161633.845000", "161635.335000", "161636.825000", "161638.315000", "161639.805000", "161641.295000", "161642.785000", "161644.275000", "161645.765000", "161647.255000", "161648.745000", "161650.235000", "161651.725000", "161653.215000", "161654.705000", "161656.195000", "161657.685000", "161659.175000", "161700.665000", "161702.155000", "161703.645000", "161705.135000", "161706.625000", "161708.115000", "161709.605000", "161711.095000", "161712.585000", "161714.075000", "161715.565000", "161717.055000", "161718.545000", "161720.035000", "161721.525000", "161723.015000", "161724.505000", "161725.995000", "161727.485000", "161728.975000", "161730.465000", "161731.955000", "161733.445000", "161734.935000", "161736.425000", "161737.915000", "161739.405000", "161740.895000", "161742.385000", "161743.875000", "161745.365000", "161746.855000", "161748.345000", "161749.835000", "161751.325000", "161752.815000", "161754.305000", "161755.795000", "161757.285000", "161758.775000", "161800.265000", "161801.755000", "161803.245000", "161804.735000", "161806.225000", "161807.715000", "161809.205000", "161810.695000", "161812.185000", "161813.675000", "161815.165000", "161816.655000", "161818.145000", "161819.635000", "161821.125000", "161822.615000", "161824.105000", "161825.595000", "161827.085000", "161828.575000", "161830.065000", "161831.555000", "161833.045000", "161834.535000", "161836.025000", "161837.515000", "161839.005000", "161840.495000", "161841.985000", "161843.475000", "161844.965000", "161846.455000", "161847.945000", "161849.435000", "161850.925000", "161852.415000", "161853.905000", "161855.395000", "161856.885000", "161858.375000", "161859.865000", "161901.355000", "161902.845000", "161904.335000", "161905.825000", "161907.315000", "161908.805000", "161910.295000", "161911.785000", "161913.275000", "161914.765000", "161916.255000", "161917.745000", "161919.235000", "161920.725000", "161922.215000", "161923.705000", "161925.195000", "161926.685000", "161928.175000", "161929.665000", "161931.155000", "161932.645000", "161934.135000", "161935.625000", "161937.115000", "161938.605000", "161940.095000", "161941.585000", "161943.075000", "161944.565000", "161946.055000", "161947.545000", "161949.035000", "161950.525000", "161952.015000", "161953.505000", "161954.995000", "161956.485000", "161957.975000", "161959.465000", "162000.955000", "162002.445000", "162003.935000", "162005.425000", "162006.915000", "162008.405000", "162009.895000", "162011.385000", "162012.875000", "162014.365000", "162015.855000", "162017.345000", "162018.835000", "162020.325000", "162021.815000", "162023.305000", "162024.795000", "162026.285000", "162027.775000", "162029.265000", "162030.755000", "162032.245000", "162033.735000", "162035.225000", "162036.715000", "162038.205000", "162039.695000", "162041.185000", "162042.675000", "162044.165000", "162045.655000", "162047.145000", "162048.635000", "162050.125000", "162051.615000", "162053.105000", "162054.595000", "162056.085000", "162057.575000", "162059.065000", "162100.555000", "162102.045000", "162103.535000", "162105.025000", "162106.515000", "162108.005000", "162109.495000", "162110.985000", "162112.475000", "162113.965000", "162115.455000", "162116.945000", "162118.435000", "162119.925000", "162121.415000", "162122.905000", "162124.395000", "162125.885000", "162127.375000", "162128.865000", "162130.355000", "162131.845000", "162133.335000", "162134.825000", "162136.315000", "162137.805000", "162139.295000", "162140.785000", "162142.275000", "162143.765000", "162145.255000", "162146.745000", "162148.235000", "162149.725000", "162151.215000", "162152.705000", "162154.195000", "162155.685000", "162157.175000", "162158.665000", "162200.155000", "162201.645000", "162203.135000", "162204.625000", "162206.115000", "162207.605000", "162209.095000", "162210.585000", "162212.075000", "162213.565000", "162215.055000", "162216.545000", "162218.035000", "162219.525000", "162221.015000", "162222.505000", "162223.995000", "162225.485000", "162226.975000", "162228.465000", "162229.955000", "162231.445000", "162232.935000", "162234.425000", "162235.915000", "162237.405000", "162238.895000", "162240.385000", "162241.875000", "162243.365000", "162244.855000", "162246.345000", "162247.835000", "162249.325000", "162250.815000", "162252.305000", "162253.795000", "162255.285000", "162256.775000", "162258.265000"],
      "ContentTime": ["161317.790000", "161317.793000", "161317.795000", "161317.798000", "161317.800000", "161317.803000", "161317.805000", "161317.808000", "161317.810000", "161317.812000", "161317.815000", "161317.817000", "161317.820000", "161317.822000", "161317.825000", "161317.827000", "161317.830000", "161317.832000", "161317.844000", "161317.846000", "161317.849000", "161317.851000", "161317.854000", "161337.736000", "161337.739000", "161337.741000", "161337.744000", "161337.746000", "161337.749000", "161337.751000", "161337.753000", "161337.756000", "161337.758000", "161337.761000", "161337.763000", "161337.766000", "161337.768000", "161337.771000", "161337.773000", "161337.776000", "161337.778000", "161337.780000", "161337.783000", "161357.746000", "161357.748000", "161357.751000", "161357.754000", "161357.756000", "161357.759000", "161357.761000", "161357.764000", "161357.766000", "161357.769000", "161357.772000", "161357.774000", "161357.777000", "161357.779000", "161357.782000", "161357.784000", "161357.786000", "161357.796000", "161357.798000", "161357.801000", "161417.744000", "161417.747000", "161417.749000", "161417.752000", "161417.760000", "161417.763000", "161417.765000", "161417.768000", "161417.770000", "161417.773000", "161417.775000", "161417.778000", "161417.780000", "161417.783000", "161417.785000", "161417.788000", "161417.790000", "161417.793000", "161417.795000", "161417.798000", "161417.806000", "161437.737000", "161437.740000", "161437.743000", "161437.745000", "161437.748000", "161437.750000", "161437.752000", "161437.755000", "161437.758000", "161437.760000", "161437.762000", "161437.765000", "161437.767000", "161437.770000", "161437.772000", "161437.775000", "161437.777000", "161437.780000", "161437.782000", "161437.785000", "161517.775000", "161517.777000", "161517.780000", "161517.782000", "161517.785000", "161517.787000", "161517.790000", "161517.792000", "161517.795000", "161517.797000", "161517.800000", "161517.802000", "161517.805000", "161517.807000", "161517.810000", "161517.812000", "161517.815000", "161517.817000", "161517.820000", "161517.822000", "161517.825000", "161517.827000", "161517.830000", "161517.832000", "161517.835000", "161517.837000", "161517.840000", "161557.776000", "161557.779000", "161557.788000", "161557.790000", "161557.793000", "161557.795000", "161557.798000", "161557.800000", "161557.803000", "161557.805000", "161557.808000", "161557.810000", "161557.813000", "161557.815000", "161557.818000", "161557.820000", "161557.823000", "161557.825000", "161557.828000", "161557.830000", "161557.833000", "161557.835000", "161557.838000", "161557.840000", "161557.843000", "161557.845000", "161557.848000", "161637.766000", "161637.769000", "161637.772000", "161637.774000", "161637.777000", "161637.779000", "161637.782000", "161637.784000", "161637.787000", "161637.789000", "161637.792000", "161637.794000", "161637.797000", "161637.799000", "161637.802000", "161637.804000", "161637.807000", "161637.809000", "161637.812000", "161637.814000", "161637.817000", "161637.819000", "161637.822000", "161637.824000", "161637.827000", "161637.829000", "161637.832000", "161718.112000", "161718.114000", "161718.117000", "161718.120000", "161718.122000", "161718.124000", "161718.127000", "161718.130000", "161718.132000", "161718.135000", "161718.137000", "161718.140000", "161718.142000", "161718.144000", "161718.147000", "161718.150000", "161718.152000", "161718.155000", "161718.157000", "161718.160000", "161718.162000", "161718.165000", "161718.167000", "161718.170000", "161718.172000", "161718.175000", "161718.177000", "161757.771000", "161757.774000", "161757.776000", "161757.779000", "161757.781000", "161757.792000", "161757.794000", "161757.796000", "161757.799000", "161757.802000", "161757.804000", "161757.806000", "161757.809000", "161757.812000", "161757.814000", "161757.816000", "161757.819000", "161757.822000", "161757.824000", "161757.826000", "161757.829000", "161757.832000", "161757.834000", "161757.836000", "161757.839000", "161757.842000", "161837.761000", "161837.764000", "161837.767000", "161837.769000", "161837.772000", "161837.774000", "161837.777000", "161837.779000", "161837.782000", "161837.784000", "161837.787000", "161837.790000", "161837.793000", "161837.796000", "161837.798000", "161837.801000", "161837.803000", "161837.806000", "161837.808000", "161837.811000", "161837.813000", "161837.816000", "161837.818000", "161837.821000", "161837.823000", "161837.826000", "161837.828000", "161857.708000", "161857.711000", "161857.714000", "161857.716000", "161857.719000", "161857.721000", "161857.724000", "161857.726000", "161857.729000", "161857.731000", "161857.734000", "161857.736000", "161857.739000", "161857.741000", "161937.769000", "161937.772000", "161937.774000", "161937.777000", "161937.779000", "161937.782000", "161937.784000", "161937.787000", "161937.789000", "161937.792000", "161937.794000", "161937.797000", "161937.799000", "161937.802000", "161937.804000", "161937.807000", "161937.809000", "161937.812000", "161937.814000", "161937.817000", "161937.819000", "161937.822000", "161937.824000", "161937.827000", "161937.829000", "161937.832000", "161937.834000", "162017.771000", "162017.774000", "162017.777000", "162017.779000", "162017.782000", "162017.784000", "162017.787000", "162017.789000", "162017.792000", "162017.794000", "162017.797000", "162017.799000", "162017.802000", "162017.804000", "162017.807000", "162017.809000", "162017.812000", "162017.814000", "162017.817000", "162017.819000", "162017.822000", "162017.829000", "162017.832000", "162017.834000", "162017.837000", "162017.839000", "162057.767000", "162057.770000", "162057.773000", "162057.775000", "162057.778000", "162057.780000", "162057.783000", "162057.785000", "162057.788000", "162057.790000", "162057.793000", "162057.795000", "162057.798000", "162057.800000", "162057.803000", "162057.805000", "162057.808000", "162057.810000", "162057.813000", "162057.815000", "162057.818000", "162057.820000", "162057.823000", "162057.825000", "162057.828000", "162057.831000", "162057.833000", "162137.770000", "162137.773000", "162137.775000", "162137.778000", "162137.780000", "162137.783000", "162137.785000", "162137.788000", "162137.790000", "162137.793000", "162137.795000", "162137.798000", "162137.800000", "162137.803000", "162137.805000", "162137.808000", "162137.810000", "162137.813000", "162137.816000", "162137.818000", "162137.821000", "162137.823000", "162137.826000", "162137.828000", "162137.831000", "162137.833000", "162137.836000", "162217.785000", "162217.787000", "162217.790000", "162217.792000", "162217.795000", "162217.798000", "162217.800000", "162217.802000", "162217.805000", "162217.808000", "162217.810000", "162217.813000", "162217.815000", "162217.818000", "162217.820000", "162217.823000", "162217.825000", "162217.828000", "162217.830000", "162217.833000", "162217.835000", "162217.838000", "162217.840000", "162217.843000", "162217.845000", "162217.848000", "162217.850000", "162257.770000", "162257.773000", "162257.775000", "162257.778000", "162257.780000", "162257.783000", "162257.785000", "162257.788000", "162257.790000", "162257.793000", "162257.796000", "162257.798000", "162257.800000", "162257.803000", "162257.805000", "162257.808000", "162257.810000", "162257.813000", "162257.816000", "162257.818000", "162257.821000", "162257.823000", "162257.826000", "162257.828000", "162257.831000", "162257.833000", "162257.842000", "162301.106000", "162301.109000"],
