{
  "AcquisitionMatrixPE": 104,
  "AcquisitionNumber": 1,
  "AcquisitionTime": "16:23:23.802500",
  "BandwidthPerPixelPhaseEncode": 17.17,
  "BaseResolution": 104,
  "BodyPartExamined": "BRAIN",
  "CoilString": "HC1-7;NC1_2",
  "ConsistencyInfo": "N4_VE11C_LATEST_20160120",
  "ConversionSoftware": "dcm2niix",
  "ConversionSoftwareVersion": "v1.0.20190902",
  "DerivedVendorReportedEchoSpacing": 0.000560011,
  "DeviceSerialNumber": "167006",
  "DwellTime": 2.1e-06,
  "EchoTime": 0.037,
  "EchoTrainLength": 104,
  "EffectiveEchoSpacing": 0.000560011,
  "FlipAngle": 52,
  "HeudiconvVersion": "0.10.0",
  "ImageComments": "Unaliased_MB4_PE3_LB",
  "ImageOrientationPatientDICOM": [0.999402, -0.0296309, 0.0178403, 0.0338521, 0.943771, -0.328863],
  "ImageType": [
    "ORIGINAL",
    "PRIMARY",
    "P",
    "MB",
    "ND",
    "MOSAIC"
],
  "ImagingFrequency": 123.259,
  "InPlanePhaseEncodingDirectionDICOM": "COL",
  "InstitutionAddress": "Chemin_Queen-Mary_4565_Montreal_District_CA_H3W_1W5",
  "InstitutionName": "IUGM",
  "InstitutionalDepartmentName": "Department",
  "MRAcquisitionType": "2D",
  "MagneticFieldStrength": 3,
  "Manufacturer": "Siemens",
  "ManufacturersModelName": "Prisma_fit",
  "Modality": "MR",
  "MultibandAccelerationFactor": 4,
  "PartialFourier": 1,
  "PatientPosition": "HFS",
  "PercentPhaseFOV": 100,
  "PhaseEncodingDirection": "j",
  "PhaseEncodingSteps": 104,
  "PhaseResolution": 1,
  "PixelBandwidth": 2290,
  "ProcedureStepDescription": "games_mario",
  "ProtocolName": "func_task-mario_run-03",
  "PulseSequenceDetails": "%CustomerSeq%_cmrr_mbep2d_bold",
  "ReceiveCoilActiveElements": "HC1-7;NC1,2",
  "ReceiveCoilName": "HeadNeck_64",
  "ReconMatrixPE": 104,
  "RepetitionTime": 1.49,
  "SAR": 0.054369,
  "ScanOptions": "FS",
  "ScanningSequence": "EP",
  "SequenceName": "epfid2d1_104",
  "SequenceVariant": "SK_SS",
  "SeriesDescription": "func_task-mario_run-03",
  "SeriesNumber": 17,
  "ShimSetting": [628, -7242, -8849, 561, -3, -173, -156, -21],
  "SliceThickness": 2,
  "SliceTiming": [0, 0.785, 0.0975, 0.8825, 0.1975, 0.98, 0.295, 1.0775, 0.3925, 1.1775, 0.49, 1.275, 0.5875, 1.3725, 0.6875, 0, 0.785, 0.0975, 0.8825, 0.1975, 0.98, 0.295, 1.0775, 0.3925, 1.1775, 0.49, 1.275, 0.5875, 1.3725, 0.6875, 0, 0.785, 0.0975, 0.8825, 0.1975, 0.98, 0.295, 1.0775, 0.3925, 1.1775, 0.49, 1.275, 0.5875, 1.3725, 0.6875, 0, 0.785, 0.0975, 0.8825, 0.1975, 0.98, 0.295, 1.0775, 0.3925, 1.1775, 0.49, 1.275, 0.5875, 1.3725, 0.6875],
  "SoftwareVersions": "syngo_MR_E11",
  "SpacingBetweenSlices": 2,
  "StationName": "MRC35049",
  "TaskName": "mario",
  "TotalReadoutTime": 0.0576811,
  "TxRefAmp": 261.873,
  "WipMemBlock": "3b0797aa-fd36-490e-b559-c96070ff332d||Sequence: R016 ve11c/master r/e634e98; Dec 19 2017 11:00:25 by eja",
  "dcmmeta_affine": [
    [-1.9988033771514893, 0.06770415604114532, 0.014185318723320961, 102.3501205444336],
    [0.05926185101270676, 1.88754141330719, -0.6585404872894287, -68.64869689941406],
    [0.03568065166473389, 0.6577261090278625, 1.888418197631836, -70.10465240478516],
    [0.0, 0.0, 0.0, 1.0]
],
  "dcmmeta_reorient_transform": [
    [0.0, -1.0, 0.0, 103.0],
    [1.0, 0.0, 0.0, 0.0],
    [0.0, 0.0, 1.0, 0.0],
    [0.0, 0.0, 0.0, 1.0]
],
  "dcmmeta_shape": [104, 104, 60, 499],
  "dcmmeta_slice_dim": 2,
  "dcmmeta_version": 0.6,
  "global": {
    "const": {
      "AcquisitionMatrix": [104, 0, 0, 104],
      "AngioFlag": "N",
      "BitsAllocated": 16,
      "BitsStored": 16,
      "BodyPartExamined": "BRAIN",
      "Columns": 832,
      "EchoNumbers": 1,
      "EchoTime": 37.0,
      "EchoTrainLength": 104,
      "FlipAngle": 52.0,
      "HighBit": 15,
      "ImageOrientationPatient": [0.99940168650107, -0.0296309263049, 0.01784032581328, 0.03385207824911, 0.94377069277931, -0.3288630661067],
      "ImagePositionPatient": [-861.53239001217, -791.2618126385, 224.06569302591],
      "ImageType": [
        "ORIGINAL",
        "PRIMARY",
        "P",
        "MB",
        "ND",
        "MOSAIC"
],
      "ImagedNucleus": "1H",
      "ImagingFrequency": 123.258889,
      "InPlanePhaseEncodingDirection": "COL",
      "LargestImagePixelValue": 4095,
      "MRAcquisitionType": "2D",
      "MagneticFieldStrength": 3.0,
      "Manufacturer": "SIEMENS",
      "ManufacturerModelName": "Prisma_fit",
      "Modality": "MR",
      "NumberOfAverages": 1.0,
      "NumberOfPhaseEncodingSteps": 104,
      "PercentPhaseFieldOfView": 100.0,
      "PercentSampling": 100.0,
      "PerformedProcedureStepStartTime": "152346.731000",
      "PhotometricInterpretation": "MONOCHROME2",
      "PixelBandwidth": 2290.0,
      "PixelRepresentation": 0,
      "PixelSpacing": [2.0, 2.0],
      "ProtocolName": "func_task-mario_run-03",
      "RepetitionTime": 1490.0,
      "RescaleIntercept": -4096.0,
      "RescaleSlope": 2.0,
      "RescaleType": "US",
      "Rows": 832,
      "SAR": 0.05436897317655,
      "SamplesPerPixel": 1,
      "ScanOptions": "FS",
      "ScanningSequence": "EP",
      "SequenceName": "epfid2d1_104",
      "SequenceVariant": [
        "SK",
        "SS"
],
      "SeriesDescription": "func_task-mario_run-03",
      "SeriesNumber": 17,
      "SeriesTime": "162449.618000",
      "SliceLocation": -42.863542993043,
      "SliceThickness": 2.0,
      "SmallestImagePixelValue": 0,
      "SoftwareVersions": "syngo MR E11",
      "SpacingBetweenSlices": 2.0000000453305,
      "SpecificCharacterSet": "ISO_IR 100",
      "StudyID": "1",
      "StudyTime": "152346.617000",
      "TransmitCoilName": "Body",
      "VariableFlipAngleFlag": "N",
      "WindowCenterWidthExplanation": "Algo1",
      "dBdt": 0.0},
    "slices": {}
  },
  "time": {
    "samples": {
      "AcquisitionNumber": [1, 2, 3, 4, 5, 6, 7, 8, 9, 10, 11, 12, 13, 14, 15, 16, 17, 18, 19, 20, 21, 22, 23, 24, 25, 26, 27, 28, 29, 30, 31, 32, 33, 34, 35, 36, 37, 38, 39, 40, 41, 42, 43, 44, 45, 46, 47, 48, 49, 50, 51, 52, 53, 54, 55, 56, 57, 58, 59, 60, 61, 62, 63, 64, 65, 66, 67, 68, 69, 70, 71, 72, 73, 74, 75, 76, 77, 78, 79, 80, 81, 82, 83, 84, 85, 86, 87, 88, 89, 90, 91, 92, 93, 94, 95, 96, 97, 98, 99, 100, 101, 102, 103, 104, 105, 106, 107, 108, 109, 110, 111, 112, 113, 114, 115, 116, 117, 118, 119, 120, 121, 122, 123, 124, 125, 126, 127, 128, 129, 130, 131, 132, 133, 134, 135, 136, 137, 138, 139, 140, 141, 142, 143, 144, 145, 146, 147, 148, 149, 150, 151, 152, 153, 154, 155, 156, 157, 158, 159, 160, 161, 162, 163, 164, 165, 166, 167, 168, 169, 170, 171, 172, 173, 174, 175, 176, 177, 178, 179, 180, 181, 182, 183, 184, 185, 186, 187, 188, 189, 190, 191, 192, 193, 194, 195, 196, 197, 198, 199, 200, 201, 202, 203, 204, 205, 206, 207, 208, 209, 210, 211, 212, 213, 214, 215, 216, 217, 218, 219, 220, 221, 222, 223, 224, 225, 226, 227, 228, 229, 230, 231, 232, 233, 234, 235, 236, 237, 238, 239, 240, 241, 242, 243, 244, 245, 246, 247, 248, 249, 250, 251, 252, 253, 254, 255, 256, 257, 258, 259, 260, 261, 262, 263, 264, 265, 266, 267, 268, 269, 270, 271, 272, 273, 274, 275, 276, 277, 278, 279, 280, 281, 282, 283, 284, 285, 286, 287, 288, 289, 290, 291, 292, 293, 294, 295, 296, 297, 298, 299, 300, 301, 302, 303, 304, 305, 306, 307, 308, 309, 310, 311, 312, 313, 314, 315, 316, 317, 318, 319, 320, 321, 322, 323, 324, 325, 326, 327, 328, 329, 330, 331, 332, 333, 334, 335, 336, 337, 338, 339, 340, 341, 342, 343, 344, 345, 346, 347, 348, 349, 350, 351, 352, 353, 354, 355, 356, 357, 358, 359, 360, 361, 362, 363, 364, 365, 366, 367, 368, 369, 370, 371, 372, 373, 374, 375, 376, 377, 378, 379, 380, 381, 382, 383, 384, 385, 386, 387, 388, 389, 390, 391, 392, 393, 394, 395, 396, 397, 398, 399, 400, 401, 402, 403, 404, 405, 406, 407, 408, 409, 410, 411, 412, 413, 414, 415, 416, 417, 418, 419, 420, 421, 422, 423, 424, 425, 426, 427, 428, 429, 430, 431, 432, 433, 434, 435, 436, 437, 438, 439, 440, 441, 442, 443, 444, 445, 446, 447, 448, 449, 450, 451, 452, 453, 454, 455, 456, 457, 458, 459, 460, 461, 462, 463, 464, 465, 466, 467, 468, 469, 470, 471, 472, 473, 474, 475, 476, 477, 478, 479, 480, 481, 482, 483, 484, 485, 486, 487, 488, 489, 490, 491, 492, 493, 494, 495, 496, 497, 498, 499],
      "AcquisitionTime": ["162323.802500", "162325.292500", "162326.782500", "162328.272500", "162329.762500", "162331.252500", "162332.742500", "162334.232500", "162335.722500", "162337.212500", "162338.702500", "162340.192500", "162341.682500", "162343.172500", "162344.662500", "162346.152500", "162347.642500", "162349.132500", "162350.622500", "162352.112500", "162353.602500", "162355.092500", "162356.582500", "162358.072500", "162359.562500", "162401.052500", "162402.542500", "162404.032500", "162405.522500", "162407.012500", "162408.502500", "162409.992500", "162411.482500", "162412.972500", "162414.462500", "162415.952500", "162417.442500", "162418.932500", "162420.422500", "162421.912500", "162423.402500", "162424.892500", "162426.382500", "162427.872500", "162429.362500", "162430.852500", "162432.342500", "162433.832500", "162435.322500", "162436.812500", "162438.302500", "162439.792500", "162441.282500", "162442.772500", "162444.262500", "162445.752500", "162447.242500", "162448.732500", "162450.222500", "162451.712500", "162453.202500", "162454.692500", "162456.182500", "162457.672500", "162459.162500", "162500.652500", "162502.142500", "162503.632500", "162505.122500", "162506.612500", "162508.102500", "162509.592500", "162511.082500", "162512.572500", "162514.062500", "162515.552500", "162517.042500", "162518.532500", "162520.022500", "162521.512500", "162523.002500", "162524.492500", "162525.982500", "162527.472500", "162528.962500", "162530.452500", "162531.942500", "162533.432500", "162534.922500", "162536.412500", "162537.902500", "162539.392500", "162540.882500", "162542.372500", "162543.862500", "162545.352500", "162546.842500", "162548.332500", "162549.822500", "162551.312500", "162552.802500", "162554.292500", "162555.782500", "162557.272500", "162558.762500", "162600.252500", "162601.742500", "162603.232500", "162604.722500", "162606.212500", "162607.702500", "162609.192500", "162610.682500", "162612.172500", "162613.662500", "162615.152500", "162616.642500", "162618.132500", "162619.622500", "162621.112500", "162622.602500", "162624.092500", "162625.582500", "162627.072500", "162628.562500", "162630.052500", "162631.542500", "162633.032500", "162634.522500", "162636.012500", "162637.502500", "162638.992500", "162640.482500", "162641.972500", "162643.462500", "162644.952500", "162646.442500", "162647.932500", "162649.422500", "162650.912500", "162652.402500", "162653.892500", "162655.382500", "162656.872500", "162658.362500", "162659.852500", "162701.342500", "162702.832500", "162704.322500", "162705.812500", "162707.302500", "162708.792500", "162710.282500", "162711.772500", "162713.262500", "162714.752500", "162716.242500", "162717.732500", "162719.222500", "162720.712500", "162722.202500", "162723.692500", "162725.182500", "162726.672500", "162728.162500", "162729.652500", "162731.142500", "162732.632500", "162734.122500", "162735.612500", "162737.102500", "162738.592500", "162740.082500", "162741.572500", "162743.062500", "162744.552500", "162746.042500", "162747.532500", "162749.022500", "162750.512500", "162752.002500", "162753.492500", "162754.982500", "162756.472500", "162757.962500", "162759.452500", "162800.942500", "162802.432500", "162803.922500", "162805.412500", "162806.902500", "162808.392500", "162809.882500", "162811.372500", "162812.862500", "162814.352500", "162815.842500", "162817.332500", "162818.822500", "162820.312500", "162821.802500", "162823.292500", "162824.782500", "162826.272500", "162827.762500", "162829.252500", "162830.742500", "162832.232500", "162833.722500", "162835.212500", "162836.702500", "162838.192500", "162839.682500", "162841.172500", "162842.662500", "162844.152500", "162845.642500", "162847.132500", "162848.622500", "162850.112500", "162851.602500", "162853.092500", "162854.582500", "162856.072500", "162857.562500", "162859.052500", "162900.542500", "162902.032500", "162903.522500", "162905.012500", "162906.502500", "162907.992500", "162909.482500", "162910.972500", "162912.462500", "162913.952500", "162915.442500", "162916.932500", "162918.422500", "162919.912500", "162921.402500", "162922.892500", "162924.382500", "162925.872500", "162927.362500", "162928.852500", "162930.342500", "162931.832500", "162933.322500", "162934.812500", "162936.302500", "162937.792500", "162939.282500", "162940.772500", "162942.262500", "162943.752500", "162945.242500", "162946.732500", "162948.222500", "162949.712500", "162951.202500", "162952.692500", "162954.182500", "162955.672500", "162957.162500", "162958.652500", "163000.142500", "163001.632500", "163003.122500", "163004.612500", "163006.102500", "163007.592500", "163009.082500", "163010.572500", "163012.062500", "163013.552500", "163015.042500", "163016.532500", "163018.022500", "163019.512500", "163021.002500", "163022.492500", "163023.982500", "163025.472500", "163026.962500", "163028.452500", "163029.942500", "163031.432500", "163032.922500", "163034.412500", "163035.902500", "163037.392500", "163038.882500", "163040.372500", "163041.862500", "163043.352500", "163044.842500", "163046.332500", "163047.822500", "163049.312500", "163050.802500", "163052.292500", "163053.782500", "163055.272500", "163056.762500", "163058.252500", "163059.742500", "163101.232500", "163102.722500", "163104.212500", "163105.702500", "163107.192500", "163108.682500", "163110.172500", "163111.662500", "163113.152500", "163114.642500", "163116.132500", "163117.622500", "163119.112500", "163120.602500", "163122.092500", "163123.582500", "163125.072500", "163126.562500", "163128.052500", "163129.542500", "163131.032500", "163132.522500", "163134.012500", "163135.502500", "163136.992500", "163138.482500", "163139.972500", "163141.462500", "163142.952500", "163144.442500", "163145.932500", "163147.422500", "163148.912500", "163150.402500", "163151.892500", "163153.382500", "163154.872500", "163156.362500", "163157.852500", "163159.342500", "163200.832500", "163202.322500", "163203.812500", "163205.302500", "163206.792500", "163208.282500", "163209.772500", "163211.262500", "163212.752500", "163214.242500", "163215.732500", "163217.222500", "163218.712500", "163220.202500", "163221.692500", "163223.182500", "163224.672500", "163226.162500", "163227.652500", "163229.142500", "163230.632500", "163232.122500", "163233.612500", "163235.102500", "163236.592500", "163238.082500", "163239.572500", "163241.062500", "163242.552500", "163244.042500", "163245.532500", "163247.022500", "163248.512500", "163250.002500", "163251.492500", "163252.982500", "163254.472500", "163255.962500", "163257.452500", "163258.942500", "163300.432500", "163301.922500", "163303.412500", "163304.902500", "163306.392500", "163307.882500", "163309.372500", "163310.862500", "163312.352500", "163313.842500", "163315.332500", "163316.822500", "163318.312500", "163319.802500", "163321.292500", "163322.782500", "163324.272500", "163325.762500", "163327.252500", "163328.742500", "163330.232500", "163331.722500", "163333.212500", "163334.702500", "163336.192500", "163337.682500", "163339.172500", "163340.662500", "163342.152500", "163343.642500", "163345.132500", "163346.622500", "163348.112500", "163349.602500", "163351.092500", "163352.582500", "163354.072500", "163355.562500", "163357.052500", "163358.542500", "163400.032500", "163401.522500", "163403.012500", "163404.502500", "163405.992500", "163407.482500", "163408.972500", "163410.462500", "163411.952500", "163413.442500", "163414.932500", "163416.422500", "163417.912500", "163419.402500", "163420.892500", "163422.382500", "163423.872500", "163425.362500", "163426.852500", "163428.342500", "163429.832500", "163431.322500", "163432.812500", "163434.302500", "163435.792500", "163437.282500", "163438.772500", "163440.262500", "163441.752500", "163443.242500", "163444.732500", "163446.222500", "163447.712500", "163449.202500", "163450.692500", "163452.182500", "163453.672500", "163455.162500", "163456.652500", "163458.142500", "163459.632500", "163501.122500", "163502.612500", "163504.102500", "163505.592500", "163507.082500", "163508.572500", "163510.062500", "163511.552500", "163513.042500", "163514.532500", "163516.022500", "163517.512500", "163519.002500", "163520.492500", "163521.982500", "163523.472500", "163524.962500", "163526.452500", "163527.942500", "163529.432500", "163530.922500", "163532.412500", "163533.902500", "163535.392500", "163536.882500", "163538.372500", "163539.862500", "163541.352500", "163542.842500", "163544.332500", "163545.822500"],
      "ContentTime": ["162449.621000", "162449.623000", "162449.626000", "162449.628000", "162449.631000", "162449.633000", "162449.636000", "162449.638000", "162449.641000", "162449.643000", "162449.646000", "162449.648000", "162449.651000", "162449.653000", "162449.655000", "162449.658000", "162449.660000", "162449.663000", "162449.665000", "162449.668000", "162449.670000", "162449.673000", "162449.675000", "162449.678000", "162449.680000", "162449.683000", "162449.685000", "162449.688000", "162449.693000", "162449.695000", "162449.697000", "162509.549000", "162509.552000", "162509.554000", "162509.557000", "162509.559000", "162509.562000", "162509.564000", "162509.567000", "162509.569000", "162509.572000", "162509.574000", "162509.577000", "162509.579000", "162509.582000", "162509.584000", "162509.587000", "162509.589000", "162509.592000", "162509.594000", "162509.596000", "162529.531000", "162529.533000", "162529.536000", "162529.538000", "162529.541000", "162529.543000", "162529.546000", "162529.548000", "162529.551000", "162529.553000", "162529.556000", "162529.558000", "162529.561000", "162529.565000", "162529.568000", "162529.570000", "162529.573000", "162529.575000", "162529.578000", "162529.580000", "162549.530000", "162549.532000", "162549.535000", "162549.537000", "162549.540000", "162549.542000", "162549.545000", "162549.547000", "162549.550000", "162549.552000", "162549.555000", "162549.557000", "162549.560000", "162549.562000", "162549.565000", "162549.568000", "162549.570000", "162549.572000", "162549.575000", "162549.578000", "162629.584000", "162629.587000", "162629.589000", "162629.592000", "162629.594000", "162629.597000", "162629.599000", "162629.602000", "162629.604000", "162629.607000", "162629.609000", "162629.612000", "162629.614000", "162629.617000", "162629.619000", "162629.622000", "162629.624000", "162629.627000", "162629.629000", "162629.632000", "162629.634000", "162629.636000", "162629.639000", "162629.641000", "162629.644000", "162629.646000", "162629.649000", "162629.651000", "162629.654000", "162629.656000", "162629.659000", "162629.661000", "162629.664000", "162709.562000", "162709.565000", "162709.576000", "162709.578000", "162709.581000", "162709.583000", "162709.586000", "162709.588000", "162709.591000", "162709.593000", "162709.596000", "162709.598000", "162709.601000", "162709.603000", "162709.606000", "162709.608000", "162709.610000", "162709.613000", "162709.615000", "162709.618000", "162709.620000", "162709.623000", "162709.625000", "162709.628000", "162709.630000", "162709.633000", "162749.565000", "162749.568000", "162749.570000", "162749.573000", "162749.576000", "162749.578000", "162749.581000", "162749.583000", "162749.585000", "162749.588000", "162749.591000", "162749.593000", "162749.595000", "162749.598000", "162749.600000", "162749.603000", "162749.605000", "162749.608000", "162749.610000", "162749.614000", "162749.616000", "162749.619000", "162749.622000", "162749.624000", "162749.627000", "162749.629000", "162749.632000", "162829.567000", "162829.570000", "162829.572000", "162829.575000", "162829.577000", "162829.580000", "162829.582000", "162829.585000", "162829.587000", "162829.590000", "162829.592000", "162829.595000", "162829.597000", "162829.600000", "162829.602000", "162829.605000", "162829.607000", "162829.610000", "162829.612000", "162829.615000", "162829.617000", "162829.620000", "162829.622000", "162829.625000", "162829.627000", "162829.630000", "162829.632000", "162849.513000", "162849.516000", "162849.518000", "162849.521000", "162849.523000", "162849.526000", "162849.528000", "162849.531000", "162849.534000", "162849.536000", "162849.539000", "162849.541000", "162849.544000", "162849.546000", "162929.590000", "162929.592000", "162929.595000", "162929.602000", "162929.605000", "162929.607000", "162929.610000", "162929.612000", "162929.615000", "162929.617000", "162929.620000", "162929.622000", "162929.625000", "162929.633000", "162929.636000", "162929.638000", "162929.641000", "162929.643000", "162929.646000", "162929.648000", "162929.651000", "162929.653000", "162929.656000", "162929.658000", "162929.661000", "162929.663000", "163009.565000", "163009.567000", "163009.570000", "163009.573000", "163009.575000", "163009.577000", "163009.580000", "163009.582000", "163009.585000", "163009.587000", "163009.590000", "163009.593000", "163009.595000", "163009.597000", "163009.600000", "163009.602000", "163009.605000", "163009.608000", "163009.610000", "163009.613000", "163009.615000", "163009.618000", "163009.620000", "163009.623000", "163009.625000", "163009.628000", "163009.630000", "163049.560000", "163049.563000", "163049.566000", "163049.568000", "163049.571000", "163049.573000", "163049.576000", "163049.578000", "163049.581000", "163049.583000", "163049.586000", "163049.588000", "163049.591000", "163049.593000", "163049.596000", "163049.598000", "163049.601000", "163049.603000", "163049.606000", "163049.608000", "163049.611000", "163049.613000", "163049.616000", "163049.618000", "163049.621000", "163049.623000", "163049.626000", "163129.563000", "163129.566000", "163129.568000", "163129.571000", "163129.573000", "163129.576000", "163129.578000", "163129.581000", "163129.583000", "163129.586000", "163129.589000", "163129.591000", "163129.594000", "163129.596000", "163129.599000", "163129.601000", "163129.604000", "163129.606000", "163129.609000", "163129.611000", "163129.614000", "163129.616000", "163129.619000", "163129.621000", "163129.624000", "163129.626000", "163129.629000", "163209.577000", "163209.580000", "163209.583000", "163209.585000", "163209.588000", "163209.590000", "163209.593000", "163209.595000", "163209.598000", "163209.600000", "163209.603000", "163209.605000", "163209.608000", "163209.610000", "163209.613000", "163209.615000", "163209.618000", "163209.620000", "163209.623000", "163209.625000", "163209.628000", "163209.630000", "163209.633000", "163209.635000", "163209.638000", "163209.641000", "163209.643000", "163249.563000", "163249.565000", "163249.568000", "163249.571000", "163249.573000", "163249.575000", "163249.578000", "163249.580000", "163249.583000", "163249.585000", "163249.588000", "163249.590000", "163249.593000", "163249.595000", "163249.598000", "163249.600000", "163249.603000", "163249.605000", "163249.608000", "163249.610000", "163249.613000", "163249.615000", "163249.618000", "163249.620000", "163249.623000", "163249.625000", "163249.628000", "163329.576000", "163329.579000", "163329.582000", "163329.584000", "163329.587000", "163329.589000", "163329.592000", "163329.594000", "163329.597000", "163329.599000", "163329.602000", "163329.604000", "163329.607000", "163329.609000", "163329.612000", "163329.614000", "163329.617000", "163329.619000", "163329.622000", "163329.624000", "163329.627000", "163329.629000", "163329.632000", "163329.634000", "163329.637000", "163329.639000", "163329.642000", "163409.574000", "163409.577000", "163409.579000", "163409.582000", "163409.584000", "163409.588000", "163409.590000", "163409.593000", "163409.595000", "163409.598000", "163409.600000", "163409.603000", "163409.605000", "163409.608000", "163409.610000", "163409.613000", "163409.616000", "163409.618000", "163409.621000", "163409.623000", "163409.626000", "163409.628000", "163409.630000", "163409.633000", "163409.635000", "163409.638000", "163449.571000", "163449.574000", "163449.576000", "163449.579000", "163449.581000", "163449.584000", "163449.586000", "163449.589000", "163449.591000", "163449.594000", "163449.596000", "163449.599000", "163449.601000", "163449.604000", "163449.606000", "163449.609000", "163449.611000", "163449.613000", "163449.616000", "163449.618000", "163449.621000", "163449.623000", "163449.626000", "163449.629000", "163449.631000", "163449.633000", "163449.636000", "163529.562000", "163529.565000", "163529.567000", "163529.570000", "163529.579000", "163529.582000", "163529.584000", "163529.587000", "163529.589000", "163529.592000", "163529.594000", "163529.597000", "163529.599000", "163529.602000", "163529.604000", "163529.607000", "163529.609000", "163529.612000", "163529.614000", "163529.617000", "163529.619000", "163529.622000", "163529.624000", "163529.627000", "163529.629000", "163529.632000", "163529.634000", "163548.044000", "163548.047000", "163548.049000", "163548.052000", "163548.059000", "163548.061000", "163548.064000", "163548.066000", "163548.069000", "163548.072000", "163548.074000", "163548.076000", "163548.079000"],
