{
  "AcquisitionMatrixPE": 104,
  "AcquisitionNumber": 1,
  "AcquisitionTime": "16:23:23.802500",
  "BandwidthPerPixelPhaseEncode": 17.17,
  "BaseResolution": 104,
  "BodyPartExamined": "BRAIN",
  "CoilString": "HC1-7;NC1_2",
  "ConsistencyInfo": "N4_VE11C_LATEST_20160120",
  "ConversionSoftware": "dcm2niix",
  "ConversionSoftwareVersion": "v1.0.20190902",
  "DerivedVendorReportedEchoSpacing": 0.000560011,
  "DeviceSerialNumber": "167006",
  "DwellTime": 2.1e-06,
  "EchoTime": 0.037,
  "EchoTrainLength": 104,
  "EffectiveEchoSpacing": 0.000560011,
  "FlipAngle": 52,
  "HeudiconvVersion": "0.10.0",
  "ImageComments": "Unaliased_MB4_PE3_LB",
  "ImageOrientationPatientDICOM": [0.999402, -0.0296309, 0.0178403, 0.0338521, 0.943771, -0.328863],
  "ImageType": [
    "ORIGINAL",
    "PRIMARY",
    "M",
    "MB",
    "ND",
    "MOSAIC"
],
  "ImagingFrequency": 123.259,
  "InPlanePhaseEncodingDirectionDICOM": "COL",
  "InstitutionAddress": "Chemin_Queen-Mary_4565_Montreal_District_CA_H3W_1W5",
  "InstitutionName": "IUGM",
  "InstitutionalDepartmentName": "Department",
  "MRAcquisitionType": "2D",
  "MagneticFieldStrength": 3,
  "Manufacturer": "Siemens",
  "ManufacturersModelName": "Prisma_fit",
  "Modality": "MR",
  "MultibandAccelerationFactor": 4,
  "PartialFourier": 1,
  "PatientPosition": "HFS",
  "PercentPhaseFOV": 100,
  "PhaseEncodingDirection": "j",
  "PhaseEncodingSteps": 104,
  "PhaseResolution": 1,
  "PixelBandwidth": 2290,
  "ProcedureStepDescription": "games_mario",
  "ProtocolName": "func_task-mario_run-03",
  "PulseSequenceDetails": "%CustomerSeq%_cmrr_mbep2d_bold",
  "ReceiveCoilActiveElements": "HC1-7;NC1,2",
  "ReceiveCoilName": "HeadNeck_64",
  "ReconMatrixPE": 104,
  "RepetitionTime": 1.49,
  "SAR": 0.054369,
  "ScanOptions": "FS",
  "ScanningSequence": "EP",
  "SequenceName": "epfid2d1_104",
  "SequenceVariant": "SK_SS",
  "SeriesDescription": "func_task-mario_run-03",
  "SeriesNumber": 16,
  "ShimSetting": [628, -7242, -8849, 561, -3, -173, -156, -21],
  "SliceThickness": 2,
  "SliceTiming": [0, 0.785, 0.0975, 0.8825, 0.1975, 0.98, 0.295, 1.0775, 0.3925, 1.1775, 0.49, 1.275, 0.5875, 1.3725, 0.6875, 0, 0.785, 0.0975, 0.8825, 0.1975, 0.98, 0.295, 1.0775, 0.3925, 1.1775, 0.49, 1.275, 0.5875, 1.3725, 0.6875, 0, 0.785, 0.0975, 0.8825, 0.1975, 0.98, 0.295, 1.0775, 0.3925, 1.1775, 0.49, 1.275, 0.5875, 1.3725, 0.6875, 0, 0.785, 0.0975, 0.8825, 0.1975, 0.98, 0.295, 1.0775, 0.3925, 1.1775, 0.49, 1.275, 0.5875, 1.3725, 0.6875],
  "SoftwareVersions": "syngo_MR_E11",
  "SpacingBetweenSlices": 2,
  "StationName": "MRC35049",
  "TaskName": "mario",
  "TotalReadoutTime": 0.0576811,
  "TxRefAmp": 261.873,
  "WipMemBlock": "3b0797aa-fd36-490e-b559-c96070ff332d||Sequence: R016 ve11c/master r/e634e98; Dec 19 2017 11:00:25 by eja",
  "dcmmeta_affine": [
    [-1.9988033771514893, 0.06770415604114532, 0.014185318723320961, 102.3501205444336],
    [0.05926185101270676, 1.88754141330719, -0.6585404872894287, -68.64869689941406],
    [0.03568065166473389, 0.6577261090278625, 1.888418197631836, -70.10465240478516],
    [0.0, 0.0, 0.0, 1.0]
],
  "dcmmeta_reorient_transform": [
    [0.0, -1.0, 0.0, 103.0],
    [1.0, 0.0, 0.0, 0.0],
    [0.0, 0.0, 1.0, 0.0],
    [0.0, 0.0, 0.0, 1.0]
],
  "dcmmeta_shape": [104, 104, 60, 499],
  "dcmmeta_slice_dim": 2,
  "dcmmeta_version": 0.6,
  "global": {
    "const": {
      "AcquisitionMatrix": [104, 0, 0, 104],
      "AngioFlag": "N",
      "BitsAllocated": 16,
      "BitsStored": 16,
      "BodyPartExamined": "BRAIN",
      "Columns": 832,
      "EchoNumbers": 1,
      "EchoTime": 37.0,
      "EchoTrainLength": 104,
      "FlipAngle": 52.0,
      "HighBit": 15,
      "ImageOrientationPatient": [0.99940168650107, -0.0296309263049, 0.01784032581328, 0.03385207824911, 0.94377069277931, -0.3288630661067],
      "ImagePositionPatient": [-861.53239001217, -791.2618126385, 224.06569302591],
      "ImageType": [
        "ORIGINAL",
        "PRIMARY",
        "M",
        "MB",
        "ND",
        "MOSAIC"
],
      "ImagedNucleus": "1H",
      "ImagingFrequency": 123.258889,
      "InPlanePhaseEncodingDirection": "COL",
      "MRAcquisitionType": "2D",
      "MagneticFieldStrength": 3.0,
      "Manufacturer": "SIEMENS",
      "ManufacturerModelName": "Prisma_fit",
      "Modality": "MR",
      "NumberOfAverages": 1.0,
      "NumberOfPhaseEncodingSteps": 104,
      "PercentPhaseFieldOfView": 100.0,
      "PercentSampling": 100.0,
      "PerformedProcedureStepStartTime": "152346.731000",
      "PhotometricInterpretation": "MONOCHROME2",
      "PixelBandwidth": 2290.0,
      "PixelRepresentation": 0,
      "PixelSpacing": [2.0, 2.0],
      "ProtocolName": "func_task-mario_run-03",
      "RepetitionTime": 1490.0,
      "Rows": 832,
      "SAR": 0.05436897317655,
      "SamplesPerPixel": 1,
      "ScanOptions": "FS",
      "ScanningSequence": "EP",
      "SequenceName": "epfid2d1_104",
      "SequenceVariant": [
        "SK",
        "SS"
],
      "SeriesDescription": "func_task-mario_run-03",
      "SeriesNumber": 16,
      "SeriesTime": "162449.471000",
      "SliceLocation": -42.863542993043,
      "SliceThickness": 2.0,
      "SmallestImagePixelValue": 0,
      "SoftwareVersions": "syngo MR E11",
      "SpacingBetweenSlices": 2.0000000453305,
      "SpecificCharacterSet": "ISO_IR 100",
      "StudyID": "1",
      "StudyTime": "152346.617000",
      "TransmitCoilName": "Body",
      "VariableFlipAngleFlag": "N",
      "WindowCenterWidthExplanation": "Algo1",
      "dBdt": 0.0},
    "slices": {}
  },
  "time": {
    "samples": {
      "AcquisitionNumber": [1, 2, 3, 4, 5, 6, 7, 8, 9, 10, 11, 12, 13, 14, 15, 16, 17, 18, 19, 20, 21, 22, 23, 24, 25, 26, 27, 28, 29, 30, 31, 32, 33, 34, 35, 36, 37, 38, 39, 40, 41, 42, 43, 44, 45, 46, 47, 48, 49, 50, 51, 52, 53, 54, 55, 56, 57, 58, 59, 60, 61, 62, 63, 64, 65, 66, 67, 68, 69, 70, 71, 72, 73, 74, 75, 76, 77, 78, 79, 80, 81, 82, 83, 84, 85, 86, 87, 88, 89, 90, 91, 92, 93, 94, 95, 96, 97, 98, 99, 100, 101, 102, 103, 104, 105, 106, 107, 108, 109, 110, 111, 112, 113, 114, 115, 116, 117, 118, 119, 120, 121, 122, 123, 124, 125, 126, 127, 128, 129, 130, 131, 132, 133, 134, 135, 136, 137, 138, 139, 140, 141, 142, 143, 144, 145, 146, 147, 148, 149, 150, 151, 152, 153, 154, 155, 156, 157, 158, 159, 160, 161, 162, 163, 164, 165, 166, 167, 168, 169, 170, 171, 172, 173, 174, 175, 176, 177, 178, 179, 180, 181, 182, 183, 184, 185, 186, 187, 188, 189, 190, 191, 192, 193, 194, 195, 196, 197, 198, 199, 200, 201, 202, 203, 204, 205, 206, 207, 208, 209, 210, 211, 212, 213, 214, 215, 216, 217, 218, 219, 220, 221, 222, 223, 224, 225, 226, 227, 228, 229, 230, 231, 232, 233, 234, 235, 236, 237, 238, 239, 240, 241, 242, 243, 244, 245, 246, 247, 248, 249, 250, 251, 252, 253, 254, 255, 256, 257, 258, 259, 260, 261, 262, 263, 264, 265, 266, 267, 268, 269, 270, 271, 272, 273, 274, 275, 276, 277, 278, 279, 280, 281, 282, 283, 284, 285, 286, 287, 288, 289, 290, 291, 292, 293, 294, 295, 296, 297, 298, 299, 300, 301, 302, 303, 304, 305, 306, 307, 308, 309, 310, 311, 312, 313, 314, 315, 316, 317, 318, 319, 320, 321, 322, 323, 324, 325, 326, 327, 328, 329, 330, 331, 332, 333, 334, 335, 336, 337, 338, 339, 340, 341, 342, 343, 344, 345, 346, 347, 348, 349, 350, 351, 352, 353, 354, 355, 356, 357, 358, 359, 360, 361, 362, 363, 364, 365, 366, 367, 368, 369, 370, 371, 372, 373, 374, 375, 376, 377, 378, 379, 380, 381, 382, 383, 384, 385, 386, 387, 388, 389, 390, 391, 392, 393, 394, 395, 396, 397, 398, 399, 400, 401, 402, 403, 404, 405, 406, 407, 408, 409, 410, 411, 412, 413, 414, 415, 416, 417, 418, 419, 420, 421, 422, 423, 424, 425, 426, 427, 428, 429, 430, 431, 432, 433, 434, 435, 436, 437, 438, 439, 440, 441, 442, 443, 444, 445, 446, 447, 448, 449, 450, 451, 452, 453, 454, 455, 456, 457, 458, 459, 460, 461, 462, 463, 464, 465, 466, 467, 468, 469, 470, 471, 472, 473, 474, 475, 476, 477, 478, 479, 480, 481, 482, 483, 484, 485, 486, 487, 488, 489, 490, 491, 492, 493, 494, 495, 496, 497, 498, 499],
      "AcquisitionTime": ["162323.802500", "162325.292500", "162326.782500", "162328.272500", "162329.762500", "162331.252500", "162332.742500", "162334.232500", "162335.722500", "162337.212500", "162338.702500", "162340.192500", "162341.682500", "162343.172500", "162344.662500", "162346.152500", "162347.642500", "162349.132500", "162350.622500", "162352.112500", "162353.602500", "162355.092500", "162356.582500", "162358.072500", "162359.562500", "162401.052500", "162402.542500", "162404.032500", "162405.522500", "162407.012500", "162408.502500", "162409.992500", "162411.482500", "162412.972500", "162414.462500", "162415.952500", "162417.442500", "162418.932500", "162420.422500", "162421.912500", "162423.402500", "162424.892500", "162426.382500", "162427.872500", "162429.362500", "162430.852500", "162432.342500", "162433.832500", "162435.322500", "162436.812500", "162438.302500", "162439.792500", "162441.282500", "162442.772500", "162444.262500", "162445.752500", "162447.242500", "162448.732500", "162450.222500", "162451.712500", "162453.202500", "162454.692500", "162456.182500", "162457.672500", "162459.162500", "162500.652500", "162502.142500", "162503.632500", "162505.122500", "162506.612500", "162508.102500", "162509.592500", "162511.082500", "162512.572500", "162514.062500", "162515.552500", "162517.042500", "162518.532500", "162520.022500", "162521.512500", "162523.002500", "162524.492500", "162525.982500", "162527.472500", "162528.962500", "162530.452500", "162531.942500", "162533.432500", "162534.922500", "162536.412500", "162537.902500", "162539.392500", "162540.882500", "162542.372500", "162543.862500", "162545.352500", "162546.842500", "162548.332500", "162549.822500", "162551.312500", "162552.802500", "162554.292500", "162555.782500", "162557.272500", "162558.762500", "162600.252500", "162601.742500", "162603.232500", "162604.722500", "162606.212500", "162607.702500", "162609.192500", "162610.682500", "162612.172500", "162613.662500", "162615.152500", "162616.642500", "162618.132500", "162619.622500", "162621.112500", "162622.602500", "162624.092500", "162625.582500", "162627.072500", "162628.562500", "162630.052500", "162631.542500", "162633.032500", "162634.522500", "162636.012500", "162637.502500", "162638.992500", "162640.482500", "162641.972500", "162643.462500", "162644.952500", "162646.442500", "162647.932500", "162649.422500", "162650.912500", "162652.402500", "162653.892500", "162655.382500", "162656.872500", "162658.362500", "162659.852500", "162701.342500", "162702.832500", "162704.322500", "162705.812500", "162707.302500", "162708.792500", "162710.282500", "162711.772500", "162713.262500", "162714.752500", "162716.242500", "162717.732500", "162719.222500", "162720.712500", "162722.202500", "162723.692500", "162725.182500", "162726.672500", "162728.162500", "162729.652500", "162731.142500", "162732.632500", "162734.122500", "162735.612500", "162737.102500", "162738.592500", "162740.082500", "162741.572500", "162743.062500", "162744.552500", "162746.042500", "162747.532500", "162749.022500", "162750.512500", "162752.002500", "162753.492500", "162754.982500", "162756.472500", "162757.962500", "162759.452500", "162800.942500", "162802.432500", "162803.922500", "162805.412500", "162806.902500", "162808.392500", "162809.882500", "162811.372500", "162812.862500", "162814.352500", "162815.842500", "162817.332500", "162818.822500", "162820.312500", "162821.802500", "162823.292500", "162824.782500", "162826.272500", "162827.762500", "162829.252500", "162830.742500", "162832.232500", "162833.722500", "162835.212500", "162836.702500", "162838.192500", "162839.682500", "162841.172500", "162842.662500", "162844.152500", "162845.642500", "162847.132500", "162848.622500", "162850.112500", "162851.602500", "162853.092500", "162854.582500", "162856.072500", "162857.562500", "162859.052500", "162900.542500", "162902.032500", "162903.522500", "162905.012500", "162906.502500", "162907.992500", "162909.482500", "162910.972500", "162912.462500", "162913.952500", "162915.442500", "162916.932500", "162918.422500", "162919.912500", "162921.402500", "162922.892500", "162924.382500", "162925.872500", "162927.362500", "162928.852500", "162930.342500", "162931.832500", "162933.322500", "162934.812500", "162936.302500", "162937.792500", "162939.282500", "162940.772500", "162942.262500", "162943.752500", "162945.242500", "162946.732500", "162948.222500", "162949.712500", "162951.202500", "162952.692500", "162954.182500", "162955.672500", "162957.162500", "162958.652500", "163000.142500", "163001.632500", "163003.122500", "163004.612500", "163006.102500", "163007.592500", "163009.082500", "163010.572500", "163012.062500", "163013.552500", "163015.042500", "163016.532500", "163018.022500", "163019.512500", "163021.002500", "163022.492500", "163023.982500", "163025.472500", "163026.962500", "163028.452500", "163029.942500", "163031.432500", "163032.922500", "163034.412500", "163035.902500", "163037.392500", "163038.882500", "163040.372500", "163041.862500", "163043.352500", "163044.842500", "163046.332500", "163047.822500", "163049.312500", "163050.802500", "163052.292500", "163053.782500", "163055.272500", "163056.762500", "163058.252500", "163059.742500", "163101.232500", "163102.722500", "163104.212500", "163105.702500", "163107.192500", "163108.682500", "163110.172500", "163111.662500", "163113.152500", "163114.642500", "163116.132500", "163117.622500", "163119.112500", "163120.602500", "163122.092500", "163123.582500", "163125.072500", "163126.562500", "163128.052500", "163129.542500", "163131.032500", "163132.522500", "163134.012500", "163135.502500", "163136.992500", "163138.482500", "163139.972500", "163141.462500", "163142.952500", "163144.442500", "163145.932500", "163147.422500", "163148.912500", "163150.402500", "163151.892500", "163153.382500", "163154.872500", "163156.362500", "163157.852500", "163159.342500", "163200.832500", "163202.322500", "163203.812500", "163205.302500", "163206.792500", "163208.282500", "163209.772500", "163211.262500", "163212.752500", "163214.242500", "163215.732500", "163217.222500", "163218.712500", "163220.202500", "163221.692500", "163223.182500", "163224.672500", "163226.162500", "163227.652500", "163229.142500", "163230.632500", "163232.122500", "163233.612500", "163235.102500", "163236.592500", "163238.082500", "163239.572500", "163241.062500", "163242.552500", "163244.042500", "163245.532500", "163247.022500", "163248.512500", "163250.002500", "163251.492500", "163252.982500", "163254.472500", "163255.962500", "163257.452500", "163258.942500", "163300.432500", "163301.922500", "163303.412500", "163304.902500", "163306.392500", "163307.882500", "163309.372500", "163310.862500", "163312.352500", "163313.842500", "163315.332500", "163316.822500", "163318.312500", "163319.802500", "163321.292500", "163322.782500", "163324.272500", "163325.762500", "163327.252500", "163328.742500", "163330.232500", "163331.722500", "163333.212500", "163334.702500", "163336.192500", "163337.682500", "163339.172500", "163340.662500", "163342.152500", "163343.642500", "163345.132500", "163346.622500", "163348.112500", "163349.602500", "163351.092500", "163352.582500", "163354.072500", "163355.562500", "163357.052500", "163358.542500", "163400.032500", "163401.522500", "163403.012500", "163404.502500", "163405.992500", "163407.482500", "163408.972500", "163410.462500", "163411.952500", "163413.442500", "163414.932500", "163416.422500", "163417.912500", "163419.402500", "163420.892500", "163422.382500", "163423.872500", "163425.362500", "163426.852500", "163428.342500", "163429.832500", "163431.322500", "163432.812500", "163434.302500", "163435.792500", "163437.282500", "163438.772500", "163440.262500", "163441.752500", "163443.242500", "163444.732500", "163446.222500", "163447.712500", "163449.202500", "163450.692500", "163452.182500", "163453.672500", "163455.162500", "163456.652500", "163458.142500", "163459.632500", "163501.122500", "163502.612500", "163504.102500", "163505.592500", "163507.082500", "163508.572500", "163510.062500", "163511.552500", "163513.042500", "163514.532500", "163516.022500", "163517.512500", "163519.002500", "163520.492500", "163521.982500", "163523.472500", "163524.962500", "163526.452500", "163527.942500", "163529.432500", "163530.922500", "163532.412500", "163533.902500", "163535.392500", "163536.882500", "163538.372500", "163539.862500", "163541.352500", "163542.842500", "163544.332500", "163545.822500"],
      "ContentTime": ["162449.475000", "162449.478000", "162449.482000", "162449.485000", "162449.488000", "162449.491000", "162449.495000", "162449.498000", "162449.501000", "162449.505000", "162449.508000", "162449.511000", "162449.514000", "162449.518000", "162449.521000", "162449.524000", "162449.533000", "162449.537000", "162449.540000", "162449.543000", "162449.546000", "162449.550000", "162449.553000", "162449.556000", "162449.560000", "162449.563000", "162449.566000", "162449.569000", "162449.573000", "162449.576000", "162449.579000", "162509.430000", "162509.452000", "162509.455000", "162509.459000", "162509.462000", "162509.465000", "162509.468000", "162509.472000", "162509.475000", "162509.478000", "162509.482000", "162509.485000", "162509.488000", "162509.491000", "162509.495000", "162509.498000", "162509.501000", "162509.505000", "162509.508000", "162509.511000", "162529.431000", "162529.435000", "162529.439000", "162529.442000", "162529.446000", "162529.449000", "162529.452000", "162529.456000", "162529.459000", "162529.462000", "162529.465000", "162529.469000", "162529.472000", "162529.475000", "162529.478000", "162529.482000", "162529.485000", "162529.488000", "162529.492000", "162529.498000", "162549.431000", "162549.435000", "162549.438000", "162549.441000", "162549.445000", "162549.448000", "162549.451000", "162549.455000", "162549.458000", "162549.461000", "162549.464000", "162549.468000", "162549.471000", "162549.474000", "162549.477000", "162549.481000", "162549.484000", "162549.487000", "162549.491000", "162549.494000", "162629.431000", "162629.435000", "162629.438000", "162629.441000", "162629.445000", "162629.448000", "162629.451000", "162629.455000", "162629.458000", "162629.461000", "162629.464000", "162629.468000", "162629.471000", "162629.474000", "162629.477000", "162629.481000", "162629.484000", "162629.487000", "162629.491000", "162629.494000", "162629.497000", "162629.501000", "162629.504000", "162629.507000", "162629.510000", "162629.514000", "162629.517000", "162629.520000", "162629.523000", "162629.527000", "162629.530000", "162629.533000", "162629.537000", "162709.431000", "162709.435000", "162709.438000", "162709.441000", "162709.445000", "162709.448000", "162709.451000", "162709.454000", "162709.458000", "162709.461000", "162709.464000", "162709.468000", "162709.471000", "162709.474000", "162709.477000", "162709.481000", "162709.484000", "162709.493000", "162709.496000", "162709.499000", "162709.502000", "162709.506000", "162709.509000", "162709.512000", "162709.516000", "162709.519000", "162709.522000", "162749.431000", "162749.435000", "162749.438000", "162749.441000", "162749.445000", "162749.448000", "162749.451000", "162749.455000", "162749.458000", "162749.461000", "162749.465000", "162749.468000", "162749.471000", "162749.474000", "162749.478000", "162749.481000", "162749.484000", "162749.488000", "162749.491000", "162749.495000", "162749.499000", "162749.502000", "162749.506000", "162749.509000", "162749.513000", "162749.516000", "162829.431000", "162829.435000", "162829.438000", "162829.442000", "162829.445000", "162829.448000", "162829.451000", "162829.455000", "162829.458000", "162829.461000", "162829.465000", "162829.468000", "162829.471000", "162829.475000", "162829.478000", "162829.481000", "162829.485000", "162829.488000", "162829.491000", "162829.495000", "162829.498000", "162829.501000", "162829.504000", "162829.508000", "162829.511000", "162829.514000", "162829.518000", "162849.431000", "162849.435000", "162849.438000", "162849.442000", "162849.445000", "162849.448000", "162849.452000", "162849.455000", "162849.458000", "162849.462000", "162849.465000", "162849.468000", "162849.471000", "162849.475000", "162929.431000", "162929.435000", "162929.438000", "162929.442000", "162929.446000", "162929.451000", "162929.455000", "162929.459000", "162929.462000", "162929.467000", "162929.471000", "162929.475000", "162929.478000", "162929.481000", "162929.485000", "162929.488000", "162929.508000", "162929.512000", "162929.515000", "162929.518000", "162929.522000", "162929.525000", "162929.528000", "162929.531000", "162929.535000", "162929.546000", "163009.431000", "163009.435000", "163009.438000", "163009.442000", "163009.445000", "163009.448000", "163009.452000", "163009.455000", "163009.458000", "163009.462000", "163009.465000", "163009.468000", "163009.471000", "163009.475000", "163009.478000", "163009.481000", "163009.484000", "163009.488000", "163009.491000", "163009.494000", "163009.498000", "163009.501000", "163009.504000", "163009.507000", "163009.511000", "163009.514000", "163009.517000", "163049.431000", "163049.435000", "163049.438000", "163049.441000", "163049.445000", "163049.448000", "163049.451000", "163049.455000", "163049.458000", "163049.461000", "163049.464000", "163049.468000", "163049.471000", "163049.474000", "163049.477000", "163049.481000", "163049.484000", "163049.488000", "163049.491000", "163049.494000", "163049.497000", "163049.501000", "163049.504000", "163049.507000", "163049.511000", "163049.514000", "163049.517000", "163129.431000", "163129.435000", "163129.438000", "163129.441000", "163129.445000", "163129.448000", "163129.451000", "163129.455000", "163129.458000", "163129.461000", "163129.465000", "163129.468000", "163129.471000", "163129.475000", "163129.478000", "163129.481000", "163129.485000", "163129.488000", "163129.491000", "163129.495000", "163129.498000", "163129.501000", "163129.504000", "163129.508000", "163129.511000", "163129.514000", "163129.518000", "163209.431000", "163209.445000", "163209.448000", "163209.451000", "163209.455000", "163209.458000", "163209.461000", "163209.464000", "163209.468000", "163209.471000", "163209.474000", "163209.478000", "163209.481000", "163209.484000", "163209.488000", "163209.491000", "163209.494000", "163209.498000", "163209.501000", "163209.504000", "163209.508000", "163209.511000", "163209.514000", "163209.518000", "163209.521000", "163209.524000", "163209.527000", "163249.431000", "163249.435000", "163249.438000", "163249.442000", "163249.445000", "163249.448000", "163249.452000", "163249.455000", "163249.458000", "163249.462000", "163249.465000", "163249.468000", "163249.471000", "163249.475000", "163249.478000", "163249.482000", "163249.485000", "163249.488000", "163249.492000", "163249.495000", "163249.498000", "163249.502000", "163249.505000", "163249.510000", "163249.513000", "163249.516000", "163249.520000", "163329.431000", "163329.435000", "163329.438000", "163329.450000", "163329.453000", "163329.457000", "163329.460000", "163329.463000", "163329.467000", "163329.470000", "163329.473000", "163329.477000", "163329.480000", "163329.483000", "163329.486000", "163329.490000", "163329.493000", "163329.496000", "163329.500000", "163329.503000", "163329.506000", "163329.510000", "163329.513000", "163329.516000", "163329.520000", "163329.523000", "163329.526000", "163409.431000", "163409.435000", "163409.438000", "163409.442000", "163409.446000", "163409.449000", "163409.452000", "163409.456000", "163409.459000", "163409.462000", "163409.466000", "163409.469000", "163409.472000", "163409.475000", "163409.479000", "163409.491000", "163409.495000", "163409.499000", "163409.502000", "163409.505000", "163409.508000", "163409.512000", "163409.515000", "163409.518000", "163409.522000", "163409.525000", "163449.431000", "163449.435000", "163449.438000", "163449.442000", "163449.445000", "163449.448000", "163449.452000", "163449.455000", "163449.458000", "163449.462000", "163449.465000", "163449.468000", "163449.471000", "163449.475000", "163449.478000", "163449.481000", "163449.484000", "163449.488000", "163449.491000", "163449.494000", "163449.498000", "163449.501000", "163449.504000", "163449.507000", "163449.511000", "163449.514000", "163449.517000", "163529.431000", "163529.435000", "163529.438000", "163529.442000", "163529.445000", "163529.448000", "163529.451000", "163529.455000", "163529.458000", "163529.462000", "163529.465000", "163529.469000", "163529.472000", "163529.475000", "163529.479000", "163529.482000", "163529.485000", "163529.489000", "163529.492000", "163529.495000", "163529.499000", "163529.502000", "163529.505000", "163529.509000", "163529.512000", "163529.515000", "163529.518000", "163547.972000", "163547.976000", "163547.979000", "163547.983000", "163547.986000", "163547.989000", "163547.993000", "163547.996000", "163548.000000", "163548.004000", "163548.007000", "163548.010000", "163548.013000"],
