{
  "AcquisitionMatrixPE": 104,
  "AcquisitionNumber": 1,
  "AcquisitionTime": "17:59:35.955000",
  "BandwidthPerPixelPhaseEncode": 17.17,
  "BaseResolution": 104,
  "BodyPartExamined": "BRAIN",
  "CoilCombinationMethod": "Sum of Squares",
  "ConsistencyInfo": "N4_VE11C_LATEST_20160120",
  "ConversionSoftware": "dcm2niix",
  "ConversionSoftwareVersion": "v1.0.20211006",
  "DerivedVendorReportedEchoSpacing": 0.000560011,
  "DeviceSerialNumber": "167006",
  "DwellTime": 2.1e-06,
  "EchoTime": 0.037,
  "EchoTime1": 0.037,
  "EchoTime2": 0.001,
  "EchoTrainLength": 104,
  "EffectiveEchoSpacing": 0.000560011,
  "FlipAngle": 52,
  "HeudiconvVersion": "0.11.3.post9+gc939bf8",
  "ImageComments": "Unaliased MB4/PE3/LB",
  "ImageOrientationPatientDICOM": [0.999842, -0.0150375, 0.00944765, 0.0174523, 0.930443, -0.36602],
  "ImageOrientationText": "Tra>Cor(-21.5)>Sag(0.2)",
  "ImageType": [
    "ORIGINAL",
    "PRIMARY",
    "P",
    "MB",
    "ND",
    "MOSAIC",
    "PHASE"
],
  "ImagingFrequency": 123.259,
  "InPlanePhaseEncodingDirectionDICOM": "COL",
  "InstitutionAddress": "Chemin Queen-Mary 4565,Montreal,District,CA,H3W 1W5",
  "InstitutionName": "IUGM",
  "InstitutionalDepartmentName": "Department",
  "MRAcquisitionType": "2D",
  "MagneticFieldStrength": 3,
  "Manufacturer": "Siemens",
  "ManufacturersModelName": "Prisma_fit",
  "MatrixCoilMode": "SENSE",
  "Modality": "MR",
  "MultibandAccelerationFactor": 4,
  "PartialFourier": 1,
  "PatientPosition": "HFS",
  "PercentPhaseFOV": 100,
  "PercentSampling": 100,
  "PhaseEncodingDirection": "j",
  "PhaseEncodingSteps": 104,
  "PhaseResolution": 1,
  "PixelBandwidth": 2290,
  "ProcedureStepDescription": "games^mario",
  "ProtocolName": "func_task-mario_run-04",
  "PulseSequenceDetails": "%CustomerSeq%\\cmrr_mbep2d_bold",
  "ReceiveCoilActiveElements": "HC1-7;NC1,2",
  "ReceiveCoilName": "HeadNeck_64",
  "ReconMatrixPE": 104,
  "RepetitionTime": 1.49,
  "SAR": 0.0605607,
  "ScanOptions": "FS",
  "ScanningSequence": "EP",
  "SequenceName": "epfid2d1_104",
  "SequenceVariant": "SK\\SS",
  "SeriesDescription": "func_task-mario_run-04",
  "SeriesNumber": 20,
  "ShimSetting": [613, -7256, -8818, 420, 8, -346, 13, 46],
  "SliceThickness": 2,
  "SliceTiming": [0, 0.7825, 0.0975, 0.8825, 0.195, 0.98, 0.2925, 1.0775, 0.3925, 1.175, 0.49, 1.2725, 0.5875, 1.3725, 0.685, 0, 0.7825, 0.0975, 0.8825, 0.195, 0.98, 0.2925, 1.0775, 0.3925, 1.175, 0.49, 1.2725, 0.5875, 1.3725, 0.685, 0, 0.7825, 0.0975, 0.8825, 0.195, 0.98, 0.2925, 1.0775, 0.3925, 1.175, 0.49, 1.2725, 0.5875, 1.3725, 0.685, 0, 0.7825, 0.0975, 0.8825, 0.195, 0.98, 0.2925, 1.0775, 0.3925, 1.175, 0.49, 1.2725, 0.5875, 1.3725, 0.685],
  "SoftwareVersions": "syngo MR E11",
  "SpacingBetweenSlices": 2,
  "StationName": "MRC35049",
  "TaskName": "mario",
  "TotalReadoutTime": 0.0576811,
  "TxRefAmp": 268.624,
  "WipMemBlock": "c3a07974-fd7f-409c-a96d-0db2d1f924ae||Sequence: R017 ve11c/master r/75a17815+; Jun 28 2022 16:32:11 by eja",
  "dcmmeta_affine": [
    [-1.9996845722198486, 0.0349045991897583, 0.006572968792170286, 101.75364685058594],
    [0.03007495030760765, 1.860886573791504, -0.7322544455528259, -69.86760711669922],
    [0.01889529824256897, 0.7320401072502136, 1.8611180782318115, -61.219581604003906],
    [0.0, 0.0, 0.0, 1.0]
],
  "dcmmeta_reorient_transform": [
    [0.0, -1.0, 0.0, 103.0],
    [1.0, 0.0, 0.0, 0.0],
    [0.0, 0.0, 1.0, 0.0],
    [0.0, 0.0, 0.0, 1.0]
],
  "dcmmeta_shape": [104, 104, 60, 451],
  "dcmmeta_slice_dim": 2,
  "dcmmeta_version": 0.6,
  "global": {
    "const": {
      "AcquisitionMatrix": [104, 0, 0, 104],
      "AngioFlag": "N",
      "BitsAllocated": 16,
      "BitsStored": 16,
      "BodyPartExamined": "BRAIN",
      "Columns": 832,
      "EchoNumbers": 1,
      "EchoTime": 37.0,
      "EchoTrainLength": 104,
      "FlipAngle": 52.0,
      "HighBit": 15,
      "ImageOrientationPatient": [0.99984229569714, -0.0150374752247, 0.00944764912259, 0.0174522994669, 0.93044329840757, -0.3660200618706],
      "ImagePositionPatient": [-845.9392893039, -788.21915207504, 273.7652666019],
      "ImageType": [
        "ORIGINAL",
        "PRIMARY",
        "P",
        "MB",
        "ND",
        "MOSAIC"
],
      "ImagedNucleus": "1H",
      "ImagingFrequency": 123.258763,
      "InPlanePhaseEncodingDirection": "COL",
      "LargestImagePixelValue": 4095,
      "MRAcquisitionType": "2D",
      "MagneticFieldStrength": 3.0,
      "Manufacturer": "SIEMENS",
      "ManufacturerModelName": "Prisma_fit",
      "Modality": "MR",
      "NumberOfAverages": 1.0,
      "NumberOfPhaseEncodingSteps": 104,
      "PercentPhaseFieldOfView": 100.0,
      "PercentSampling": 100.0,
      "PerformedProcedureStepStartTime": "171751.667000",
      "PhotometricInterpretation": "MONOCHROME2",
      "PixelBandwidth": 2290.0,
      "PixelRepresentation": 0,
      "PixelSpacing": [2.0, 2.0],
      "ProtocolName": "func_task-mario_run-04",
      "RepetitionTime": 1490.0,
      "RescaleIntercept": -4096.0,
      "RescaleSlope": 2.0,
      "RescaleType": "US",
      "Rows": 832,
      "SAR": 0.06056072563423,
      "SamplesPerPixel": 1,
      "ScanOptions": "FS",
      "ScanningSequence": "EP",
      "SequenceName": "epfid2d1_104",
      "SequenceVariant": [
        "SK",
        "SS"
],
      "SeriesDescription": "func_task-mario_run-04",
      "SeriesNumber": 20,
      "SeriesTime": "180037.632000",
      "SliceLocation": -31.05358919768,
      "SliceThickness": 2.0,
      "SmallestImagePixelValue": 0,
      "SoftwareVersions": "syngo MR E11",
      "SpacingBetweenSlices": 2.0000000637362,
      "SpecificCharacterSet": "ISO_IR 100",
      "StudyID": "1",
      "StudyTime": "171751.599000",
      "TransmitCoilName": "Body",
      "VariableFlipAngleFlag": "N",
      "WindowCenterWidthExplanation": "Algo1",
      "dBdt": 0.0},
    "slices": {}
  },
  "time": {
    "samples": {
      "AcquisitionNumber": [1, 2, 3, 4, 5, 6, 7, 8, 9, 10, 11, 12, 13, 14, 15, 16, 17, 18, 19, 20, 21, 22, 23, 24, 25, 26, 27, 28, 29, 30, 31, 32, 33, 34, 35, 36, 37, 38, 39, 40, 41, 42, 43, 44, 45, 46, 47, 48, 49, 50, 51, 52, 53, 54, 55, 56, 57, 58, 59, 60, 61, 62, 63, 64, 65, 66, 67, 68, 69, 70, 71, 72, 73, 74, 75, 76, 77, 78, 79, 80, 81, 82, 83, 84, 85, 86, 87, 88, 89, 90, 91, 92, 93, 94, 95, 96, 97, 98, 99, 100, 101, 102, 103, 104, 105, 106, 107, 108, 109, 110, 111, 112, 113, 114, 115, 116, 117, 118, 119, 120, 121, 122, 123, 124, 125, 126, 127, 128, 129, 130, 131, 132, 133, 134, 135, 136, 137, 138, 139, 140, 141, 142, 143, 144, 145, 146, 147, 148, 149, 150, 151, 152, 153, 154, 155, 156, 157, 158, 159, 160, 161, 162, 163, 164, 165, 166, 167, 168, 169, 170, 171, 172, 173, 174, 175, 176, 177, 178, 179, 180, 181, 182, 183, 184, 185, 186, 187, 188, 189, 190, 191, 192, 193, 194, 195, 196, 197, 198, 199, 200, 201, 202, 203, 204, 205, 206, 207, 208, 209, 210, 211, 212, 213, 214, 215, 216, 217, 218, 219, 220, 221, 222, 223, 224, 225, 226, 227, 228, 229, 230, 231, 232, 233, 234, 235, 236, 237, 238, 239, 240, 241, 242, 243, 244, 245, 246, 247, 248, 249, 250, 251, 252, 253, 254, 255, 256, 257, 258, 259, 260, 261, 262, 263, 264, 265, 266, 267, 268, 269, 270, 271, 272, 273, 274, 275, 276, 277, 278, 279, 280, 281, 282, 283, 284, 285, 286, 287, 288, 289, 290, 291, 292, 293, 294, 295, 296, 297, 298, 299, 300, 301, 302, 303, 304, 305, 306, 307, 308, 309, 310, 311, 312, 313, 314, 315, 316, 317, 318, 319, 320, 321, 322, 323, 324, 325, 326, 327, 328, 329, 330, 331, 332, 333, 334, 335, 336, 337, 338, 339, 340, 341, 342, 343, 344, 345, 346, 347, 348, 349, 350, 351, 352, 353, 354, 355, 356, 357, 358, 359, 360, 361, 362, 363, 364, 365, 366, 367, 368, 369, 370, 371, 372, 373, 374, 375, 376, 377, 378, 379, 380, 381, 382, 383, 384, 385, 386, 387, 388, 389, 390, 391, 392, 393, 394, 395, 396, 397, 398, 399, 400, 401, 402, 403, 404, 405, 406, 407, 408, 409, 410, 411, 412, 413, 414, 415, 416, 417, 418, 419, 420, 421, 422, 423, 424, 425, 426, 427, 428, 429, 430, 431, 432, 433, 434, 435, 436, 437, 438, 439, 440, 441, 442, 443, 444, 445, 446, 447, 448, 449, 450, 451],
      "AcquisitionTime": ["175935.955000", "175937.445000", "175938.935000", "175940.425000", "175941.915000", "175943.405000", "175944.895000", "175946.385000", "175947.875000", "175949.365000", "175950.855000", "175952.345000", "175953.835000", "175955.325000", "175956.815000", "175958.305000", "175959.795000", "180001.285000", "180002.775000", "180004.265000", "180005.755000", "180007.245000", "180008.735000", "180010.225000", "180011.715000", "180013.205000", "180014.695000", "180016.185000", "180017.675000", "180019.165000", "180020.655000", "180022.145000", "180023.635000", "180025.125000", "180026.615000", "180028.105000", "180029.595000", "180031.085000", "180032.575000", "180034.065000", "180035.555000", "180037.045000", "180038.535000", "180040.025000", "180041.515000", "180043.005000", "180044.495000", "180045.985000", "180047.475000", "180048.965000", "180050.455000", "180051.945000", "180053.435000", "180054.925000", "180056.415000", "180057.905000", "180059.395000", "180100.885000", "180102.375000", "180103.865000", "180105.355000", "180106.845000", "180108.335000", "180109.825000", "180111.315000", "180112.805000", "180114.295000", "180115.785000", "180117.275000", "180118.765000", "180120.255000", "180121.745000", "180123.235000", "180124.725000", "180126.215000", "180127.705000", "180129.195000", "180130.685000", "180132.175000", "180133.665000", "180135.155000", "180136.645000", "180138.135000", "180139.625000", "180141.115000", "180142.605000", "180144.095000", "180145.585000", "180147.075000", "180148.565000", "180150.055000", "180151.545000", "180153.035000", "180154.525000", "180156.015000", "180157.505000", "180158.995000", "180200.485000", "180201.975000", "180203.465000", "180204.955000", "180206.445000", "180207.935000", "180209.425000", "180210.915000", "180212.405000", "180213.895000", "180215.385000", "180216.875000", "180218.365000", "180219.855000", "180221.345000", "180222.835000", "180224.325000", "180225.815000", "180227.305000", "180228.795000", "180230.285000", "180231.775000", "180233.265000", "180234.755000", "180236.245000", "180237.735000", "180239.225000", "180240.715000", "180242.205000", "180243.695000", "180245.185000", "180246.675000", "180248.165000", "180249.655000", "180251.145000", "180252.635000", "180254.125000", "180255.615000", "180257.105000", "180258.595000", "180300.085000", "180301.575000", "180303.065000", "180304.555000", "180306.045000", "180307.535000", "180309.025000", "180310.515000", "180312.005000", "180313.495000", "180314.985000", "180316.475000", "180317.965000", "180319.455000", "180320.945000", "180322.435000", "180323.925000", "180325.415000", "180326.905000", "180328.395000", "180329.885000", "180331.375000", "180332.865000", "180334.355000", "180335.845000", "180337.335000", "180338.825000", "180340.315000", "180341.805000", "180343.295000", "180344.785000", "180346.275000", "180347.765000", "180349.255000", "180350.745000", "180352.235000", "180353.725000", "180355.215000", "180356.705000", "180358.195000", "180359.685000", "180401.175000", "180402.665000", "180404.155000", "180405.645000", "180407.135000", "180408.625000", "180410.115000", "180411.605000", "180413.095000", "180414.585000", "180416.075000", "180417.565000", "180419.055000", "180420.545000", "180422.035000", "180423.525000", "180425.015000", "180426.505000", "180427.995000", "180429.485000", "180430.975000", "180432.465000", "180433.955000", "180435.445000", "180436.935000", "180438.425000", "180439.915000", "180441.405000", "180442.895000", "180444.385000", "180445.875000", "180447.365000", "180448.855000", "180450.345000", "180451.835000", "180453.325000", "180454.815000", "180456.305000", "180457.795000", "180459.285000", "180500.775000", "180502.265000", "180503.755000", "180505.245000", "180506.735000", "180508.225000", "180509.715000", "180511.205000", "180512.695000", "180514.185000", "180515.675000", "180517.165000", "180518.655000", "180520.145000", "180521.635000", "180523.125000", "180524.615000", "180526.105000", "180527.595000", "180529.085000", "180530.575000", "180532.065000", "180533.555000", "180535.045000", "180536.535000", "180538.025000", "180539.515000", "180541.005000", "180542.495000", "180543.985000", "180545.475000", "180546.965000", "180548.455000", "180549.945000", "180551.435000", "180552.925000", "180554.415000", "180555.905000", "180557.395000", "180558.885000", "180600.375000", "180601.865000", "180603.355000", "180604.845000", "180606.335000", "180607.825000", "180609.315000", "180610.805000", "180612.295000", "180613.785000", "180615.275000", "180616.765000", "180618.255000", "180619.745000", "180621.235000", "180622.725000", "180624.215000", "180625.705000", "180627.195000", "180628.685000", "180630.175000", "180631.665000", "180633.155000", "180634.645000", "180636.135000", "180637.625000", "180639.115000", "180640.605000", "180642.095000", "180643.585000", "180645.075000", "180646.565000", "180648.055000", "180649.545000", "180651.035000", "180652.525000", "180654.015000", "180655.505000", "180656.995000", "180658.485000", "180659.975000", "180701.465000", "180702.955000", "180704.445000", "180705.935000", "180707.425000", "180708.915000", "180710.405000", "180711.895000", "180713.385000", "180714.875000", "180716.365000", "180717.855000", "180719.345000", "180720.835000", "180722.325000", "180723.815000", "180725.305000", "180726.795000", "180728.285000", "180729.775000", "180731.265000", "180732.755000", "180734.245000", "180735.735000", "180737.225000", "180738.715000", "180740.205000", "180741.695000", "180743.185000", "180744.675000", "180746.165000", "180747.655000", "180749.145000", "180750.635000", "180752.125000", "180753.615000", "180755.105000", "180756.595000", "180758.085000", "180759.575000", "180801.065000", "180802.555000", "180804.045000", "180805.535000", "180807.025000", "180808.515000", "180810.005000", "180811.495000", "180812.985000", "180814.475000", "180815.965000", "180817.455000", "180818.945000", "180820.435000", "180821.925000", "180823.415000", "180824.905000", "180826.395000", "180827.885000", "180829.375000", "180830.865000", "180832.355000", "180833.845000", "180835.335000", "180836.825000", "180838.315000", "180839.805000", "180841.295000", "180842.785000", "180844.275000", "180845.765000", "180847.255000", "180848.745000", "180850.235000", "180851.725000", "180853.215000", "180854.705000", "180856.195000", "180857.685000", "180859.175000", "180900.665000", "180902.155000", "180903.645000", "180905.135000", "180906.625000", "180908.115000", "180909.605000", "180911.095000", "180912.585000", "180914.075000", "180915.565000", "180917.055000", "180918.545000", "180920.035000", "180921.525000", "180923.015000", "180924.505000", "180925.995000", "180927.485000", "180928.975000", "180930.465000", "180931.955000", "180933.445000", "180934.935000", "180936.425000", "180937.915000", "180939.405000", "180940.895000", "180942.385000", "180943.875000", "180945.365000", "180946.855000", "180948.345000", "180949.835000", "180951.325000", "180952.815000", "180954.305000", "180955.795000", "180957.285000", "180958.775000", "181000.265000", "181001.755000", "181003.245000", "181004.735000", "181006.225000", "181007.715000", "181009.205000", "181010.695000", "181012.185000", "181013.675000", "181015.165000", "181016.655000", "181018.145000", "181019.635000", "181021.125000", "181022.615000", "181024.105000", "181025.595000", "181027.085000", "181028.575000", "181030.065000", "181031.555000", "181033.045000", "181034.535000", "181036.025000", "181037.515000", "181039.005000", "181040.495000", "181041.985000", "181043.475000", "181044.965000", "181046.455000"],
      "ContentTime": ["180037.634000", "180037.636000", "180037.639000", "180037.641000", "180037.644000", "180037.654000", "180037.656000", "180037.659000", "180037.661000", "180037.664000", "180037.667000", "180037.669000", "180057.625000", "180057.628000", "180057.631000", "180057.633000", "180057.638000", "180057.641000", "180057.643000", "180057.645000", "180057.648000", "180057.650000", "180057.653000", "180057.655000", "180057.658000", "180057.660000", "180057.663000", "180057.665000", "180057.668000", "180057.670000", "180057.673000", "180057.675000", "180117.619000", "180117.622000", "180117.624000", "180117.627000", "180117.629000", "180117.632000", "180117.634000", "180117.637000", "180117.639000", "180117.642000", "180117.644000", "180117.647000", "180117.649000", "180117.652000", "180117.654000", "180117.657000", "180117.659000", "180117.662000", "180117.664000", "180117.667000", "180137.636000", "180137.638000", "180137.641000", "180137.644000", "180137.646000", "180137.649000", "180137.651000", "180137.654000", "180137.656000", "180137.659000", "180137.661000", "180137.664000", "180137.666000", "180137.668000", "180137.671000", "180137.673000", "180137.676000", "180137.678000", "180137.681000", "180137.683000", "180157.623000", "180157.625000", "180157.628000", "180157.630000", "180157.633000", "180157.635000", "180157.638000", "180157.640000", "180157.643000", "180157.645000", "180157.648000", "180157.650000", "180157.653000", "180157.655000", "180157.658000", "180157.660000", "180157.663000", "180157.665000", "180157.668000", "180157.670000", "180157.673000", "180237.677000", "180237.680000", "180237.682000", "180237.685000", "180237.687000", "180237.690000", "180237.692000", "180237.695000", "180237.697000", "180237.700000", "180237.703000", "180237.705000", "180237.708000", "180237.710000", "180237.713000", "180237.715000", "180237.718000", "180237.721000", "180237.723000", "180237.726000", "180237.728000", "180237.731000", "180237.733000", "180237.736000", "180237.738000", "180237.741000", "180237.743000", "180237.746000", "180317.650000", "180317.653000", "180317.655000", "180317.658000", "180317.660000", "180317.663000", "180317.665000", "180317.668000", "180317.670000", "180317.673000", "180317.675000", "180317.678000", "180317.680000", "180317.683000", "180317.685000", "180317.688000", "180317.690000", "180317.693000", "180317.695000", "180317.698000", "180317.700000", "180317.703000", "180317.705000", "180317.708000", "180317.710000", "180317.713000", "180317.715000", "180357.668000", "180357.670000", "180357.673000", "180357.675000", "180357.678000", "180357.680000", "180357.683000", "180357.685000", "180357.688000", "180357.690000", "180357.693000", "180357.695000", "180357.698000", "180357.700000", "180357.703000", "180357.705000", "180357.708000", "180357.710000", "180357.713000", "180357.715000", "180357.718000", "180357.720000", "180357.723000", "180357.726000", "180357.728000", "180357.731000", "180357.733000", "180437.648000", "180437.651000", "180437.653000", "180437.656000", "180437.658000", "180437.661000", "180437.663000", "180437.666000", "180437.668000", "180437.671000", "180437.673000", "180437.676000", "180437.678000", "180437.681000", "180437.683000", "180437.686000", "180437.688000", "180437.691000", "180437.697000", "180437.699000", "180437.702000", "180437.704000", "180437.707000", "180437.709000", "180437.712000", "180437.714000", "180437.717000", "180517.644000", "180517.647000", "180517.658000", "180517.660000", "180517.663000", "180517.665000", "180517.668000", "180517.670000", "180517.673000", "180517.675000", "180517.678000", "180517.681000", "180517.683000", "180517.686000", "180517.688000", "180517.691000", "180517.693000", "180517.696000", "180517.698000", "180517.701000", "180517.703000", "180517.706000", "180517.708000", "180517.711000", "180517.713000", "180517.716000", "180557.663000", "180557.666000", "180557.668000", "180557.671000", "180557.674000", "180557.676000", "180557.679000", "180557.681000", "180557.684000", "180557.686000", "180557.689000", "180557.691000", "180557.694000", "180557.696000", "180557.699000", "180557.701000", "180557.704000", "180557.706000", "180557.709000", "180557.712000", "180557.714000", "180557.717000", "180557.719000", "180557.722000", "180557.724000", "180557.727000", "180557.729000", "180637.660000", "180637.663000", "180637.666000", "180637.668000", "180637.671000", "180637.673000", "180637.676000", "180637.679000", "180637.681000", "180637.684000", "180637.686000", "180637.689000", "180637.691000", "180637.694000", "180637.696000", "180637.699000", "180637.701000", "180637.704000", "180637.706000", "180637.709000", "180637.711000", "180637.714000", "180637.717000", "180637.719000", "180637.722000", "180637.724000", "180637.727000", "180717.663000", "180717.666000", "180717.668000", "180717.671000", "180717.673000", "180717.676000", "180717.678000", "180717.681000", "180717.683000", "180717.686000", "180717.688000", "180717.691000", "180717.693000", "180717.696000", "180717.698000", "180717.701000", "180717.703000", "180717.706000", "180717.708000", "180717.711000", "180717.713000", "180717.716000", "180717.719000", "180717.721000", "180717.724000", "180717.726000", "180717.729000", "180757.648000", "180757.650000", "180757.653000", "180757.663000", "180757.666000", "180757.668000", "180757.671000", "180757.673000", "180757.676000", "180757.678000", "180757.681000", "180757.683000", "180757.686000", "180757.688000", "180757.691000", "180757.694000", "180757.696000", "180757.699000", "180757.701000", "180757.704000", "180757.706000", "180757.709000", "180757.711000", "180757.714000", "180757.716000", "180757.719000", "180757.721000", "180837.656000", "180837.658000", "180837.661000", "180837.663000", "180837.666000", "180837.669000", "180837.671000", "180837.674000", "180837.676000", "180837.679000", "180837.682000", "180837.684000", "180837.686000", "180837.689000", "180837.692000", "180837.694000", "180837.697000", "180837.699000", "180837.702000", "180837.704000", "180837.707000", "180837.716000", "180837.719000", "180837.721000", "180837.724000", "180837.726000", "180837.729000", "180917.654000", "180917.656000", "180917.659000", "180917.662000", "180917.664000", "180917.667000", "180917.669000", "180917.672000", "180917.674000", "180917.677000", "180917.679000", "180917.682000", "180917.684000", "180917.687000", "180917.689000", "180917.692000", "180917.694000", "180917.697000", "180917.699000", "180917.702000", "180917.704000", "180917.707000", "180917.709000", "180917.712000", "180917.714000", "180917.717000", "180917.719000", "180957.650000", "180957.654000", "180957.656000", "180957.659000", "180957.661000", "180957.664000", "180957.667000", "180957.669000", "180957.672000", "180957.674000", "180957.677000", "180957.689000", "180957.692000", "180957.694000", "180957.697000", "180957.699000", "180957.702000", "180957.704000", "180957.707000", "180957.709000", "180957.712000", "180957.714000", "180957.717000", "180957.723000", "180957.726000", "180957.728000", "181017.603000", "181017.605000", "181017.621000", "181017.624000", "181017.627000", "181017.629000", "181017.632000", "181017.634000", "181017.645000", "181017.647000", "181017.650000", "181017.652000", "181017.655000", "181017.657000", "181048.753000", "181048.756000", "181048.759000", "181048.761000", "181048.764000", "181048.766000", "181048.769000", "181048.771000", "181048.774000", "181048.776000", "181048.779000", "181048.781000", "181048.784000", "181048.786000", "181048.789000", "181048.792000", "181048.794000", "181048.797000", "181048.799000", "181048.802000", "181048.804000"],
