{
  "AcquisitionMatrixPE": 104,
  "AcquisitionNumber": 1,
  "AcquisitionTime": "17:59:35.955000",
  "BandwidthPerPixelPhaseEncode": 17.17,
  "BaseResolution": 104,
  "BodyPartExamined": "BRAIN",
  "CoilCombinationMethod": "Sum of Squares",
  "ConsistencyInfo": "N4_VE11C_LATEST_20160120",
  "ConversionSoftware": "dcm2niix",
  "ConversionSoftwareVersion": "v1.0.20211006",
  "DerivedVendorReportedEchoSpacing": 0.000560011,
  "DeviceSerialNumber": "167006",
  "DwellTime": 2.1e-06,
  "EchoTime": 0.037,
  "EchoTrainLength": 104,
  "EffectiveEchoSpacing": 0.000560011,
  "FlipAngle": 52,
  "HeudiconvVersion": "0.11.3.post9+gc939bf8",
  "ImageComments": "Unaliased MB4/PE3/LB",
  "ImageOrientationPatientDICOM": [0.999842, -0.0150375, 0.00944765, 0.0174523, 0.930443, -0.36602],
  "ImageOrientationText": "Tra>Cor(-21.5)>Sag(0.2)",
  "ImageType": [
    "ORIGINAL",
    "PRIMARY",
    "M",
    "MB",
    "ND",
    "MOSAIC"
],
  "ImagingFrequency": 123.259,
  "InPlanePhaseEncodingDirectionDICOM": "COL",
  "InstitutionAddress": "Chemin Queen-Mary 4565,Montreal,District,CA,H3W 1W5",
  "InstitutionName": "IUGM",
  "InstitutionalDepartmentName": "Department",
  "MRAcquisitionType": "2D",
  "MagneticFieldStrength": 3,
  "Manufacturer": "Siemens",
  "ManufacturersModelName": "Prisma_fit",
  "MatrixCoilMode": "SENSE",
  "Modality": "MR",
  "MultibandAccelerationFactor": 4,
  "PartialFourier": 1,
  "PatientPosition": "HFS",
  "PercentPhaseFOV": 100,
  "PercentSampling": 100,
  "PhaseEncodingDirection": "j",
  "PhaseEncodingSteps": 104,
  "PhaseResolution": 1,
  "PixelBandwidth": 2290,
  "ProcedureStepDescription": "games^mario",
  "ProtocolName": "func_task-mario_run-04",
  "PulseSequenceDetails": "%CustomerSeq%\\cmrr_mbep2d_bold",
  "ReceiveCoilActiveElements": "HC1-7;NC1,2",
  "ReceiveCoilName": "HeadNeck_64",
  "ReconMatrixPE": 104,
  "RepetitionTime": 1.49,
  "SAR": 0.0605607,
  "ScanOptions": "FS",
  "ScanningSequence": "EP",
  "SequenceName": "epfid2d1_104",
  "SequenceVariant": "SK\\SS",
  "SeriesDescription": "func_task-mario_run-04",
  "SeriesNumber": 19,
  "ShimSetting": [613, -7256, -8818, 420, 8, -346, 13, 46],
  "SliceThickness": 2,
  "SliceTiming": [0, 0.7825, 0.0975, 0.8825, 0.195, 0.98, 0.2925, 1.0775, 0.3925, 1.175, 0.49, 1.2725, 0.5875, 1.3725, 0.685, 0, 0.7825, 0.0975, 0.8825, 0.195, 0.98, 0.2925, 1.0775, 0.3925, 1.175, 0.49, 1.2725, 0.5875, 1.3725, 0.685, 0, 0.7825, 0.0975, 0.8825, 0.195, 0.98, 0.2925, 1.0775, 0.3925, 1.175, 0.49, 1.2725, 0.5875, 1.3725, 0.685, 0, 0.7825, 0.0975, 0.8825, 0.195, 0.98, 0.2925, 1.0775, 0.3925, 1.175, 0.49, 1.2725, 0.5875, 1.3725, 0.685],
  "SoftwareVersions": "syngo MR E11",
  "SpacingBetweenSlices": 2,
  "StationName": "MRC35049",
  "TaskName": "mario",
  "TotalReadoutTime": 0.0576811,
  "TxRefAmp": 268.624,
  "WipMemBlock": "c3a07974-fd7f-409c-a96d-0db2d1f924ae||Sequence: R017 ve11c/master r/75a17815+; Jun 28 2022 16:32:11 by eja",
  "dcmmeta_affine": [
    [-1.9996845722198486, 0.0349045991897583, 0.006572968792170286, 101.75364685058594],
    [0.03007495030760765, 1.860886573791504, -0.7322544455528259, -69.86760711669922],
    [0.01889529824256897, 0.7320401072502136, 1.8611180782318115, -61.219581604003906],
    [0.0, 0.0, 0.0, 1.0]
],
  "dcmmeta_reorient_transform": [
    [0.0, -1.0, 0.0, 103.0],
    [1.0, 0.0, 0.0, 0.0],
    [0.0, 0.0, 1.0, 0.0],
    [0.0, 0.0, 0.0, 1.0]
],
  "dcmmeta_shape": [104, 104, 60, 451],
  "dcmmeta_slice_dim": 2,
  "dcmmeta_version": 0.6,
  "global": {
    "const": {
      "AcquisitionMatrix": [104, 0, 0, 104],
      "AngioFlag": "N",
      "BitsAllocated": 16,
      "BitsStored": 16,
      "BodyPartExamined": "BRAIN",
      "Columns": 832,
      "EchoNumbers": 1,
      "EchoTime": 37.0,
      "EchoTrainLength": 104,
      "FlipAngle": 52.0,
      "HighBit": 15,
      "ImageOrientationPatient": [0.99984229569714, -0.0150374752247, 0.00944764912259, 0.0174522994669, 0.93044329840757, -0.3660200618706],
      "ImagePositionPatient": [-845.9392893039, -788.21915207504, 273.7652666019],
      "ImageType": [
        "ORIGINAL",
        "PRIMARY",
        "M",
        "MB",
        "ND",
        "MOSAIC"
],
      "ImagedNucleus": "1H",
      "ImagingFrequency": 123.258763,
      "InPlanePhaseEncodingDirection": "COL",
      "MRAcquisitionType": "2D",
      "MagneticFieldStrength": 3.0,
      "Manufacturer": "SIEMENS",
      "ManufacturerModelName": "Prisma_fit",
      "Modality": "MR",
      "NumberOfAverages": 1.0,
      "NumberOfPhaseEncodingSteps": 104,
      "PercentPhaseFieldOfView": 100.0,
      "PercentSampling": 100.0,
      "PerformedProcedureStepStartTime": "171751.667000",
      "PhotometricInterpretation": "MONOCHROME2",
      "PixelBandwidth": 2290.0,
      "PixelRepresentation": 0,
      "PixelSpacing": [2.0, 2.0],
      "ProtocolName": "func_task-mario_run-04",
      "RepetitionTime": 1490.0,
      "Rows": 832,
      "SAR": 0.06056072563423,
      "SamplesPerPixel": 1,
      "ScanOptions": "FS",
      "ScanningSequence": "EP",
      "SequenceName": "epfid2d1_104",
      "SequenceVariant": [
        "SK",
        "SS"
],
      "SeriesDescription": "func_task-mario_run-04",
      "SeriesNumber": 19,
      "SeriesTime": "180037.551000",
      "SliceLocation": -31.05358919768,
      "SliceThickness": 2.0,
      "SmallestImagePixelValue": 0,
      "SoftwareVersions": "syngo MR E11",
      "SpacingBetweenSlices": 2.0000000637362,
      "SpecificCharacterSet": "ISO_IR 100",
      "StudyID": "1",
      "StudyTime": "171751.599000",
      "TransmitCoilName": "Body",
      "VariableFlipAngleFlag": "N",
      "WindowCenterWidthExplanation": "Algo1",
      "dBdt": 0.0},
    "slices": {}
  },
  "time": {
    "samples": {
      "AcquisitionNumber": [1, 2, 3, 4, 5, 6, 7, 8, 9, 10, 11, 12, 13, 14, 15, 16, 17, 18, 19, 20, 21, 22, 23, 24, 25, 26, 27, 28, 29, 30, 31, 32, 33, 34, 35, 36, 37, 38, 39, 40, 41, 42, 43, 44, 45, 46, 47, 48, 49, 50, 51, 52, 53, 54, 55, 56, 57, 58, 59, 60, 61, 62, 63, 64, 65, 66, 67, 68, 69, 70, 71, 72, 73, 74, 75, 76, 77, 78, 79, 80, 81, 82, 83, 84, 85, 86, 87, 88, 89, 90, 91, 92, 93, 94, 95, 96, 97, 98, 99, 100, 101, 102, 103, 104, 105, 106, 107, 108, 109, 110, 111, 112, 113, 114, 115, 116, 117, 118, 119, 120, 121, 122, 123, 124, 125, 126, 127, 128, 129, 130, 131, 132, 133, 134, 135, 136, 137, 138, 139, 140, 141, 142, 143, 144, 145, 146, 147, 148, 149, 150, 151, 152, 153, 154, 155, 156, 157, 158, 159, 160, 161, 162, 163, 164, 165, 166, 167, 168, 169, 170, 171, 172, 173, 174, 175, 176, 177, 178, 179, 180, 181, 182, 183, 184, 185, 186, 187, 188, 189, 190, 191, 192, 193, 194, 195, 196, 197, 198, 199, 200, 201, 202, 203, 204, 205, 206, 207, 208, 209, 210, 211, 212, 213, 214, 215, 216, 217, 218, 219, 220, 221, 222, 223, 224, 225, 226, 227, 228, 229, 230, 231, 232, 233, 234, 235, 236, 237, 238, 239, 240, 241, 242, 243, 244, 245, 246, 247, 248, 249, 250, 251, 252, 253, 254, 255, 256, 257, 258, 259, 260, 261, 262, 263, 264, 265, 266, 267, 268, 269, 270, 271, 272, 273, 274, 275, 276, 277, 278, 279, 280, 281, 282, 283, 284, 285, 286, 287, 288, 289, 290, 291, 292, 293, 294, 295, 296, 297, 298, 299, 300, 301, 302, 303, 304, 305, 306, 307, 308, 309, 310, 311, 312, 313, 314, 315, 316, 317, 318, 319, 320, 321, 322, 323, 324, 325, 326, 327, 328, 329, 330, 331, 332, 333, 334, 335, 336, 337, 338, 339, 340, 341, 342, 343, 344, 345, 346, 347, 348, 349, 350, 351, 352, 353, 354, 355, 356, 357, 358, 359, 360, 361, 362, 363, 364, 365, 366, 367, 368, 369, 370, 371, 372, 373, 374, 375, 376, 377, 378, 379, 380, 381, 382, 383, 384, 385, 386, 387, 388, 389, 390, 391, 392, 393, 394, 395, 396, 397, 398, 399, 400, 401, 402, 403, 404, 405, 406, 407, 408, 409, 410, 411, 412, 413, 414, 415, 416, 417, 418, 419, 420, 421, 422, 423, 424, 425, 426, 427, 428, 429, 430, 431, 432, 433, 434, 435, 436, 437, 438, 439, 440, 441, 442, 443, 444, 445, 446, 447, 448, 449, 450, 451],
      "AcquisitionTime": ["175935.955000", "175937.445000", "175938.935000", "175940.425000", "175941.915000", "175943.405000", "175944.895000", "175946.385000", "175947.875000", "175949.365000", "175950.855000", "175952.345000", "175953.835000", "175955.325000", "175956.815000", "175958.305000", "175959.795000", "180001.285000", "180002.775000", "180004.265000", "180005.755000", "180007.245000", "180008.735000", "180010.225000", "180011.715000", "180013.205000", "180014.695000", "180016.185000", "180017.675000", "180019.165000", "180020.655000", "180022.145000", "180023.635000", "180025.125000", "180026.615000", "180028.105000", "180029.595000", "180031.085000", "180032.575000", "180034.065000", "180035.555000", "180037.045000", "180038.535000", "180040.025000", "180041.515000", "180043.005000", "180044.495000", "180045.985000", "180047.475000", "180048.965000", "180050.455000", "180051.945000", "180053.435000", "180054.925000", "180056.415000", "180057.905000", "180059.395000", "180100.885000", "180102.375000", "180103.865000", "180105.355000", "180106.845000", "180108.335000", "180109.825000", "180111.315000", "180112.805000", "180114.295000", "180115.785000", "180117.275000", "180118.765000", "180120.255000", "180121.745000", "180123.235000", "180124.725000", "180126.215000", "180127.705000", "180129.195000", "180130.685000", "180132.175000", "180133.665000", "180135.155000", "180136.645000", "180138.135000", "180139.625000", "180141.115000", "180142.605000", "180144.095000", "180145.585000", "180147.075000", "180148.565000", "180150.055000", "180151.545000", "180153.035000", "180154.525000", "180156.015000", "180157.505000", "180158.995000", "180200.485000", "180201.975000", "180203.465000", "180204.955000", "180206.445000", "180207.935000", "180209.425000", "180210.915000", "180212.405000", "180213.895000", "180215.385000", "180216.875000", "180218.365000", "180219.855000", "180221.345000", "180222.835000", "180224.325000", "180225.815000", "180227.305000", "180228.795000", "180230.285000", "180231.775000", "180233.265000", "180234.755000", "180236.245000", "180237.735000", "180239.225000", "180240.715000", "180242.205000", "180243.695000", "180245.185000", "180246.675000", "180248.165000", "180249.655000", "180251.145000", "180252.635000", "180254.125000", "180255.615000", "180257.105000", "180258.595000", "180300.085000", "180301.575000", "180303.065000", "180304.555000", "180306.045000", "180307.535000", "180309.025000", "180310.515000", "180312.005000", "180313.495000", "180314.985000", "180316.475000", "180317.965000", "180319.455000", "180320.945000", "180322.435000", "180323.925000", "180325.415000", "180326.905000", "180328.395000", "180329.885000", "180331.375000", "180332.865000", "180334.355000", "180335.845000", "180337.335000", "180338.825000", "180340.315000", "180341.805000", "180343.295000", "180344.785000", "180346.275000", "180347.765000", "180349.255000", "180350.745000", "180352.235000", "180353.725000", "180355.215000", "180356.705000", "180358.195000", "180359.685000", "180401.175000", "180402.665000", "180404.155000", "180405.645000", "180407.135000", "180408.625000", "180410.115000", "180411.605000", "180413.095000", "180414.585000", "180416.075000", "180417.565000", "180419.055000", "180420.545000", "180422.035000", "180423.525000", "180425.015000", "180426.505000", "180427.995000", "180429.485000", "180430.975000", "180432.465000", "180433.955000", "180435.445000", "180436.935000", "180438.425000", "180439.915000", "180441.405000", "180442.895000", "180444.385000", "180445.875000", "180447.365000", "180448.855000", "180450.345000", "180451.835000", "180453.325000", "180454.815000", "180456.305000", "180457.795000", "180459.285000", "180500.775000", "180502.265000", "180503.755000", "180505.245000", "180506.735000", "180508.225000", "180509.715000", "180511.205000", "180512.695000", "180514.185000", "180515.675000", "180517.165000", "180518.655000", "180520.145000", "180521.635000", "180523.125000", "180524.615000", "180526.105000", "180527.595000", "180529.085000", "180530.575000", "180532.065000", "180533.555000", "180535.045000", "180536.535000", "180538.025000", "180539.515000", "180541.005000", "180542.495000", "180543.985000", "180545.475000", "180546.965000", "180548.455000", "180549.945000", "180551.435000", "180552.925000", "180554.415000", "180555.905000", "180557.395000", "180558.885000", "180600.375000", "180601.865000", "180603.355000", "180604.845000", "180606.335000", "180607.825000", "180609.315000", "180610.805000", "180612.295000", "180613.785000", "180615.275000", "180616.765000", "180618.255000", "180619.745000", "180621.235000", "180622.725000", "180624.215000", "180625.705000", "180627.195000", "180628.685000", "180630.175000", "180631.665000", "180633.155000", "180634.645000", "180636.135000", "180637.625000", "180639.115000", "180640.605000", "180642.095000", "180643.585000", "180645.075000", "180646.565000", "180648.055000", "180649.545000", "180651.035000", "180652.525000", "180654.015000", "180655.505000", "180656.995000", "180658.485000", "180659.975000", "180701.465000", "180702.955000", "180704.445000", "180705.935000", "180707.425000", "180708.915000", "180710.405000", "180711.895000", "180713.385000", "180714.875000", "180716.365000", "180717.855000", "180719.345000", "180720.835000", "180722.325000", "180723.815000", "180725.305000", "180726.795000", "180728.285000", "180729.775000", "180731.265000", "180732.755000", "180734.245000", "180735.735000", "180737.225000", "180738.715000", "180740.205000", "180741.695000", "180743.185000", "180744.675000", "180746.165000", "180747.655000", "180749.145000", "180750.635000", "180752.125000", "180753.615000", "180755.105000", "180756.595000", "180758.085000", "180759.575000", "180801.065000", "180802.555000", "180804.045000", "180805.535000", "180807.025000", "180808.515000", "180810.005000", "180811.495000", "180812.985000", "180814.475000", "180815.965000", "180817.455000", "180818.945000", "180820.435000", "180821.925000", "180823.415000", "180824.905000", "180826.395000", "180827.885000", "180829.375000", "180830.865000", "180832.355000", "180833.845000", "180835.335000", "180836.825000", "180838.315000", "180839.805000", "180841.295000", "180842.785000", "180844.275000", "180845.765000", "180847.255000", "180848.745000", "180850.235000", "180851.725000", "180853.215000", "180854.705000", "180856.195000", "180857.685000", "180859.175000", "180900.665000", "180902.155000", "180903.645000", "180905.135000", "180906.625000", "180908.115000", "180909.605000", "180911.095000", "180912.585000", "180914.075000", "180915.565000", "180917.055000", "180918.545000", "180920.035000", "180921.525000", "180923.015000", "180924.505000", "180925.995000", "180927.485000", "180928.975000", "180930.465000", "180931.955000", "180933.445000", "180934.935000", "180936.425000", "180937.915000", "180939.405000", "180940.895000", "180942.385000", "180943.875000", "180945.365000", "180946.855000", "180948.345000", "180949.835000", "180951.325000", "180952.815000", "180954.305000", "180955.795000", "180957.285000", "180958.775000", "181000.265000", "181001.755000", "181003.245000", "181004.735000", "181006.225000", "181007.715000", "181009.205000", "181010.695000", "181012.185000", "181013.675000", "181015.165000", "181016.655000", "181018.145000", "181019.635000", "181021.125000", "181022.615000", "181024.105000", "181025.595000", "181027.085000", "181028.575000", "181030.065000", "181031.555000", "181033.045000", "181034.535000", "181036.025000", "181037.515000", "181039.005000", "181040.495000", "181041.985000", "181043.475000", "181044.965000", "181046.455000"],
      "ContentTime": ["180037.554000", "180037.557000", "180037.561000", "180037.564000", "180037.567000", "180037.571000", "180037.574000", "180037.583000", "180037.587000", "180037.590000", "180037.593000", "180037.596000", "180057.513000", "180057.517000", "180057.520000", "180057.523000", "180057.526000", "180057.535000", "180057.538000", "180057.542000", "180057.545000", "180057.548000", "180057.552000", "180057.555000", "180057.558000", "180057.561000", "180057.565000", "180057.568000", "180057.572000", "180057.575000", "180057.578000", "180057.582000", "180117.513000", "180117.517000", "180117.520000", "180117.523000", "180117.527000", "180117.530000", "180117.533000", "180117.537000", "180117.540000", "180117.543000", "180117.546000", "180117.550000", "180117.553000", "180117.556000", "180117.560000", "180117.563000", "180117.567000", "180117.570000", "180117.574000", "180117.577000", "180137.513000", "180137.517000", "180137.520000", "180137.523000", "180137.527000", "180137.530000", "180137.549000", "180137.552000", "180137.556000", "180137.559000", "180137.562000", "180137.565000", "180137.569000", "180137.572000", "180137.575000", "180137.579000", "180137.582000", "180137.585000", "180137.589000", "180137.592000", "180157.513000", "180157.517000", "180157.520000", "180157.523000", "180157.527000", "180157.530000", "180157.533000", "180157.537000", "180157.540000", "180157.543000", "180157.547000", "180157.550000", "180157.553000", "180157.556000", "180157.560000", "180157.563000", "180157.566000", "180157.570000", "180157.573000", "180157.576000", "180157.580000", "180237.514000", "180237.518000", "180237.521000", "180237.525000", "180237.528000", "180237.531000", "180237.535000", "180237.539000", "180237.542000", "180237.545000", "180237.549000", "180237.552000", "180237.555000", "180237.559000", "180237.562000", "180237.566000", "180237.569000", "180237.572000", "180237.576000", "180237.579000", "180237.582000", "180237.586000", "180237.589000", "180237.592000", "180237.596000", "180237.599000", "180237.603000", "180237.606000", "180317.513000", "180317.517000", "180317.520000", "180317.524000", "180317.527000", "180317.531000", "180317.534000", "180317.537000", "180317.541000", "180317.544000", "180317.547000", "180317.550000", "180317.554000", "180317.557000", "180317.560000", "180317.564000", "180317.567000", "180317.571000", "180317.574000", "180317.577000", "180317.581000", "180317.584000", "180317.587000", "180317.590000", "180317.594000", "180317.597000", "180317.600000", "180357.513000", "180357.517000", "180357.520000", "180357.524000", "180357.527000", "180357.530000", "180357.534000", "180357.537000", "180357.554000", "180357.565000", "180357.568000", "180357.572000", "180357.575000", "180357.578000", "180357.582000", "180357.585000", "180357.588000", "180357.592000", "180357.595000", "180357.598000", "180357.602000", "180357.605000", "180357.608000", "180357.612000", "180357.615000", "180357.619000", "180357.622000", "180437.514000", "180437.518000", "180437.521000", "180437.525000", "180437.528000", "180437.531000", "180437.535000", "180437.538000", "180437.541000", "180437.545000", "180437.548000", "180437.551000", "180437.554000", "180437.558000", "180437.561000", "180437.564000", "180437.568000", "180437.571000", "180437.575000", "180437.578000", "180437.581000", "180437.585000", "180437.588000", "180437.591000", "180437.595000", "180437.598000", "180437.601000", "180517.513000", "180517.517000", "180517.520000", "180517.524000", "180517.527000", "180517.531000", "180517.534000", "180517.537000", "180517.541000", "180517.545000", "180517.549000", "180517.552000", "180517.555000", "180517.559000", "180517.562000", "180517.565000", "180517.569000", "180517.572000", "180517.575000", "180517.578000", "180517.582000", "180517.585000", "180517.589000", "180517.592000", "180517.599000", "180517.602000", "180557.513000", "180557.517000", "180557.520000", "180557.523000", "180557.527000", "180557.530000", "180557.534000", "180557.537000", "180557.540000", "180557.543000", "180557.547000", "180557.550000", "180557.553000", "180557.557000", "180557.560000", "180557.564000", "180557.567000", "180557.570000", "180557.574000", "180557.577000", "180557.592000", "180557.596000", "180557.599000", "180557.602000", "180557.606000", "180557.609000", "180557.612000", "180637.513000", "180637.517000", "180637.520000", "180637.524000", "180637.527000", "180637.530000", "180637.534000", "180637.537000", "180637.540000", "180637.544000", "180637.547000", "180637.550000", "180637.554000", "180637.557000", "180637.560000", "180637.564000", "180637.567000", "180637.570000", "180637.574000", "180637.577000", "180637.580000", "180637.584000", "180637.588000", "180637.591000", "180637.595000", "180637.598000", "180637.610000", "180717.514000", "180717.518000", "180717.521000", "180717.525000", "180717.528000", "180717.531000", "180717.535000", "180717.538000", "180717.541000", "180717.545000", "180717.548000", "180717.552000", "180717.555000", "180717.558000", "180717.561000", "180717.565000", "180717.568000", "180717.572000", "180717.575000", "180717.578000", "180717.582000", "180717.585000", "180717.588000", "180717.592000", "180717.603000", "180717.606000", "180717.609000", "180757.513000", "180757.517000", "180757.520000", "180757.525000", "180757.528000", "180757.531000", "180757.535000", "180757.538000", "180757.541000", "180757.545000", "180757.548000", "180757.552000", "180757.555000", "180757.558000", "180757.562000", "180757.565000", "180757.568000", "180757.572000", "180757.575000", "180757.578000", "180757.582000", "180757.585000", "180757.588000", "180757.592000", "180757.595000", "180757.598000", "180757.602000", "180837.513000", "180837.517000", "180837.520000", "180837.524000", "180837.527000", "180837.530000", "180837.534000", "180837.537000", "180837.540000", "180837.544000", "180837.547000", "180837.551000", "180837.554000", "180837.557000", "180837.561000", "180837.564000", "180837.568000", "180837.571000", "180837.574000", "180837.578000", "180837.581000", "180837.584000", "180837.588000", "180837.591000", "180837.595000", "180837.598000", "180837.601000", "180917.514000", "180917.518000", "180917.521000", "180917.525000", "180917.528000", "180917.531000", "180917.534000", "180917.538000", "180917.541000", "180917.544000", "180917.548000", "180917.551000", "180917.554000", "180917.558000", "180917.561000", "180917.564000", "180917.568000", "180917.574000", "180917.578000", "180917.581000", "180917.584000", "180917.588000", "180917.591000", "180917.595000", "180917.598000", "180917.601000", "180917.605000", "180957.513000", "180957.517000", "180957.520000", "180957.524000", "180957.527000", "180957.530000", "180957.534000", "180957.537000", "180957.540000", "180957.544000", "180957.547000", "180957.550000", "180957.553000", "180957.557000", "180957.560000", "180957.564000", "180957.567000", "180957.571000", "180957.574000", "180957.577000", "180957.581000", "180957.584000", "180957.588000", "180957.591000", "180957.594000", "180957.597000", "181017.513000", "181017.517000", "181017.520000", "181017.523000", "181017.527000", "181017.530000", "181017.533000", "181017.537000", "181017.540000", "181017.543000", "181017.547000", "181017.550000", "181017.553000", "181017.557000", "181048.623000", "181048.627000", "181048.631000", "181048.637000", "181048.641000", "181048.644000", "181048.647000", "181048.651000", "181048.654000", "181048.657000", "181048.673000", "181048.677000", "181048.680000", "181048.683000", "181048.687000", "181048.690000", "181048.693000", "181048.697000", "181048.700000", "181048.703000", "181048.707000"],
