{
  "AcquisitionMatrixPE": 104,
  "AcquisitionNumber": 1,
  "AcquisitionTime": "17:47:43.280000",
  "BandwidthPerPixelPhaseEncode": 17.17,
  "BaseResolution": 104,
  "BodyPartExamined": "BRAIN",
  "CoilCombinationMethod": "Sum of Squares",
  "ConsistencyInfo": "N4_VE11C_LATEST_20160120",
  "ConversionSoftware": "dcm2niix",
  "ConversionSoftwareVersion": "v1.0.20211006",
  "DerivedVendorReportedEchoSpacing": 0.000560011,
  "DeviceSerialNumber": "167006",
  "DwellTime": 2.1e-06,
  "EchoTime": 0.037,
  "EchoTrainLength": 104,
  "EffectiveEchoSpacing": 0.000560011,
  "FlipAngle": 52,
  "HeudiconvVersion": "0.11.3.post9+gc939bf8",
  "ImageComments": "Unaliased MB4/PE3/LB",
  "ImageOrientationPatientDICOM": [0.999842, -0.0150375, 0.00944765, 0.0174523, 0.930443, -0.36602],
  "ImageOrientationText": "Tra>Cor(-21.5)>Sag(0.2)",
  "ImageType": [
    "ORIGINAL",
    "PRIMARY",
    "M",
    "MB",
    "ND",
    "MOSAIC"
],
  "ImagingFrequency": 123.259,
  "InPlanePhaseEncodingDirectionDICOM": "COL",
  "InstitutionAddress": "Chemin Queen-Mary 4565,Montreal,District,CA,H3W 1W5",
  "InstitutionName": "IUGM",
  "InstitutionalDepartmentName": "Department",
  "MRAcquisitionType": "2D",
  "MagneticFieldStrength": 3,
  "Manufacturer": "Siemens",
  "ManufacturersModelName": "Prisma_fit",
  "MatrixCoilMode": "SENSE",
  "Modality": "MR",
  "MultibandAccelerationFactor": 4,
  "PartialFourier": 1,
  "PatientPosition": "HFS",
  "PercentPhaseFOV": 100,
  "PercentSampling": 100,
  "PhaseEncodingDirection": "j",
  "PhaseEncodingSteps": 104,
  "PhaseResolution": 1,
  "PixelBandwidth": 2290,
  "ProcedureStepDescription": "games^mario",
  "ProtocolName": "func_task-mario_run-03",
  "PulseSequenceDetails": "%CustomerSeq%\\cmrr_mbep2d_bold",
  "ReceiveCoilActiveElements": "HC1-7;NC1,2",
  "ReceiveCoilName": "HeadNeck_64",
  "ReconMatrixPE": 104,
  "RepetitionTime": 1.49,
  "SAR": 0.0605607,
  "ScanOptions": "FS",
  "ScanningSequence": "EP",
  "SequenceName": "epfid2d1_104",
  "SequenceVariant": "SK\\SS",
  "SeriesDescription": "func_task-mario_run-03",
  "SeriesNumber": 16,
  "ShimSetting": [613, -7256, -8818, 420, 8, -346, 13, 46],
  "SliceThickness": 2,
  "SliceTiming": [0, 0.785, 0.0975, 0.8825, 0.1975, 0.98, 0.295, 1.0775, 0.3925, 1.1775, 0.49, 1.275, 0.5875, 1.3725, 0.6875, 0, 0.785, 0.0975, 0.8825, 0.1975, 0.98, 0.295, 1.0775, 0.3925, 1.1775, 0.49, 1.275, 0.5875, 1.3725, 0.6875, 0, 0.785, 0.0975, 0.8825, 0.1975, 0.98, 0.295, 1.0775, 0.3925, 1.1775, 0.49, 1.275, 0.5875, 1.3725, 0.6875, 0, 0.785, 0.0975, 0.8825, 0.1975, 0.98, 0.295, 1.0775, 0.3925, 1.1775, 0.49, 1.275, 0.5875, 1.3725, 0.6875],
  "SoftwareVersions": "syngo MR E11",
  "SpacingBetweenSlices": 2,
  "StationName": "MRC35049",
  "TaskName": "mario",
  "TotalReadoutTime": 0.0576811,
  "TxRefAmp": 268.624,
  "WipMemBlock": "6179a1e8-630b-497c-be4f-054e16c97138||Sequence: R017 ve11c/master r/75a17815+; Jun 28 2022 16:32:11 by eja",
  "dcmmeta_affine": [
    [-1.9996845722198486, 0.0349045991897583, 0.006572968792170286, 101.75364685058594],
    [0.03007495030760765, 1.860886573791504, -0.7322544455528259, -69.86760711669922],
    [0.01889529824256897, 0.7320401072502136, 1.8611180782318115, -61.219581604003906],
    [0.0, 0.0, 0.0, 1.0]
],
  "dcmmeta_reorient_transform": [
    [0.0, -1.0, 0.0, 103.0],
    [1.0, 0.0, 0.0, 0.0],
    [0.0, 0.0, 1.0, 0.0],
    [0.0, 0.0, 0.0, 1.0]
],
  "dcmmeta_shape": [104, 104, 60, 428],
  "dcmmeta_slice_dim": 2,
  "dcmmeta_version": 0.6,
  "global": {
    "const": {
      "AcquisitionMatrix": [104, 0, 0, 104],
      "AngioFlag": "N",
      "BitsAllocated": 16,
      "BitsStored": 16,
      "BodyPartExamined": "BRAIN",
      "Columns": 832,
      "EchoNumbers": 1,
      "EchoTime": 37.0,
      "EchoTrainLength": 104,
      "FlipAngle": 52.0,
      "HighBit": 15,
      "ImageOrientationPatient": [0.99984229569714, -0.0150374752247, 0.00944764912259, 0.0174522994669, 0.93044329840757, -0.3660200618706],
      "ImagePositionPatient": [-845.9392893039, -788.21915207504, 273.7652666019],
      "ImageType": [
        "ORIGINAL",
        "PRIMARY",
        "M",
        "MB",
        "ND",
        "MOSAIC"
],
      "ImagedNucleus": "1H",
      "ImagingFrequency": 123.258757,
      "InPlanePhaseEncodingDirection": "COL",
      "MRAcquisitionType": "2D",
      "MagneticFieldStrength": 3.0,
      "Manufacturer": "SIEMENS",
      "ManufacturerModelName": "Prisma_fit",
      "Modality": "MR",
      "NumberOfAverages": 1.0,
      "NumberOfPhaseEncodingSteps": 104,
      "PercentPhaseFieldOfView": 100.0,
      "PercentSampling": 100.0,
      "PerformedProcedureStepStartTime": "171751.667000",
      "PhotometricInterpretation": "MONOCHROME2",
      "PixelBandwidth": 2290.0,
      "PixelRepresentation": 0,
      "PixelSpacing": [2.0, 2.0],
      "ProtocolName": "func_task-mario_run-03",
      "RepetitionTime": 1490.0,
      "Rows": 832,
      "SAR": 0.06056072563423,
      "SamplesPerPixel": 1,
      "ScanOptions": "FS",
      "ScanningSequence": "EP",
      "SequenceName": "epfid2d1_104",
      "SequenceVariant": [
        "SK",
        "SS"
],
      "SeriesDescription": "func_task-mario_run-03",
      "SeriesNumber": 16,
      "SeriesTime": "174904.398000",
      "SliceLocation": -31.05358919768,
      "SliceThickness": 2.0,
      "SmallestImagePixelValue": 0,
      "SoftwareVersions": "syngo MR E11",
      "SpacingBetweenSlices": 2.0000000637362,
      "SpecificCharacterSet": "ISO_IR 100",
      "StudyID": "1",
      "StudyTime": "171751.599000",
      "TransmitCoilName": "Body",
      "VariableFlipAngleFlag": "N",
      "WindowCenterWidthExplanation": "Algo1",
      "dBdt": 0.0},
    "slices": {}
  },
  "time": {
    "samples": {
      "AcquisitionNumber": [1, 2, 3, 4, 5, 6, 7, 8, 9, 10, 11, 12, 13, 14, 15, 16, 17, 18, 19, 20, 21, 22, 23, 24, 25, 26, 27, 28, 29, 30, 31, 32, 33, 34, 35, 36, 37, 38, 39, 40, 41, 42, 43, 44, 45, 46, 47, 48, 49, 50, 51, 52, 53, 54, 55, 56, 57, 58, 59, 60, 61, 62, 63, 64, 65, 66, 67, 68, 69, 70, 71, 72, 73, 74, 75, 76, 77, 78, 79, 80, 81, 82, 83, 84, 85, 86, 87, 88, 89, 90, 91, 92, 93, 94, 95, 96, 97, 98, 99, 100, 101, 102, 103, 104, 105, 106, 107, 108, 109, 110, 111, 112, 113, 114, 115, 116, 117, 118, 119, 120, 121, 122, 123, 124, 125, 126, 127, 128, 129, 130, 131, 132, 133, 134, 135, 136, 137, 138, 139, 140, 141, 142, 143, 144, 145, 146, 147, 148, 149, 150, 151, 152, 153, 154, 155, 156, 157, 158, 159, 160, 161, 162, 163, 164, 165, 166, 167, 168, 169, 170, 171, 172, 173, 174, 175, 176, 177, 178, 179, 180, 181, 182, 183, 184, 185, 186, 187, 188, 189, 190, 191, 192, 193, 194, 195, 196, 197, 198, 199, 200, 201, 202, 203, 204, 205, 206, 207, 208, 209, 210, 211, 212, 213, 214, 215, 216, 217, 218, 219, 220, 221, 222, 223, 224, 225, 226, 227, 228, 229, 230, 231, 232, 233, 234, 235, 236, 237, 238, 239, 240, 241, 242, 243, 244, 245, 246, 247, 248, 249, 250, 251, 252, 253, 254, 255, 256, 257, 258, 259, 260, 261, 262, 263, 264, 265, 266, 267, 268, 269, 270, 271, 272, 273, 274, 275, 276, 277, 278, 279, 280, 281, 282, 283, 284, 285, 286, 287, 288, 289, 290, 291, 292, 293, 294, 295, 296, 297, 298, 299, 300, 301, 302, 303, 304, 305, 306, 307, 308, 309, 310, 311, 312, 313, 314, 315, 316, 317, 318, 319, 320, 321, 322, 323, 324, 325, 326, 327, 328, 329, 330, 331, 332, 333, 334, 335, 336, 337, 338, 339, 340, 341, 342, 343, 344, 345, 346, 347, 348, 349, 350, 351, 352, 353, 354, 355, 356, 357, 358, 359, 360, 361, 362, 363, 364, 365, 366, 367, 368, 369, 370, 371, 372, 373, 374, 375, 376, 377, 378, 379, 380, 381, 382, 383, 384, 385, 386, 387, 388, 389, 390, 391, 392, 393, 394, 395, 396, 397, 398, 399, 400, 401, 402, 403, 404, 405, 406, 407, 408, 409, 410, 411, 412, 413, 414, 415, 416, 417, 418, 419, 420, 421, 422, 423, 424, 425, 426, 427, 428],
      "AcquisitionTime": ["174743.280000", "174744.770000", "174746.260000", "174747.750000", "174749.240000", "174750.730000", "174752.220000", "174753.710000", "174755.200000", "174756.690000", "174758.180000", "174759.670000", "174801.160000", "174802.650000", "174804.140000", "174805.630000", "174807.120000", "174808.610000", "174810.100000", "174811.590000", "174813.080000", "174814.570000", "174816.060000", "174817.550000", "174819.040000", "174820.530000", "174822.020000", "174823.510000", "174825.000000", "174826.490000", "174827.980000", "174829.470000", "174830.960000", "174832.450000", "174833.940000", "174835.430000", "174836.920000", "174838.410000", "174839.900000", "174841.390000", "174842.880000", "174844.370000", "174845.860000", "174847.350000", "174848.840000", "174850.330000", "174851.820000", "174853.310000", "174854.800000", "174856.290000", "174857.780000", "174859.270000", "174900.760000", "174902.250000", "174903.740000", "174905.230000", "174906.720000", "174908.210000", "174909.700000", "174911.190000", "174912.680000", "174914.170000", "174915.660000", "174917.150000", "174918.640000", "174920.130000", "174921.620000", "174923.110000", "174924.600000", "174926.090000", "174927.580000", "174929.070000", "174930.560000", "174932.050000", "174933.540000", "174935.030000", "174936.520000", "174938.010000", "174939.500000", "174940.990000", "174942.480000", "174943.970000", "174945.460000", "174946.950000", "174948.440000", "174949.930000", "174951.420000", "174952.910000", "174954.400000", "174955.890000", "174957.380000", "174958.870000", "175000.360000", "175001.850000", "175003.340000", "175004.830000", "175006.320000", "175007.810000", "175009.300000", "175010.790000", "175012.280000", "175013.770000", "175015.260000", "175016.750000", "175018.240000", "175019.730000", "175021.220000", "175022.710000", "175024.200000", "175025.690000", "175027.180000", "175028.670000", "175030.160000", "175031.650000", "175033.140000", "175034.630000", "175036.120000", "175037.610000", "175039.100000", "175040.590000", "175042.080000", "175043.570000", "175045.060000", "175046.550000", "175048.040000", "175049.530000", "175051.020000", "175052.510000", "175054.000000", "175055.490000", "175056.980000", "175058.470000", "175059.960000", "175101.450000", "175102.940000", "175104.430000", "175105.920000", "175107.410000", "175108.900000", "175110.390000", "175111.880000", "175113.370000", "175114.860000", "175116.350000", "175117.840000", "175119.330000", "175120.820000", "175122.310000", "175123.800000", "175125.290000", "175126.780000", "175128.270000", "175129.760000", "175131.250000", "175132.740000", "175134.230000", "175135.720000", "175137.210000", "175138.700000", "175140.190000", "175141.680000", "175143.170000", "175144.660000", "175146.150000", "175147.640000", "175149.130000", "175150.620000", "175152.110000", "175153.600000", "175155.090000", "175156.580000", "175158.070000", "175159.560000", "175201.050000", "175202.540000", "175204.030000", "175205.520000", "175207.010000", "175208.500000", "175209.990000", "175211.480000", "175212.970000", "175214.460000", "175215.950000", "175217.440000", "175218.930000", "175220.420000", "175221.910000", "175223.400000", "175224.890000", "175226.380000", "175227.870000", "175229.360000", "175230.850000", "175232.340000", "175233.830000", "175235.320000", "175236.810000", "175238.300000", "175239.790000", "175241.280000", "175242.770000", "175244.260000", "175245.750000", "175247.240000", "175248.730000", "175250.220000", "175251.710000", "175253.200000", "175254.690000", "175256.180000", "175257.670000", "175259.160000", "175300.650000", "175302.140000", "175303.630000", "175305.120000", "175306.610000", "175308.100000", "175309.590000", "175311.080000", "175312.570000", "175314.060000", "175315.550000", "175317.040000", "175318.530000", "175320.020000", "175321.510000", "175323.000000", "175324.490000", "175325.980000", "175327.470000", "175328.960000", "175330.450000", "175331.940000", "175333.430000", "175334.920000", "175336.410000", "175337.900000", "175339.390000", "175340.880000", "175342.370000", "175343.860000", "175345.350000", "175346.840000", "175348.330000", "175349.820000", "175351.310000", "175352.800000", "175354.290000", "175355.780000", "175357.270000", "175358.760000", "175400.250000", "175401.740000", "175403.230000", "175404.720000", "175406.210000", "175407.700000", "175409.190000", "175410.680000", "175412.170000", "175413.660000", "175415.150000", "175416.640000", "175418.130000", "175419.620000", "175421.110000", "175422.600000", "175424.090000", "175425.580000", "175427.070000", "175428.560000", "175430.050000", "175431.540000", "175433.030000", "175434.520000", "175436.010000", "175437.500000", "175438.990000", "175440.480000", "175441.970000", "175443.460000", "175444.950000", "175446.440000", "175447.930000", "175449.420000", "175450.910000", "175452.400000", "175453.890000", "175455.380000", "175456.870000", "175458.360000", "175459.850000", "175501.340000", "175502.830000", "175504.320000", "175505.810000", "175507.300000", "175508.790000", "175510.280000", "175511.770000", "175513.260000", "175514.750000", "175516.240000", "175517.730000", "175519.220000", "175520.710000", "175522.200000", "175523.690000", "175525.180000", "175526.670000", "175528.160000", "175529.650000", "175531.140000", "175532.630000", "175534.120000", "175535.610000", "175537.100000", "175538.590000", "175540.080000", "175541.570000", "175543.060000", "175544.550000", "175546.040000", "175547.530000", "175549.020000", "175550.510000", "175552.000000", "175553.490000", "175554.980000", "175556.470000", "175557.960000", "175559.450000", "175600.940000", "175602.430000", "175603.920000", "175605.410000", "175606.900000", "175608.390000", "175609.880000", "175611.370000", "175612.860000", "175614.350000", "175615.840000", "175617.330000", "175618.820000", "175620.310000", "175621.800000", "175623.290000", "175624.780000", "175626.270000", "175627.760000", "175629.250000", "175630.740000", "175632.230000", "175633.720000", "175635.210000", "175636.700000", "175638.190000", "175639.680000", "175641.170000", "175642.660000", "175644.150000", "175645.640000", "175647.130000", "175648.620000", "175650.110000", "175651.600000", "175653.090000", "175654.580000", "175656.070000", "175657.560000", "175659.050000", "175700.540000", "175702.030000", "175703.520000", "175705.010000", "175706.500000", "175707.990000", "175709.480000", "175710.970000", "175712.460000", "175713.950000", "175715.440000", "175716.930000", "175718.420000", "175719.910000", "175721.400000", "175722.890000", "175724.380000", "175725.870000", "175727.360000", "175728.850000", "175730.340000", "175731.830000", "175733.320000", "175734.810000", "175736.300000", "175737.790000", "175739.280000", "175740.770000", "175742.260000", "175743.750000", "175745.240000", "175746.730000", "175748.220000", "175749.710000", "175751.200000", "175752.690000", "175754.180000", "175755.670000", "175757.160000", "175758.650000", "175800.140000", "175801.630000", "175803.120000", "175804.610000", "175806.100000", "175807.590000", "175809.080000", "175810.570000", "175812.060000", "175813.550000", "175815.040000", "175816.530000", "175818.020000", "175819.510000"],
      "ContentTime": ["174904.402000", "174904.405000", "174904.409000", "174904.412000", "174904.415000", "174904.419000", "174904.422000", "174904.425000", "174904.429000", "174904.432000", "174904.435000", "174904.438000", "174904.450000", "174904.453000", "174904.457000", "174904.460000", "174904.463000", "174904.467000", "174904.470000", "174904.473000", "174904.476000", "174904.487000", "174904.490000", "174904.494000", "174904.497000", "174904.500000", "174904.503000", "174904.507000", "174904.510000", "174904.513000", "174924.366000", "174924.370000", "174924.373000", "174924.376000", "174924.386000", "174924.389000", "174924.393000", "174924.397000", "174924.400000", "174924.404000", "174924.407000", "174924.410000", "174924.413000", "174924.417000", "174924.420000", "174924.423000", "174924.427000", "174924.430000", "174924.433000", "174924.436000", "174924.440000", "174944.367000", "174944.371000", "174944.374000", "174944.377000", "174944.381000", "174944.384000", "174944.387000", "174944.391000", "174944.394000", "174944.397000", "174944.400000", "174944.404000", "174944.407000", "174944.410000", "174944.414000", "174944.417000", "174944.420000", "174944.424000", "174944.427000", "174944.430000", "175004.367000", "175004.371000", "175004.374000", "175004.377000", "175004.381000", "175004.384000", "175004.387000", "175004.391000", "175004.394000", "175004.397000", "175004.401000", "175004.404000", "175004.407000", "175004.410000", "175004.414000", "175004.417000", "175004.420000", "175004.424000", "175004.427000", "175004.430000", "175044.366000", "175044.370000", "175044.373000", "175044.376000", "175044.380000", "175044.383000", "175044.386000", "175044.390000", "175044.399000", "175044.402000", "175044.405000", "175044.409000", "175044.412000", "175044.416000", "175044.419000", "175044.422000", "175044.426000", "175044.429000", "175044.432000", "175044.435000", "175044.439000", "175044.442000", "175044.445000", "175044.449000", "175044.452000", "175044.455000", "175044.459000", "175044.462000", "175044.465000", "175044.471000", "175124.366000", "175124.386000", "175124.390000", "175124.393000", "175124.404000", "175124.407000", "175124.410000", "175124.414000", "175124.417000", "175124.421000", "175124.424000", "175124.427000", "175124.431000", "175124.434000", "175124.438000", "175124.441000", "175124.445000", "175124.448000", "175124.451000", "175124.455000", "175124.458000", "175124.461000", "175124.465000", "175124.468000", "175124.471000", "175124.475000", "175204.367000", "175204.371000", "175204.374000", "175204.378000", "175204.381000", "175204.384000", "175204.388000", "175204.391000", "175204.394000", "175204.398000", "175204.401000", "175204.404000", "175204.407000", "175204.411000", "175204.414000", "175204.424000", "175204.427000", "175204.431000", "175204.434000", "175204.437000", "175204.441000", "175204.444000", "175204.447000", "175204.450000", "175204.454000", "175204.457000", "175204.460000", "175244.367000", "175244.371000", "175244.374000", "175244.378000", "175244.381000", "175244.384000", "175244.387000", "175244.391000", "175244.394000", "175244.397000", "175244.409000", "175244.413000", "175244.416000", "175244.419000", "175244.423000", "175244.426000", "175244.429000", "175244.433000", "175244.436000", "175244.439000", "175244.443000", "175244.446000", "175244.449000", "175244.452000", "175244.456000", "175244.459000", "175244.462000", "175324.366000", "175324.370000", "175324.373000", "175324.377000", "175324.380000", "175324.383000", "175324.387000", "175324.390000", "175324.393000", "175324.397000", "175324.400000", "175324.403000", "175324.407000", "175324.410000", "175324.414000", "175324.417000", "175324.420000", "175324.424000", "175324.427000", "175324.431000", "175324.434000", "175324.437000", "175324.451000", "175324.454000", "175324.457000", "175324.461000", "175324.464000", "175404.366000", "175404.370000", "175404.373000", "175404.377000", "175404.380000", "175404.383000", "175404.387000", "175404.390000", "175404.393000", "175404.397000", "175404.400000", "175404.403000", "175404.406000", "175404.410000", "175404.413000", "175404.416000", "175404.420000", "175404.423000", "175404.426000", "175404.430000", "175404.433000", "175404.436000", "175404.440000", "175404.443000", "175404.446000", "175404.450000", "175404.453000", "175444.367000", "175444.371000", "175444.374000", "175444.377000", "175444.381000", "175444.384000", "175444.387000", "175444.391000", "175444.394000", "175444.397000", "175444.401000", "175444.404000", "175444.407000", "175444.411000", "175444.414000", "175444.417000", "175444.421000", "175444.424000", "175444.427000", "175444.430000", "175444.434000", "175444.437000", "175444.440000", "175444.444000", "175444.447000", "175444.450000", "175444.454000", "175524.366000", "175524.370000", "175524.373000", "175524.377000", "175524.380000", "175524.383000", "175524.387000", "175524.390000", "175524.393000", "175524.397000", "175524.400000", "175524.404000", "175524.407000", "175524.410000", "175524.414000", "175524.417000", "175524.429000", "175524.432000", "175524.435000", "175524.439000", "175524.442000", "175524.445000", "175524.448000", "175524.452000", "175524.455000", "175524.458000", "175604.366000", "175604.370000", "175604.374000", "175604.384000", "175604.387000", "175604.390000", "175604.394000", "175604.397000", "175604.400000", "175604.404000", "175604.407000", "175604.411000", "175604.414000", "175604.418000", "175604.421000", "175604.424000", "175604.428000", "175604.431000", "175604.434000", "175604.438000", "175604.441000", "175604.444000", "175604.448000", "175604.451000", "175604.454000", "175604.457000", "175604.461000", "175644.367000", "175644.371000", "175644.374000", "175644.378000", "175644.381000", "175644.384000", "175644.388000", "175644.391000", "175644.394000", "175644.398000", "175644.401000", "175644.404000", "175644.408000", "175644.411000", "175644.414000", "175644.418000", "175644.421000", "175644.424000", "175644.428000", "175644.431000", "175644.434000", "175644.438000", "175644.441000", "175644.444000", "175644.448000", "175644.451000", "175644.454000", "175724.369000", "175724.373000", "175724.376000", "175724.379000", "175724.383000", "175724.386000", "175724.389000", "175724.393000", "175724.396000", "175724.400000", "175724.403000", "175724.406000", "175724.409000", "175724.413000", "175724.416000", "175724.420000", "175724.424000", "175724.427000", "175724.431000", "175724.434000", "175724.437000", "175724.441000", "175724.444000", "175724.448000", "175724.451000", "175724.454000", "175724.458000", "175804.366000", "175804.370000", "175804.373000", "175804.377000", "175804.380000", "175804.383000", "175804.387000", "175804.390000", "175804.404000", "175804.408000", "175804.411000", "175804.414000", "175804.418000", "175804.421000", "175804.424000", "175804.428000", "175804.431000", "175804.435000", "175804.438000", "175804.441000", "175804.445000", "175804.448000", "175804.451000", "175804.455000", "175804.458000", "175804.461000", "175804.464000", "175822.423000", "175822.427000", "175822.430000", "175822.434000", "175822.437000", "175822.440000", "175822.443000", "175822.447000", "175822.450000", "175822.453000", "175822.457000", "175822.460000"],
      "InstanceCreationTime": ["174904.402000", "174904.405000", "174904.409000", "174904.412000", "174904.415000", "174904.419000", "174904.422000", "174904.425000", "174904.429000", "174904.432000", "174904.435000", "174904.438000", "174904.450000", "174904.453000", "174904.457000", "174904.460000", "174904.463000", "174904.467000", "174904.470000", "174904.473000", "174904.476000", "174904.487000", "174904.490000", "174904.494000", "174904.497000", "174904.500000", "174904.503000", "174904.507000", "174904.510000", "174904.513000", "174924.366000", "174924.370000", "174924.373000", "174924.376000", "174924.386000", "174924.389000", "174924.393000", "174924.397000", "174924.400000", "174924.404000", "174924.407000", "174924.410000", "174924.413000", "174924.417000", "174924.420000", "174924.423000", "174924.427000", "174924.430000", "174924.433000", "174924.436000", "174924.440000", "174944.367000", "174944.371000", "174944.374000", "174944.377000", "174944.381000", "174944.384000", "174944.387000", "174944.391000", "174944.394000", "174944.397000", "174944.400000", "174944.404000", "174944.407000", "174944.410000", "174944.414000", "174944.417000", "174944.420000", "174944.424000", "174944.427000", "174944.430000", "175004.367000", "175004.371000", "175004.374000", "175004.377000", "175004.381000", "175004.384000", "175004.387000", "175004.391000", "175004.394000", "175004.397000", "175004.401000", "175004.404000", "175004.407000", "175004.410000", "175004.414000", "175004.417000", "175004.420000", "175004.424000", "175004.427000", "175004.430000", "175044.366000", "175044.370000", "175044.373000", "175044.376000", "175044.380000", "175044.383000", "175044.386000", "175044.390000", "175044.399000", "175044.402000", "175044.405000", "175044.409000", "175044.412000", "175044.416000", "175044.419000", "175044.422000", "175044.426000", "175044.429000", "175044.432000", "175044.435000", "175044.439000", "175044.442000", "175044.445000", "175044.449000", "175044.452000", "175044.455000", "175044.459000", "175044.462000", "175044.465000", "175044.471000", "175124.366000", "175124.386000", "175124.390000", "175124.393000", "175124.404000", "175124.407000", "175124.410000", "175124.414000", "175124.417000", "175124.421000", "175124.424000", "175124.427000", "175124.431000", "175124.434000", "175124.438000", "175124.441000", "175124.445000", "175124.448000", "175124.451000", "175124.455000", "175124.458000", "175124.461000", "175124.465000", "175124.468000", "175124.471000", "175124.475000", "175204.367000", "175204.371000", "175204.374000", "175204.378000", "175204.381000", "175204.384000", "175204.388000", "175204.391000", "175204.394000", "175204.398000", "175204.401000", "175204.404000", "175204.407000", "175204.411000", "175204.414000", "175204.424000", "175204.427000", "175204.431000", "175204.434000", "175204.437000", "175204.441000", "175204.444000", "175204.447000", "175204.450000", "175204.454000", "175204.457000", "175204.460000", "175244.367000", "175244.371000", "175244.374000", "175244.378000", "175244.381000", "175244.384000", "175244.387000", "175244.391000", "175244.394000", "175244.397000", "175244.409000", "175244.413000", "175244.416000", "175244.419000", "175244.423000", "175244.426000", "175244.429000", "175244.433000", "175244.436000", "175244.439000", "175244.443000", "175244.446000", "175244.449000", "175244.452000", "175244.456000", "175244.459000", "175244.462000", "175324.366000", "175324.370000", "175324.373000", "175324.377000", "175324.380000", "175324.383000", "175324.387000", "175324.390000", "175324.393000", "175324.397000", "175324.400000", "175324.403000", "175324.407000", "175324.410000", "175324.414000", "175324.417000", "175324.420000", "175324.424000", "175324.427000", "175324.431000", "175324.434000", "175324.437000", "175324.451000", "175324.454000", "175324.457000", "175324.461000", "175324.464000", "175404.366000", "175404.370000", "175404.373000", "175404.377000", "175404.380000", "175404.383000", "175404.387000", "175404.390000", "175404.393000", "175404.397000", "175404.400000", "175404.403000", "175404.406000", "175404.410000", "175404.413000", "175404.416000", "175404.420000", "175404.423000", "175404.426000", "175404.430000", "175404.433000", "175404.436000", "175404.440000", "175404.443000", "175404.446000", "175404.450000", "175404.453000", "175444.367000", "175444.371000", "175444.374000", "175444.377000", "175444.381000", "175444.384000", "175444.387000", "175444.391000", "175444.394000", "175444.397000", "175444.401000", "175444.404000", "175444.407000", "175444.411000", "175444.414000", "175444.417000", "175444.421000", "175444.424000", "175444.427000", "175444.430000", "175444.434000", "175444.437000", "175444.440000", "175444.444000", "175444.447000", "175444.450000", "175444.454000", "175524.366000", "175524.370000", "175524.373000", "175524.377000", "175524.380000", "175524.383000", "175524.387000", "175524.390000", "175524.393000", "175524.397000", "175524.400000", "175524.404000", "175524.407000", "175524.410000", "175524.414000", "175524.417000", "175524.429000", "175524.432000", "175524.435000", "175524.439000", "175524.442000", "175524.445000", "175524.448000", "175524.452000", "175524.455000", "175524.458000", "175604.366000", "175604.370000", "175604.374000", "175604.384000", "175604.387000", "175604.390000", "175604.394000", "175604.397000", "175604.400000", "175604.404000", "175604.407000", "175604.411000", "175604.414000", "175604.418000", "175604.421000", "175604.424000", "175604.428000", "175604.431000", "175604.434000", "175604.438000", "175604.441000", "175604.444000", "175604.448000", "175604.451000", "175604.454000", "175604.457000", "175604.461000", "175644.367000", "175644.371000", "175644.374000", "175644.378000", "175644.381000", "175644.384000", "175644.388000", "175644.391000", "175644.394000", "175644.398000", "175644.401000", "175644.404000", "175644.408000", "175644.411000", "175644.414000", "175644.418000", "175644.421000", "175644.424000", "175644.428000", "175644.431000", "175644.434000", "175644.438000", "175644.441000", "175644.444000", "175644.448000", "175644.451000", "175644.454000", "175724.369000", "175724.373000", "175724.376000", "175724.379000", "175724.383000", "175724.386000", "175724.389000", "175724.393000", "175724.396000", "175724.400000", "175724.403000", "175724.406000", "175724.409000", "175724.413000", "175724.416000", "175724.420000", "175724.424000", "175724.427000", "175724.431000", "175724.434000", "175724.437000", "175724.441000", "175724.444000", "175724.448000", "175724.451000", "175724.454000", "175724.458000", "175804.366000", "175804.370000", "175804.373000", "175804.377000", "175804.380000", "175804.383000", "175804.387000", "175804.390000", "175804.404000", "175804.408000", "175804.411000", "175804.414000", "175804.418000", "175804.421000", "175804.424000", "175804.428000", "175804.431000", "175804.435000", "175804.438000", "175804.441000", "175804.445000", "175804.448000", "175804.451000", "175804.455000", "175804.458000", "175804.461000", "175804.464000", "175822.423000", "175822.427000", "175822.430000", "175822.434000", "175822.437000", "175822.440000", "175822.443000", "175822.447000", "175822.450000", "175822.453000", "175822.457000", "175822.460000"],
