{
  "AcquisitionMatrixPE": 104,
  "AcquisitionNumber": 1,
  "AcquisitionTime": "17:21:38.705000",
  "BandwidthPerPixelPhaseEncode": 17.17,
  "BaseResolution": 104,
  "BodyPartExamined": "BRAIN",
  "CoilCombinationMethod": "Sum of Squares",
  "ConsistencyInfo": "N4_VE11C_LATEST_20160120",
  "ConversionSoftware": "dcm2niix",
  "ConversionSoftwareVersion": "v1.0.20211006",
  "DerivedVendorReportedEchoSpacing": 0.000560011,
  "DeviceSerialNumber": "167006",
  "DwellTime": 2.1e-06,
  "EchoTime": 0.037,
  "EchoTrainLength": 104,
  "EffectiveEchoSpacing": 0.000560011,
  "FlipAngle": 52,
  "HeudiconvVersion": "0.11.3.post9+gc939bf8",
  "ImageComments": "Unaliased MB4/PE3/LB",
  "ImageOrientationPatientDICOM": [0.999842, -0.0150375, 0.00944765, 0.0174523, 0.930443, -0.36602],
  "ImageOrientationText": "Tra>Cor(-21.5)>Sag(0.2)",
  "ImageType": [
    "ORIGINAL",
    "PRIMARY",
    "M",
    "MB",
    "ND",
    "MOSAIC"
],
  "ImagingFrequency": 123.259,
  "InPlanePhaseEncodingDirectionDICOM": "COL",
  "InstitutionAddress": "Chemin Queen-Mary 4565,Montreal,District,CA,H3W 1W5",
  "InstitutionName": "IUGM",
  "InstitutionalDepartmentName": "Department",
  "MRAcquisitionType": "2D",
  "MagneticFieldStrength": 3,
  "Manufacturer": "Siemens",
  "ManufacturersModelName": "Prisma_fit",
  "MatrixCoilMode": "SENSE",
  "Modality": "MR",
  "MultibandAccelerationFactor": 4,
  "PartialFourier": 1,
  "PatientPosition": "HFS",
  "PercentPhaseFOV": 100,
  "PercentSampling": 100,
  "PhaseEncodingDirection": "j",
  "PhaseEncodingSteps": 104,
  "PhaseResolution": 1,
  "PixelBandwidth": 2290,
  "ProcedureStepDescription": "games^mario",
  "ProtocolName": "func_task-mario_run-01",
  "PulseSequenceDetails": "%CustomerSeq%\\cmrr_mbep2d_bold",
  "ReceiveCoilActiveElements": "HC1-7;NC1,2",
  "ReceiveCoilName": "HeadNeck_64",
  "ReconMatrixPE": 104,
  "RepetitionTime": 1.49,
  "SAR": 0.0605607,
  "ScanOptions": "FS",
  "ScanningSequence": "EP",
  "SequenceName": "epfid2d1_104",
  "SequenceVariant": "SK\\SS",
  "SeriesDescription": "func_task-mario_run-01",
  "SeriesNumber": 10,
  "ShimSetting": [613, -7256, -8818, 420, 8, -346, 13, 46],
  "SliceThickness": 2,
  "SliceTiming": [0, 0.785, 0.0975, 0.8825, 0.195, 0.98, 0.295, 1.0775, 0.3925, 1.175, 0.49, 1.275, 0.5875, 1.3725, 0.685, 0, 0.785, 0.0975, 0.8825, 0.195, 0.98, 0.295, 1.0775, 0.3925, 1.175, 0.49, 1.275, 0.5875, 1.3725, 0.685, 0, 0.785, 0.0975, 0.8825, 0.195, 0.98, 0.295, 1.0775, 0.3925, 1.175, 0.49, 1.275, 0.5875, 1.3725, 0.685, 0, 0.785, 0.0975, 0.8825, 0.195, 0.98, 0.295, 1.0775, 0.3925, 1.175, 0.49, 1.275, 0.5875, 1.3725, 0.685],
  "SoftwareVersions": "syngo MR E11",
  "SpacingBetweenSlices": 2,
  "StationName": "MRC35049",
  "TaskName": "mario",
  "TotalReadoutTime": 0.0576811,
  "TxRefAmp": 268.624,
  "WipMemBlock": "732886f0-9cef-4065-a1e4-a5ce42b9c669||Sequence: R017 ve11c/master r/75a17815+; Jun 28 2022 16:32:11 by eja",
  "dcmmeta_affine": [
    [-1.9996845722198486, 0.0349045991897583, 0.006572968792170286, 101.75364685058594],
    [0.03007495030760765, 1.860886573791504, -0.7322544455528259, -69.86760711669922],
    [0.01889529824256897, 0.7320401072502136, 1.8611180782318115, -61.219581604003906],
    [0.0, 0.0, 0.0, 1.0]
],
  "dcmmeta_reorient_transform": [
    [0.0, -1.0, 0.0, 103.0],
    [1.0, 0.0, 0.0, 0.0],
    [0.0, 0.0, 1.0, 0.0],
    [0.0, 0.0, 0.0, 1.0]
],
  "dcmmeta_shape": [104, 104, 60, 472],
  "dcmmeta_slice_dim": 2,
  "dcmmeta_version": 0.6,
  "global": {
    "const": {
      "AcquisitionMatrix": [104, 0, 0, 104],
      "AngioFlag": "N",
      "BitsAllocated": 16,
      "BitsStored": 16,
      "BodyPartExamined": "BRAIN",
      "Columns": 832,
      "EchoNumbers": 1,
      "EchoTime": 37.0,
      "EchoTrainLength": 104,
      "FlipAngle": 52.0,
      "HighBit": 15,
      "ImageOrientationPatient": [0.99984229569714, -0.0150374752247, 0.00944764912259, 0.0174522994669, 0.93044329840757, -0.3660200618706],
      "ImagePositionPatient": [-845.9392893039, -788.21915207504, 273.7652666019],
      "ImageType": [
        "ORIGINAL",
        "PRIMARY",
        "M",
        "MB",
        "ND",
        "MOSAIC"
],
      "ImagedNucleus": "1H",
      "ImagingFrequency": 123.258744,
      "InPlanePhaseEncodingDirection": "COL",
      "MRAcquisitionType": "2D",
      "MagneticFieldStrength": 3.0,
      "Manufacturer": "SIEMENS",
      "ManufacturerModelName": "Prisma_fit",
      "Modality": "MR",
      "NumberOfAverages": 1.0,
      "NumberOfPhaseEncodingSteps": 104,
      "PercentPhaseFieldOfView": 100.0,
      "PercentSampling": 100.0,
      "PerformedProcedureStepStartTime": "171751.667000",
      "PhotometricInterpretation": "MONOCHROME2",
      "PixelBandwidth": 2290.0,
      "PixelRepresentation": 0,
      "PixelSpacing": [2.0, 2.0],
      "ProtocolName": "func_task-mario_run-01",
      "RepetitionTime": 1490.0,
      "Rows": 832,
      "SAR": 0.06056072563423,
      "SamplesPerPixel": 1,
      "ScanOptions": "FS",
      "ScanningSequence": "EP",
      "SequenceName": "epfid2d1_104",
      "SequenceVariant": [
        "SK",
        "SS"
],
      "SeriesDescription": "func_task-mario_run-01",
      "SeriesNumber": 10,
      "SeriesTime": "172257.550000",
      "SliceLocation": -31.05358919768,
      "SliceThickness": 2.0,
      "SmallestImagePixelValue": 0,
      "SoftwareVersions": "syngo MR E11",
      "SpacingBetweenSlices": 2.0000000637362,
      "SpecificCharacterSet": "ISO_IR 100",
      "StudyID": "1",
      "StudyTime": "171751.599000",
      "TransmitCoilName": "Body",
      "VariableFlipAngleFlag": "N",
      "WindowCenterWidthExplanation": "Algo1",
      "dBdt": 0.0},
    "slices": {}
  },
  "time": {
    "samples": {
      "AcquisitionNumber": [1, 2, 3, 4, 5, 6, 7, 8, 9, 10, 11, 12, 13, 14, 15, 16, 17, 18, 19, 20, 21, 22, 23, 24, 25, 26, 27, 28, 29, 30, 31, 32, 33, 34, 35, 36, 37, 38, 39, 40, 41, 42, 43, 44, 45, 46, 47, 48, 49, 50, 51, 52, 53, 54, 55, 56, 57, 58, 59, 60, 61, 62, 63, 64, 65, 66, 67, 68, 69, 70, 71, 72, 73, 74, 75, 76, 77, 78, 79, 80, 81, 82, 83, 84, 85, 86, 87, 88, 89, 90, 91, 92, 93, 94, 95, 96, 97, 98, 99, 100, 101, 102, 103, 104, 105, 106, 107, 108, 109, 110, 111, 112, 113, 114, 115, 116, 117, 118, 119, 120, 121, 122, 123, 124, 125, 126, 127, 128, 129, 130, 131, 132, 133, 134, 135, 136, 137, 138, 139, 140, 141, 142, 143, 144, 145, 146, 147, 148, 149, 150, 151, 152, 153, 154, 155, 156, 157, 158, 159, 160, 161, 162, 163, 164, 165, 166, 167, 168, 169, 170, 171, 172, 173, 174, 175, 176, 177, 178, 179, 180, 181, 182, 183, 184, 185, 186, 187, 188, 189, 190, 191, 192, 193, 194, 195, 196, 197, 198, 199, 200, 201, 202, 203, 204, 205, 206, 207, 208, 209, 210, 211, 212, 213, 214, 215, 216, 217, 218, 219, 220, 221, 222, 223, 224, 225, 226, 227, 228, 229, 230, 231, 232, 233, 234, 235, 236, 237, 238, 239, 240, 241, 242, 243, 244, 245, 246, 247, 248, 249, 250, 251, 252, 253, 254, 255, 256, 257, 258, 259, 260, 261, 262, 263, 264, 265, 266, 267, 268, 269, 270, 271, 272, 273, 274, 275, 276, 277, 278, 279, 280, 281, 282, 283, 284, 285, 286, 287, 288, 289, 290, 291, 292, 293, 294, 295, 296, 297, 298, 299, 300, 301, 302, 303, 304, 305, 306, 307, 308, 309, 310, 311, 312, 313, 314, 315, 316, 317, 318, 319, 320, 321, 322, 323, 324, 325, 326, 327, 328, 329, 330, 331, 332, 333, 334, 335, 336, 337, 338, 339, 340, 341, 342, 343, 344, 345, 346, 347, 348, 349, 350, 351, 352, 353, 354, 355, 356, 357, 358, 359, 360, 361, 362, 363, 364, 365, 366, 367, 368, 369, 370, 371, 372, 373, 374, 375, 376, 377, 378, 379, 380, 381, 382, 383, 384, 385, 386, 387, 388, 389, 390, 391, 392, 393, 394, 395, 396, 397, 398, 399, 400, 401, 402, 403, 404, 405, 406, 407, 408, 409, 410, 411, 412, 413, 414, 415, 416, 417, 418, 419, 420, 421, 422, 423, 424, 425, 426, 427, 428, 429, 430, 431, 432, 433, 434, 435, 436, 437, 438, 439, 440, 441, 442, 443, 444, 445, 446, 447, 448, 449, 450, 451, 452, 453, 454, 455, 456, 457, 458, 459, 460, 461, 462, 463, 464, 465, 466, 467, 468, 469, 470, 471, 472],
      "AcquisitionTime": ["172138.705000", "172140.195000", "172141.685000", "172143.175000", "172144.665000", "172146.155000", "172147.645000", "172149.135000", "172150.625000", "172152.115000", "172153.605000", "172155.095000", "172156.585000", "172158.075000", "172159.565000", "172201.055000", "172202.545000", "172204.035000", "172205.525000", "172207.015000", "172208.505000", "172209.995000", "172211.485000", "172212.975000", "172214.465000", "172215.955000", "172217.445000", "172218.935000", "172220.425000", "172221.915000", "172223.405000", "172224.895000", "172226.385000", "172227.875000", "172229.365000", "172230.855000", "172232.345000", "172233.835000", "172235.325000", "172236.815000", "172238.305000", "172239.795000", "172241.285000", "172242.775000", "172244.265000", "172245.755000", "172247.245000", "172248.735000", "172250.225000", "172251.715000", "172253.205000", "172254.695000", "172256.185000", "172257.675000", "172259.165000", "172300.655000", "172302.145000", "172303.635000", "172305.125000", "172306.615000", "172308.105000", "172309.595000", "172311.085000", "172312.575000", "172314.065000", "172315.555000", "172317.045000", "172318.535000", "172320.025000", "172321.515000", "172323.005000", "172324.495000", "172325.985000", "172327.475000", "172328.965000", "172330.455000", "172331.945000", "172333.435000", "172334.925000", "172336.415000", "172337.905000", "172339.395000", "172340.885000", "172342.375000", "172343.865000", "172345.355000", "172346.845000", "172348.335000", "172349.825000", "172351.315000", "172352.805000", "172354.295000", "172355.785000", "172357.275000", "172358.765000", "172400.255000", "172401.745000", "172403.235000", "172404.725000", "172406.215000", "172407.705000", "172409.195000", "172410.685000", "172412.175000", "172413.665000", "172415.155000", "172416.645000", "172418.135000", "172419.625000", "172421.115000", "172422.605000", "172424.095000", "172425.585000", "172427.075000", "172428.565000", "172430.055000", "172431.545000", "172433.035000", "172434.525000", "172436.015000", "172437.505000", "172438.995000", "172440.485000", "172441.975000", "172443.465000", "172444.955000", "172446.445000", "172447.935000", "172449.425000", "172450.915000", "172452.405000", "172453.895000", "172455.385000", "172456.875000", "172458.365000", "172459.855000", "172501.345000", "172502.835000", "172504.325000", "172505.815000", "172507.305000", "172508.795000", "172510.285000", "172511.775000", "172513.265000", "172514.755000", "172516.245000", "172517.735000", "172519.225000", "172520.715000", "172522.205000", "172523.695000", "172525.185000", "172526.675000", "172528.165000", "172529.655000", "172531.145000", "172532.635000", "172534.125000", "172535.615000", "172537.105000", "172538.595000", "172540.085000", "172541.575000", "172543.065000", "172544.555000", "172546.045000", "172547.535000", "172549.025000", "172550.515000", "172552.005000", "172553.495000", "172554.985000", "172556.475000", "172557.965000", "172559.455000", "172600.945000", "172602.435000", "172603.925000", "172605.415000", "172606.905000", "172608.395000", "172609.885000", "172611.375000", "172612.865000", "172614.355000", "172615.845000", "172617.335000", "172618.825000", "172620.315000", "172621.805000", "172623.295000", "172624.785000", "172626.275000", "172627.765000", "172629.255000", "172630.745000", "172632.235000", "172633.725000", "172635.215000", "172636.705000", "172638.195000", "172639.685000", "172641.175000", "172642.665000", "172644.155000", "172645.645000", "172647.135000", "172648.625000", "172650.115000", "172651.605000", "172653.095000", "172654.585000", "172656.075000", "172657.565000", "172659.055000", "172700.545000", "172702.035000", "172703.525000", "172705.015000", "172706.505000", "172707.995000", "172709.485000", "172710.975000", "172712.465000", "172713.955000", "172715.445000", "172716.935000", "172718.425000", "172719.915000", "172721.405000", "172722.895000", "172724.385000", "172725.875000", "172727.365000", "172728.855000", "172730.345000", "172731.835000", "172733.325000", "172734.815000", "172736.305000", "172737.795000", "172739.285000", "172740.775000", "172742.265000", "172743.755000", "172745.245000", "172746.735000", "172748.225000", "172749.715000", "172751.205000", "172752.695000", "172754.185000", "172755.675000", "172757.165000", "172758.655000", "172800.145000", "172801.635000", "172803.125000", "172804.615000", "172806.105000", "172807.595000", "172809.085000", "172810.575000", "172812.065000", "172813.555000", "172815.045000", "172816.535000", "172818.025000", "172819.515000", "172821.005000", "172822.495000", "172823.985000", "172825.475000", "172826.965000", "172828.455000", "172829.945000", "172831.435000", "172832.925000", "172834.415000", "172835.905000", "172837.395000", "172838.885000", "172840.375000", "172841.865000", "172843.355000", "172844.845000", "172846.335000", "172847.825000", "172849.315000", "172850.805000", "172852.295000", "172853.785000", "172855.275000", "172856.765000", "172858.255000", "172859.745000", "172901.235000", "172902.725000", "172904.215000", "172905.705000", "172907.195000", "172908.685000", "172910.175000", "172911.665000", "172913.155000", "172914.645000", "172916.135000", "172917.625000", "172919.115000", "172920.605000", "172922.095000", "172923.585000", "172925.075000", "172926.565000", "172928.055000", "172929.545000", "172931.035000", "172932.525000", "172934.015000", "172935.505000", "172936.995000", "172938.485000", "172939.975000", "172941.465000", "172942.955000", "172944.445000", "172945.935000", "172947.425000", "172948.915000", "172950.405000", "172951.895000", "172953.385000", "172954.875000", "172956.365000", "172957.855000", "172959.345000", "173000.835000", "173002.325000", "173003.815000", "173005.305000", "173006.795000", "173008.285000", "173009.775000", "173011.265000", "173012.755000", "173014.245000", "173015.735000", "173017.225000", "173018.715000", "173020.205000", "173021.695000", "173023.185000", "173024.675000", "173026.165000", "173027.655000", "173029.145000", "173030.635000", "173032.125000", "173033.615000", "173035.105000", "173036.595000", "173038.085000", "173039.575000", "173041.065000", "173042.555000", "173044.045000", "173045.535000", "173047.025000", "173048.515000", "173050.005000", "173051.495000", "173052.985000", "173054.475000", "173055.965000", "173057.455000", "173058.945000", "173100.435000", "173101.925000", "173103.415000", "173104.905000", "173106.395000", "173107.885000", "173109.375000", "173110.865000", "173112.355000", "173113.845000", "173115.335000", "173116.825000", "173118.315000", "173119.805000", "173121.295000", "173122.785000", "173124.275000", "173125.765000", "173127.255000", "173128.745000", "173130.235000", "173131.725000", "173133.215000", "173134.705000", "173136.195000", "173137.685000", "173139.175000", "173140.665000", "173142.155000", "173143.645000", "173145.135000", "173146.625000", "173148.115000", "173149.605000", "173151.095000", "173152.585000", "173154.075000", "173155.565000", "173157.055000", "173158.545000", "173200.035000", "173201.525000", "173203.015000", "173204.505000", "173205.995000", "173207.485000", "173208.975000", "173210.465000", "173211.955000", "173213.445000", "173214.935000", "173216.425000", "173217.915000", "173219.405000", "173220.895000", "173222.385000", "173223.875000", "173225.365000", "173226.855000", "173228.345000", "173229.835000", "173231.325000", "173232.815000", "173234.305000", "173235.795000", "173237.285000", "173238.775000", "173240.265000", "173241.755000", "173243.245000", "173244.735000", "173246.225000", "173247.715000", "173249.205000", "173250.695000", "173252.185000", "173253.675000", "173255.165000", "173256.655000", "173258.145000", "173259.635000", "173301.125000", "173302.615000", "173304.105000", "173305.595000", "173307.085000", "173308.575000", "173310.065000", "173311.555000", "173313.045000", "173314.535000", "173316.025000", "173317.515000", "173319.005000", "173320.495000"],
      "ContentTime": ["172257.553000", "172257.557000", "172257.561000", "172257.571000", "172257.574000", "172257.578000", "172257.581000", "172257.584000", "172257.588000", "172257.591000", "172257.594000", "172257.598000", "172257.601000", "172257.604000", "172257.608000", "172257.611000", "172257.618000", "172257.621000", "172257.625000", "172257.628000", "172257.631000", "172257.635000", "172257.638000", "172257.642000", "172257.645000", "172257.648000", "172257.652000", "172257.655000", "172257.658000", "172317.514000", "172317.518000", "172317.521000", "172317.524000", "172317.528000", "172317.531000", "172317.534000", "172317.549000", "172317.552000", "172317.556000", "172317.559000", "172317.562000", "172317.566000", "172317.569000", "172317.572000", "172317.575000", "172317.579000", "172317.582000", "172317.585000", "172317.589000", "172337.513000", "172337.517000", "172337.535000", "172337.538000", "172337.541000", "172337.545000", "172337.548000", "172337.551000", "172337.554000", "172337.558000", "172337.561000", "172337.564000", "172337.568000", "172337.571000", "172337.574000", "172337.577000", "172337.581000", "172337.584000", "172337.587000", "172337.591000", "172357.513000", "172357.517000", "172357.520000", "172357.523000", "172357.527000", "172357.530000", "172357.533000", "172357.547000", "172357.550000", "172357.554000", "172357.557000", "172357.560000", "172357.564000", "172357.567000", "172357.570000", "172357.573000", "172357.577000", "172357.580000", "172357.583000", "172357.587000", "172437.513000", "172437.517000", "172437.520000", "172437.523000", "172437.527000", "172437.530000", "172437.533000", "172437.537000", "172437.540000", "172437.543000", "172437.547000", "172437.550000", "172437.553000", "172437.557000", "172437.560000", "172437.563000", "172437.567000", "172437.570000", "172437.573000", "172437.577000", "172437.580000", "172437.583000", "172437.587000", "172437.599000", "172437.602000", "172437.606000", "172437.609000", "172437.612000", "172437.616000", "172437.619000", "172517.514000", "172517.518000", "172517.521000", "172517.524000", "172517.528000", "172517.531000", "172517.534000", "172517.538000", "172517.541000", "172517.544000", "172517.548000", "172517.551000", "172517.554000", "172517.558000", "172517.561000", "172517.564000", "172517.568000", "172517.571000", "172517.574000", "172517.578000", "172517.581000", "172517.584000", "172517.587000", "172517.591000", "172517.594000", "172517.597000", "172517.601000", "172557.513000", "172557.517000", "172557.520000", "172557.523000", "172557.527000", "172557.530000", "172557.533000", "172557.536000", "172557.540000", "172557.543000", "172557.562000", "172557.565000", "172557.569000", "172557.572000", "172557.575000", "172557.579000", "172557.587000", "172557.591000", "172557.594000", "172557.597000", "172557.601000", "172557.604000", "172557.607000", "172557.611000", "172557.614000", "172557.617000", "172557.621000", "172637.513000", "172637.517000", "172637.520000", "172637.524000", "172637.527000", "172637.530000", "172637.534000", "172637.537000", "172637.540000", "172637.544000", "172637.547000", "172637.550000", "172637.553000", "172637.557000", "172637.560000", "172637.563000", "172637.567000", "172637.570000", "172637.573000", "172637.577000", "172637.580000", "172637.583000", "172637.587000", "172637.590000", "172637.593000", "172637.597000", "172637.600000", "172717.514000", "172717.518000", "172717.521000", "172717.524000", "172717.528000", "172717.531000", "172717.534000", "172717.538000", "172717.541000", "172717.544000", "172717.548000", "172717.551000", "172717.554000", "172717.557000", "172717.561000", "172717.564000", "172717.567000", "172717.571000", "172717.574000", "172717.577000", "172717.581000", "172717.584000", "172717.587000", "172717.591000", "172717.594000", "172717.597000", "172717.601000", "172757.514000", "172757.518000", "172757.521000", "172757.524000", "172757.528000", "172757.531000", "172757.534000", "172757.538000", "172757.541000", "172757.544000", "172757.549000", "172757.552000", "172757.556000", "172757.559000", "172757.562000", "172757.566000", "172757.569000", "172757.572000", "172757.576000", "172757.579000", "172757.582000", "172757.586000", "172757.589000", "172757.592000", "172757.596000", "172757.599000", "172837.513000", "172837.517000", "172837.520000", "172837.524000", "172837.527000", "172837.530000", "172837.534000", "172837.537000", "172837.540000", "172837.544000", "172837.547000", "172837.550000", "172837.554000", "172837.557000", "172837.560000", "172837.564000", "172837.567000", "172837.570000", "172837.574000", "172837.577000", "172837.580000", "172837.584000", "172837.587000", "172837.590000", "172837.594000", "172837.597000", "172837.600000", "172917.513000", "172917.517000", "172917.528000", "172917.531000", "172917.534000", "172917.538000", "172917.541000", "172917.545000", "172917.548000", "172917.551000", "172917.555000", "172917.558000", "172917.561000", "172917.565000", "172917.569000", "172917.572000", "172917.576000", "172917.579000", "172917.583000", "172917.586000", "172917.589000", "172917.593000", "172917.596000", "172917.600000", "172917.603000", "172917.607000", "172917.610000", "172957.514000", "172957.518000", "172957.521000", "172957.525000", "172957.528000", "172957.531000", "172957.535000", "172957.538000", "172957.541000", "172957.545000", "172957.548000", "172957.551000", "172957.555000", "172957.558000", "172957.561000", "172957.565000", "172957.568000", "172957.572000", "172957.575000", "172957.578000", "172957.582000", "172957.585000", "172957.588000", "172957.592000", "172957.595000", "172957.598000", "172957.602000", "173017.514000", "173017.518000", "173017.521000", "173017.525000", "173017.528000", "173017.532000", "173017.535000", "173017.538000", "173017.542000", "173017.545000", "173017.549000", "173017.563000", "173017.567000", "173057.513000", "173057.517000", "173057.520000", "173057.524000", "173057.527000", "173057.531000", "173057.534000", "173057.537000", "173057.541000", "173057.544000", "173057.548000", "173057.551000", "173057.554000", "173057.558000", "173057.561000", "173057.565000", "173057.568000", "173057.571000", "173057.575000", "173057.578000", "173057.582000", "173057.591000", "173057.594000", "173057.597000", "173057.600000", "173057.604000", "173057.607000", "173137.513000", "173137.517000", "173137.522000", "173137.525000", "173137.528000", "173137.532000", "173137.535000", "173137.538000", "173137.542000", "173137.545000", "173137.548000", "173137.552000", "173137.555000", "173137.558000", "173137.562000", "173137.565000", "173137.568000", "173137.572000", "173137.575000", "173137.579000", "173137.582000", "173137.585000", "173137.588000", "173137.592000", "173137.595000", "173137.598000", "173137.602000", "173217.514000", "173217.518000", "173217.521000", "173217.525000", "173217.528000", "173217.531000", "173217.535000", "173217.538000", "173217.541000", "173217.545000", "173217.548000", "173217.551000", "173217.554000", "173217.558000", "173217.561000", "173217.564000", "173217.568000", "173217.571000", "173217.575000", "173217.578000", "173217.581000", "173217.585000", "173217.588000", "173217.591000", "173217.595000", "173217.598000", "173217.601000", "173257.532000", "173257.536000", "173257.539000", "173257.543000", "173257.546000", "173257.549000", "173257.553000", "173257.556000", "173257.559000", "173257.563000", "173257.566000", "173257.570000", "173257.573000", "173257.576000", "173257.580000", "173257.583000", "173257.592000", "173257.596000", "173257.599000", "173257.602000", "173257.606000", "173257.609000", "173257.612000", "173257.616000", "173257.620000", "173257.623000", "173257.626000", "173323.320000", "173323.323000", "173323.327000", "173323.330000", "173323.333000", "173323.336000", "173323.340000", "173323.343000", "173323.346000", "173323.350000", "173323.353000", "173323.356000", "173323.360000", "173323.363000", "173323.366000", "173323.370000", "173323.373000"],
