{
  "AcquisitionMatrixPE": 104,
  "AcquisitionNumber": 1,
  "AcquisitionTime": "18:38:1.015000",
  "BandwidthPerPixelPhaseEncode": 17.17,
  "BaseResolution": 104,
  "BodyPartExamined": "BRAIN",
  "CoilCombinationMethod": "Sum of Squares",
  "ConsistencyInfo": "N4_VE11C_LATEST_20160120",
  "ConversionSoftware": "dcm2niix",
  "ConversionSoftwareVersion": "v1.0.20211006",
  "DerivedVendorReportedEchoSpacing": 0.000560011,
  "DeviceSerialNumber": "167006",
  "DwellTime": 2.1e-06,
  "EchoTime": 0.037,
  "EchoTrainLength": 104,
  "EffectiveEchoSpacing": 0.000560011,
  "FlipAngle": 52,
  "HeudiconvVersion": "0.11.3.post9+gc939bf8",
  "ImageComments": "Unaliased MB4/PE3/LB",
  "ImageOrientationPatientDICOM": [0.999842, -0.0150375, 0.00944765, 0.0174523, 0.930443, -0.36602],
  "ImageOrientationText": "Tra>Cor(-21.5)>Sag(0.2)",
  "ImageType": [
    "ORIGINAL",
    "PRIMARY",
    "M",
    "MB",
    "ND",
    "MOSAIC"
],
  "ImagingFrequency": 123.259,
  "InPlanePhaseEncodingDirectionDICOM": "COL",
  "InstitutionAddress": "Chemin Queen-Mary 4565,Montreal,District,CA,H3W 1W5",
  "InstitutionName": "IUGM",
  "InstitutionalDepartmentName": "Department",
  "MRAcquisitionType": "2D",
  "MagneticFieldStrength": 3,
  "Manufacturer": "Siemens",
  "ManufacturersModelName": "Prisma_fit",
  "MatrixCoilMode": "SENSE",
  "Modality": "MR",
  "MultibandAccelerationFactor": 4,
  "PartialFourier": 1,
  "PatientPosition": "HFS",
  "PercentPhaseFOV": 100,
  "PercentSampling": 100,
  "PhaseEncodingDirection": "j",
  "PhaseEncodingSteps": 104,
  "PhaseResolution": 1,
  "PixelBandwidth": 2290,
  "ProcedureStepDescription": "games^mario",
  "ProtocolName": "func_task-mario_run-07",
  "PulseSequenceDetails": "%CustomerSeq%\\cmrr_mbep2d_bold",
  "ReceiveCoilActiveElements": "HC1-7;NC1,2",
  "ReceiveCoilName": "HeadNeck_64",
  "ReconMatrixPE": 104,
  "RepetitionTime": 1.49,
  "SAR": 0.0605607,
  "ScanOptions": "FS",
  "ScanningSequence": "EP",
  "SequenceName": "epfid2d1_104",
  "SequenceVariant": "SK\\SS",
  "SeriesDescription": "func_task-mario_run-07",
  "SeriesNumber": 28,
  "ShimSetting": [613, -7256, -8818, 420, 8, -346, 13, 46],
  "SliceThickness": 2,
  "SliceTiming": [0, 0.7825, 0.0975, 0.8825, 0.195, 0.98, 0.2925, 1.0775, 0.3925, 1.175, 0.49, 1.2725, 0.5875, 1.3725, 0.685, 0, 0.7825, 0.0975, 0.8825, 0.195, 0.98, 0.2925, 1.0775, 0.3925, 1.175, 0.49, 1.2725, 0.5875, 1.3725, 0.685, 0, 0.7825, 0.0975, 0.8825, 0.195, 0.98, 0.2925, 1.0775, 0.3925, 1.175, 0.49, 1.2725, 0.5875, 1.3725, 0.685, 0, 0.7825, 0.0975, 0.8825, 0.195, 0.98, 0.2925, 1.0775, 0.3925, 1.175, 0.49, 1.2725, 0.5875, 1.3725, 0.685],
  "SoftwareVersions": "syngo MR E11",
  "SpacingBetweenSlices": 2,
  "StationName": "MRC35049",
  "TaskName": "mario",
  "TotalReadoutTime": 0.0576811,
  "TxRefAmp": 268.624,
  "WipMemBlock": "384b518d-0e6b-4d8f-a2a1-189aa9e6a11e||Sequence: R017 ve11c/master r/75a17815+; Jun 28 2022 16:32:11 by eja",
  "dcmmeta_affine": [
    [-1.9996845722198486, 0.0349045991897583, 0.006572968792170286, 101.75364685058594],
    [0.03007495030760765, 1.860886573791504, -0.7322544455528259, -69.86760711669922],
    [0.01889529824256897, 0.7320401072502136, 1.8611180782318115, -61.219581604003906],
    [0.0, 0.0, 0.0, 1.0]
],
  "dcmmeta_reorient_transform": [
    [0.0, -1.0, 0.0, 103.0],
    [1.0, 0.0, 0.0, 0.0],
    [0.0, 0.0, 1.0, 0.0],
    [0.0, 0.0, 0.0, 1.0]
],
  "dcmmeta_shape": [104, 104, 60, 428],
  "dcmmeta_slice_dim": 2,
  "dcmmeta_version": 0.6,
  "global": {
    "const": {
      "AcquisitionMatrix": [104, 0, 0, 104],
      "AngioFlag": "N",
      "BitsAllocated": 16,
      "BitsStored": 16,
      "BodyPartExamined": "BRAIN",
      "Columns": 832,
      "EchoNumbers": 1,
      "EchoTime": 37.0,
      "EchoTrainLength": 104,
      "FlipAngle": 52.0,
      "HighBit": 15,
      "ImageOrientationPatient": [0.99984229569714, -0.0150374752247, 0.00944764912259, 0.0174522994669, 0.93044329840757, -0.3660200618706],
      "ImagePositionPatient": [-845.9392893039, -788.21915207504, 273.7652666019],
      "ImageType": [
        "ORIGINAL",
        "PRIMARY",
        "M",
        "MB",
        "ND",
        "MOSAIC"
],
      "ImagedNucleus": "1H",
      "ImagingFrequency": 123.258777,
      "InPlanePhaseEncodingDirection": "COL",
      "MRAcquisitionType": "2D",
      "MagneticFieldStrength": 3.0,
      "Manufacturer": "SIEMENS",
      "ManufacturerModelName": "Prisma_fit",
      "Modality": "MR",
      "NumberOfAverages": 1.0,
      "NumberOfPhaseEncodingSteps": 104,
      "PercentPhaseFieldOfView": 100.0,
      "PercentSampling": 100.0,
      "PerformedProcedureStepStartTime": "171751.667000",
      "PhotometricInterpretation": "MONOCHROME2",
      "PixelBandwidth": 2290.0,
      "PixelRepresentation": 0,
      "PixelSpacing": [2.0, 2.0],
      "ProtocolName": "func_task-mario_run-07",
      "RepetitionTime": 1490.0,
      "Rows": 832,
      "SAR": 0.06056072563423,
      "SamplesPerPixel": 1,
      "ScanOptions": "FS",
      "ScanningSequence": "EP",
      "SequenceName": "epfid2d1_104",
      "SequenceVariant": [
        "SK",
        "SS"
],
      "SeriesDescription": "func_task-mario_run-07",
      "SeriesNumber": 28,
      "SeriesTime": "183917.558000",
      "SliceLocation": -31.05358919768,
      "SliceThickness": 2.0,
      "SmallestImagePixelValue": 0,
      "SoftwareVersions": "syngo MR E11",
      "SpacingBetweenSlices": 2.0000000637362,
      "SpecificCharacterSet": "ISO_IR 100",
      "StudyID": "1",
      "StudyTime": "171751.599000",
      "TransmitCoilName": "Body",
      "VariableFlipAngleFlag": "N",
      "WindowCenterWidthExplanation": "Algo1",
      "dBdt": 0.0},
    "slices": {}
  },
  "time": {
    "samples": {
      "AcquisitionNumber": [1, 2, 3, 4, 5, 6, 7, 8, 9, 10, 11, 12, 13, 14, 15, 16, 17, 18, 19, 20, 21, 22, 23, 24, 25, 26, 27, 28, 29, 30, 31, 32, 33, 34, 35, 36, 37, 38, 39, 40, 41, 42, 43, 44, 45, 46, 47, 48, 49, 50, 51, 52, 53, 54, 55, 56, 57, 58, 59, 60, 61, 62, 63, 64, 65, 66, 67, 68, 69, 70, 71, 72, 73, 74, 75, 76, 77, 78, 79, 80, 81, 82, 83, 84, 85, 86, 87, 88, 89, 90, 91, 92, 93, 94, 95, 96, 97, 98, 99, 100, 101, 102, 103, 104, 105, 106, 107, 108, 109, 110, 111, 112, 113, 114, 115, 116, 117, 118, 119, 120, 121, 122, 123, 124, 125, 126, 127, 128, 129, 130, 131, 132, 133, 134, 135, 136, 137, 138, 139, 140, 141, 142, 143, 144, 145, 146, 147, 148, 149, 150, 151, 152, 153, 154, 155, 156, 157, 158, 159, 160, 161, 162, 163, 164, 165, 166, 167, 168, 169, 170, 171, 172, 173, 174, 175, 176, 177, 178, 179, 180, 181, 182, 183, 184, 185, 186, 187, 188, 189, 190, 191, 192, 193, 194, 195, 196, 197, 198, 199, 200, 201, 202, 203, 204, 205, 206, 207, 208, 209, 210, 211, 212, 213, 214, 215, 216, 217, 218, 219, 220, 221, 222, 223, 224, 225, 226, 227, 228, 229, 230, 231, 232, 233, 234, 235, 236, 237, 238, 239, 240, 241, 242, 243, 244, 245, 246, 247, 248, 249, 250, 251, 252, 253, 254, 255, 256, 257, 258, 259, 260, 261, 262, 263, 264, 265, 266, 267, 268, 269, 270, 271, 272, 273, 274, 275, 276, 277, 278, 279, 280, 281, 282, 283, 284, 285, 286, 287, 288, 289, 290, 291, 292, 293, 294, 295, 296, 297, 298, 299, 300, 301, 302, 303, 304, 305, 306, 307, 308, 309, 310, 311, 312, 313, 314, 315, 316, 317, 318, 319, 320, 321, 322, 323, 324, 325, 326, 327, 328, 329, 330, 331, 332, 333, 334, 335, 336, 337, 338, 339, 340, 341, 342, 343, 344, 345, 346, 347, 348, 349, 350, 351, 352, 353, 354, 355, 356, 357, 358, 359, 360, 361, 362, 363, 364, 365, 366, 367, 368, 369, 370, 371, 372, 373, 374, 375, 376, 377, 378, 379, 380, 381, 382, 383, 384, 385, 386, 387, 388, 389, 390, 391, 392, 393, 394, 395, 396, 397, 398, 399, 400, 401, 402, 403, 404, 405, 406, 407, 408, 409, 410, 411, 412, 413, 414, 415, 416, 417, 418, 419, 420, 421, 422, 423, 424, 425, 426, 427, 428],
      "AcquisitionTime": ["183801.015000", "183802.505000", "183803.995000", "183805.485000", "183806.975000", "183808.465000", "183809.955000", "183811.445000", "183812.935000", "183814.425000", "183815.915000", "183817.405000", "183818.895000", "183820.385000", "183821.875000", "183823.365000", "183824.855000", "183826.345000", "183827.835000", "183829.325000", "183830.815000", "183832.305000", "183833.795000", "183835.285000", "183836.775000", "183838.265000", "183839.755000", "183841.245000", "183842.735000", "183844.225000", "183845.715000", "183847.205000", "183848.695000", "183850.185000", "183851.675000", "183853.165000", "183854.655000", "183856.145000", "183857.635000", "183859.125000", "183900.615000", "183902.105000", "183903.595000", "183905.085000", "183906.575000", "183908.065000", "183909.555000", "183911.045000", "183912.535000", "183914.025000", "183915.515000", "183917.005000", "183918.495000", "183919.985000", "183921.475000", "183922.965000", "183924.455000", "183925.945000", "183927.435000", "183928.925000", "183930.415000", "183931.905000", "183933.395000", "183934.885000", "183936.375000", "183937.865000", "183939.355000", "183940.845000", "183942.335000", "183943.825000", "183945.315000", "183946.805000", "183948.295000", "183949.785000", "183951.275000", "183952.765000", "183954.255000", "183955.745000", "183957.235000", "183958.725000", "184000.215000", "184001.705000", "184003.195000", "184004.685000", "184006.175000", "184007.665000", "184009.155000", "184010.645000", "184012.135000", "184013.625000", "184015.115000", "184016.605000", "184018.095000", "184019.585000", "184021.075000", "184022.565000", "184024.055000", "184025.545000", "184027.035000", "184028.525000", "184030.015000", "184031.505000", "184032.995000", "184034.485000", "184035.975000", "184037.465000", "184038.955000", "184040.445000", "184041.935000", "184043.425000", "184044.915000", "184046.405000", "184047.895000", "184049.385000", "184050.875000", "184052.365000", "184053.855000", "184055.345000", "184056.835000", "184058.325000", "184059.815000", "184101.305000", "184102.795000", "184104.285000", "184105.775000", "184107.265000", "184108.755000", "184110.245000", "184111.735000", "184113.225000", "184114.715000", "184116.205000", "184117.695000", "184119.185000", "184120.675000", "184122.165000", "184123.655000", "184125.145000", "184126.635000", "184128.125000", "184129.615000", "184131.105000", "184132.595000", "184134.085000", "184135.575000", "184137.065000", "184138.555000", "184140.045000", "184141.535000", "184143.025000", "184144.515000", "184146.005000", "184147.495000", "184148.985000", "184150.475000", "184151.965000", "184153.455000", "184154.945000", "184156.435000", "184157.925000", "184159.415000", "184200.905000", "184202.395000", "184203.885000", "184205.375000", "184206.865000", "184208.355000", "184209.845000", "184211.335000", "184212.825000", "184214.315000", "184215.805000", "184217.295000", "184218.785000", "184220.275000", "184221.765000", "184223.255000", "184224.745000", "184226.235000", "184227.725000", "184229.215000", "184230.705000", "184232.195000", "184233.685000", "184235.175000", "184236.665000", "184238.155000", "184239.645000", "184241.135000", "184242.625000", "184244.115000", "184245.605000", "184247.095000", "184248.585000", "184250.075000", "184251.565000", "184253.055000", "184254.545000", "184256.035000", "184257.525000", "184259.015000", "184300.505000", "184301.995000", "184303.485000", "184304.975000", "184306.465000", "184307.955000", "184309.445000", "184310.935000", "184312.425000", "184313.915000", "184315.405000", "184316.895000", "184318.385000", "184319.875000", "184321.365000", "184322.855000", "184324.345000", "184325.835000", "184327.325000", "184328.815000", "184330.305000", "184331.795000", "184333.285000", "184334.775000", "184336.265000", "184337.755000", "184339.245000", "184340.735000", "184342.225000", "184343.715000", "184345.205000", "184346.695000", "184348.185000", "184349.675000", "184351.165000", "184352.655000", "184354.145000", "184355.635000", "184357.125000", "184358.615000", "184400.105000", "184401.595000", "184403.085000", "184404.575000", "184406.065000", "184407.555000", "184409.045000", "184410.535000", "184412.025000", "184413.515000", "184415.005000", "184416.495000", "184417.985000", "184419.475000", "184420.965000", "184422.455000", "184423.945000", "184425.435000", "184426.925000", "184428.415000", "184429.905000", "184431.395000", "184432.885000", "184434.375000", "184435.865000", "184437.355000", "184438.845000", "184440.335000", "184441.825000", "184443.315000", "184444.805000", "184446.295000", "184447.785000", "184449.275000", "184450.765000", "184452.255000", "184453.745000", "184455.235000", "184456.725000", "184458.215000", "184459.705000", "184501.195000", "184502.685000", "184504.175000", "184505.665000", "184507.155000", "184508.645000", "184510.135000", "184511.625000", "184513.115000", "184514.605000", "184516.095000", "184517.585000", "184519.075000", "184520.565000", "184522.055000", "184523.545000", "184525.035000", "184526.525000", "184528.015000", "184529.505000", "184530.995000", "184532.485000", "184533.975000", "184535.465000", "184536.955000", "184538.445000", "184539.935000", "184541.425000", "184542.915000", "184544.405000", "184545.895000", "184547.385000", "184548.875000", "184550.365000", "184551.855000", "184553.345000", "184554.835000", "184556.325000", "184557.815000", "184559.305000", "184600.795000", "184602.285000", "184603.775000", "184605.265000", "184606.755000", "184608.245000", "184609.735000", "184611.225000", "184612.715000", "184614.205000", "184615.695000", "184617.185000", "184618.675000", "184620.165000", "184621.655000", "184623.145000", "184624.635000", "184626.125000", "184627.615000", "184629.105000", "184630.595000", "184632.085000", "184633.575000", "184635.065000", "184636.555000", "184638.045000", "184639.535000", "184641.025000", "184642.515000", "184644.005000", "184645.495000", "184646.985000", "184648.475000", "184649.965000", "184651.455000", "184652.945000", "184654.435000", "184655.925000", "184657.415000", "184658.905000", "184700.395000", "184701.885000", "184703.375000", "184704.865000", "184706.355000", "184707.845000", "184709.335000", "184710.825000", "184712.315000", "184713.805000", "184715.295000", "184716.785000", "184718.275000", "184719.765000", "184721.255000", "184722.745000", "184724.235000", "184725.725000", "184727.215000", "184728.705000", "184730.195000", "184731.685000", "184733.175000", "184734.665000", "184736.155000", "184737.645000", "184739.135000", "184740.625000", "184742.115000", "184743.605000", "184745.095000", "184746.585000", "184748.075000", "184749.565000", "184751.055000", "184752.545000", "184754.035000", "184755.525000", "184757.015000", "184758.505000", "184759.995000", "184801.485000", "184802.975000", "184804.465000", "184805.955000", "184807.445000", "184808.935000", "184810.425000", "184811.915000", "184813.405000", "184814.895000", "184816.385000", "184817.875000", "184819.365000", "184820.855000", "184822.345000", "184823.835000", "184825.325000", "184826.815000", "184828.305000", "184829.795000", "184831.285000", "184832.775000", "184834.265000", "184835.755000", "184837.245000"],
      "ContentTime": ["183917.561000", "183917.565000", "183917.577000", "183917.580000", "183917.584000", "183917.587000", "183917.591000", "183917.594000", "183917.597000", "183917.606000", "183917.609000", "183917.612000", "183917.616000", "183917.619000", "183917.622000", "183917.626000", "183917.629000", "183917.632000", "183917.636000", "183917.639000", "183917.642000", "183917.646000", "183917.649000", "183917.653000", "183917.656000", "183917.659000", "183917.663000", "183937.514000", "183937.518000", "183937.521000", "183937.525000", "183937.528000", "183937.531000", "183937.535000", "183937.538000", "183937.541000", "183937.544000", "183937.548000", "183937.551000", "183937.555000", "183937.558000", "183937.561000", "183937.565000", "183937.568000", "183937.571000", "183937.575000", "183937.589000", "183937.592000", "183957.514000", "183957.518000", "183957.521000", "183957.525000", "183957.528000", "183957.531000", "183957.534000", "183957.538000", "183957.541000", "183957.544000", "183957.548000", "183957.551000", "183957.555000", "183957.558000", "183957.561000", "183957.564000", "183957.568000", "183957.571000", "183957.574000", "183957.578000", "184017.513000", "184017.517000", "184017.520000", "184017.524000", "184017.527000", "184017.530000", "184017.534000", "184017.537000", "184017.540000", "184017.544000", "184017.547000", "184017.550000", "184017.554000", "184017.557000", "184017.560000", "184017.564000", "184017.567000", "184017.570000", "184017.574000", "184017.584000", "184057.513000", "184057.517000", "184057.520000", "184057.524000", "184057.527000", "184057.531000", "184057.534000", "184057.537000", "184057.540000", "184057.544000", "184057.547000", "184057.554000", "184057.558000", "184057.561000", "184057.564000", "184057.568000", "184057.571000", "184057.575000", "184057.578000", "184057.581000", "184057.584000", "184057.588000", "184057.591000", "184057.594000", "184057.598000", "184057.601000", "184057.604000", "184057.608000", "184057.611000", "184057.615000", "184137.514000", "184137.518000", "184137.521000", "184137.525000", "184137.528000", "184137.532000", "184137.535000", "184137.538000", "184137.542000", "184137.545000", "184137.548000", "184137.551000", "184137.555000", "184137.558000", "184137.562000", "184137.565000", "184137.568000", "184137.572000", "184137.575000", "184137.578000", "184137.582000", "184137.585000", "184137.588000", "184137.592000", "184137.595000", "184137.598000", "184137.601000", "184217.514000", "184217.518000", "184217.521000", "184217.525000", "184217.533000", "184217.537000", "184217.540000", "184217.543000", "184217.547000", "184217.550000", "184217.554000", "184217.558000", "184217.562000", "184217.565000", "184217.569000", "184217.572000", "184217.575000", "184217.579000", "184217.582000", "184217.585000", "184217.589000", "184217.592000", "184217.603000", "184217.607000", "184217.610000", "184217.613000", "184257.513000", "184257.517000", "184257.521000", "184257.524000", "184257.527000", "184257.531000", "184257.534000", "184257.537000", "184257.541000", "184257.544000", "184257.548000", "184257.551000", "184257.554000", "184257.558000", "184257.561000", "184257.568000", "184257.571000", "184257.575000", "184257.578000", "184257.582000", "184257.585000", "184257.588000", "184257.592000", "184257.595000", "184257.598000", "184257.602000", "184257.605000", "184337.513000", "184337.517000", "184337.521000", "184337.524000", "184337.527000", "184337.531000", "184337.534000", "184337.537000", "184337.541000", "184337.544000", "184337.548000", "184337.551000", "184337.554000", "184337.558000", "184337.561000", "184337.564000", "184337.568000", "184337.571000", "184337.575000", "184337.578000", "184337.582000", "184337.585000", "184337.589000", "184337.592000", "184337.596000", "184337.599000", "184337.602000", "184417.514000", "184417.518000", "184417.521000", "184417.524000", "184417.528000", "184417.531000", "184417.535000", "184417.538000", "184417.541000", "184417.545000", "184417.548000", "184417.552000", "184417.555000", "184417.558000", "184417.562000", "184417.565000", "184417.575000", "184417.579000", "184417.582000", "184417.585000", "184417.589000", "184417.592000", "184417.596000", "184417.599000", "184417.602000", "184417.606000", "184417.609000", "184457.513000", "184457.517000", "184457.524000", "184457.527000", "184457.531000", "184457.534000", "184457.538000", "184457.541000", "184457.544000", "184457.548000", "184457.551000", "184457.555000", "184457.558000", "184457.561000", "184457.565000", "184457.568000", "184457.572000", "184457.575000", "184457.579000", "184457.582000", "184457.585000", "184457.589000", "184457.592000", "184457.595000", "184457.599000", "184457.602000", "184457.606000", "184537.513000", "184537.517000", "184537.520000", "184537.524000", "184537.527000", "184537.531000", "184537.534000", "184537.537000", "184537.541000", "184537.544000", "184537.548000", "184537.551000", "184537.554000", "184537.558000", "184537.561000", "184537.565000", "184537.568000", "184537.571000", "184537.575000", "184537.578000", "184537.581000", "184537.585000", "184537.588000", "184537.592000", "184537.595000", "184537.598000", "184537.602000", "184617.514000", "184617.518000", "184617.522000", "184617.525000", "184617.528000", "184617.532000", "184617.535000", "184617.539000", "184617.542000", "184617.557000", "184617.561000", "184617.565000", "184617.568000", "184617.572000", "184617.575000", "184617.579000", "184617.582000", "184617.585000", "184617.589000", "184617.593000", "184617.596000", "184617.599000", "184617.603000", "184617.606000", "184617.610000", "184617.613000", "184657.514000", "184657.518000", "184657.521000", "184657.525000", "184657.528000", "184657.532000", "184657.535000", "184657.538000", "184657.542000", "184657.545000", "184657.549000", "184657.552000", "184657.555000", "184657.559000", "184657.572000", "184657.575000", "184657.579000", "184657.582000", "184657.586000", "184657.589000", "184657.593000", "184657.596000", "184657.599000", "184657.603000", "184657.606000", "184657.609000", "184657.613000", "184737.513000", "184737.517000", "184737.521000", "184737.524000", "184737.527000", "184737.531000", "184737.534000", "184737.538000", "184737.541000", "184737.544000", "184737.548000", "184737.551000", "184737.555000", "184737.558000", "184737.561000", "184737.565000", "184737.568000", "184737.572000", "184737.575000", "184737.579000", "184737.582000", "184737.585000", "184737.589000", "184737.592000", "184737.595000", "184737.599000", "184737.602000", "184817.513000", "184817.517000", "184817.520000", "184817.524000", "184817.527000", "184817.531000", "184817.542000", "184817.546000", "184817.549000", "184817.553000", "184817.556000", "184817.559000", "184817.563000", "184817.566000", "184817.570000", "184817.573000", "184817.576000", "184817.580000", "184817.583000", "184817.587000", "184817.590000", "184817.593000", "184817.596000", "184817.600000", "184817.603000", "184817.607000", "184817.610000", "184839.261000", "184839.264000", "184839.274000", "184839.277000", "184839.281000", "184839.284000", "184839.288000", "184839.291000", "184839.294000", "184839.298000", "184839.301000", "184839.304000", "184839.308000", "184839.311000", "184839.314000"],
      "InstanceCreationTime": ["183917.561000", "183917.565000", "183917.577000", "183917.580000", "183917.584000", "183917.587000", "183917.591000", "183917.594000", "183917.597000", "183917.606000", "183917.609000", "183917.612000", "183917.616000", "183917.619000", "183917.622000", "183917.626000", "183917.629000", "183917.632000", "183917.636000", "183917.639000", "183917.642000", "183917.646000", "183917.649000", "183917.653000", "183917.656000", "183917.659000", "183917.663000", "183937.514000", "183937.518000", "183937.521000", "183937.525000", "183937.528000", "183937.531000", "183937.535000", "183937.538000", "183937.541000", "183937.544000", "183937.548000", "183937.551000", "183937.555000", "183937.558000", "183937.561000", "183937.565000", "183937.568000", "183937.571000", "183937.575000", "183937.589000", "183937.592000", "183957.514000", "183957.518000", "183957.521000", "183957.525000", "183957.528000", "183957.531000", "183957.534000", "183957.538000", "183957.541000", "183957.544000", "183957.548000", "183957.551000", "183957.555000", "183957.558000", "183957.561000", "183957.564000", "183957.568000", "183957.571000", "183957.574000", "183957.578000", "184017.513000", "184017.517000", "184017.520000", "184017.524000", "184017.527000", "184017.530000", "184017.534000", "184017.537000", "184017.540000", "184017.544000", "184017.547000", "184017.550000", "184017.554000", "184017.557000", "184017.560000", "184017.564000", "184017.567000", "184017.570000", "184017.574000", "184017.584000", "184057.513000", "184057.517000", "184057.520000", "184057.524000", "184057.527000", "184057.531000", "184057.534000", "184057.537000", "184057.540000", "184057.544000", "184057.547000", "184057.554000", "184057.558000", "184057.561000", "184057.564000", "184057.568000", "184057.571000", "184057.575000", "184057.578000", "184057.581000", "184057.584000", "184057.588000", "184057.591000", "184057.594000", "184057.598000", "184057.601000", "184057.604000", "184057.608000", "184057.611000", "184057.615000", "184137.514000", "184137.518000", "184137.521000", "184137.525000", "184137.528000", "184137.532000", "184137.535000", "184137.538000", "184137.542000", "184137.545000", "184137.548000", "184137.551000", "184137.555000", "184137.558000", "184137.562000", "184137.565000", "184137.568000", "184137.572000", "184137.575000", "184137.578000", "184137.582000", "184137.585000", "184137.588000", "184137.592000", "184137.595000", "184137.598000", "184137.601000", "184217.514000", "184217.518000", "184217.521000", "184217.525000", "184217.533000", "184217.537000", "184217.540000", "184217.543000", "184217.547000", "184217.550000", "184217.554000", "184217.558000", "184217.562000", "184217.565000", "184217.569000", "184217.572000", "184217.575000", "184217.579000", "184217.582000", "184217.585000", "184217.589000", "184217.592000", "184217.603000", "184217.607000", "184217.610000", "184217.613000", "184257.513000", "184257.517000", "184257.521000", "184257.524000", "184257.527000", "184257.531000", "184257.534000", "184257.537000", "184257.541000", "184257.544000", "184257.548000", "184257.551000", "184257.554000", "184257.558000", "184257.561000", "184257.568000", "184257.571000", "184257.575000", "184257.578000", "184257.582000", "184257.585000", "184257.588000", "184257.592000", "184257.595000", "184257.598000", "184257.602000", "184257.605000", "184337.513000", "184337.517000", "184337.521000", "184337.524000", "184337.527000", "184337.531000", "184337.534000", "184337.537000", "184337.541000", "184337.544000", "184337.548000", "184337.551000", "184337.554000", "184337.558000", "184337.561000", "184337.564000", "184337.568000", "184337.571000", "184337.575000", "184337.578000", "184337.582000", "184337.585000", "184337.589000", "184337.592000", "184337.596000", "184337.599000", "184337.602000", "184417.514000", "184417.518000", "184417.521000", "184417.524000", "184417.528000", "184417.531000", "184417.535000", "184417.538000", "184417.541000", "184417.545000", "184417.548000", "184417.552000", "184417.555000", "184417.558000", "184417.562000", "184417.565000", "184417.575000", "184417.579000", "184417.582000", "184417.585000", "184417.589000", "184417.592000", "184417.596000", "184417.599000", "184417.602000", "184417.606000", "184417.609000", "184457.513000", "184457.517000", "184457.524000", "184457.527000", "184457.531000", "184457.534000", "184457.538000", "184457.541000", "184457.544000", "184457.548000", "184457.551000", "184457.555000", "184457.558000", "184457.561000", "184457.565000", "184457.568000", "184457.572000", "184457.575000", "184457.579000", "184457.582000", "184457.585000", "184457.589000", "184457.592000", "184457.595000", "184457.599000", "184457.602000", "184457.606000", "184537.513000", "184537.517000", "184537.520000", "184537.524000", "184537.527000", "184537.531000", "184537.534000", "184537.537000", "184537.541000", "184537.544000", "184537.548000", "184537.551000", "184537.554000", "184537.558000", "184537.561000", "184537.565000", "184537.568000", "184537.571000", "184537.575000", "184537.578000", "184537.581000", "184537.585000", "184537.588000", "184537.592000", "184537.595000", "184537.598000", "184537.602000", "184617.514000", "184617.518000", "184617.522000", "184617.525000", "184617.528000", "184617.532000", "184617.535000", "184617.539000", "184617.542000", "184617.557000", "184617.561000", "184617.565000", "184617.568000", "184617.572000", "184617.575000", "184617.579000", "184617.582000", "184617.585000", "184617.589000", "184617.593000", "184617.596000", "184617.599000", "184617.603000", "184617.606000", "184617.610000", "184617.613000", "184657.514000", "184657.518000", "184657.521000", "184657.525000", "184657.528000", "184657.532000", "184657.535000", "184657.538000", "184657.542000", "184657.545000", "184657.549000", "184657.552000", "184657.555000", "184657.559000", "184657.572000", "184657.575000", "184657.579000", "184657.582000", "184657.586000", "184657.589000", "184657.593000", "184657.596000", "184657.599000", "184657.603000", "184657.606000", "184657.609000", "184657.613000", "184737.513000", "184737.517000", "184737.521000", "184737.524000", "184737.527000", "184737.531000", "184737.534000", "184737.538000", "184737.541000", "184737.544000", "184737.548000", "184737.551000", "184737.555000", "184737.558000", "184737.561000", "184737.565000", "184737.568000", "184737.572000", "184737.575000", "184737.579000", "184737.582000", "184737.585000", "184737.589000", "184737.592000", "184737.595000", "184737.599000", "184737.602000", "184817.513000", "184817.517000", "184817.520000", "184817.524000", "184817.527000", "184817.531000", "184817.542000", "184817.546000", "184817.549000", "184817.553000", "184817.556000", "184817.559000", "184817.563000", "184817.566000", "184817.570000", "184817.573000", "184817.576000", "184817.580000", "184817.583000", "184817.587000", "184817.590000", "184817.593000", "184817.596000", "184817.600000", "184817.603000", "184817.607000", "184817.610000", "184839.261000", "184839.264000", "184839.274000", "184839.277000", "184839.281000", "184839.284000", "184839.288000", "184839.291000", "184839.294000", "184839.298000", "184839.301000", "184839.304000", "184839.308000", "184839.311000", "184839.314000"],
