{
  "AcquisitionMatrixPE": 104,
  "AcquisitionNumber": 1,
  "AcquisitionTime": "18:12:12.487500",
  "BandwidthPerPixelPhaseEncode": 17.17,
  "BaseResolution": 104,
  "BodyPartExamined": "BRAIN",
  "CoilCombinationMethod": "Sum of Squares",
  "ConsistencyInfo": "N4_VE11C_LATEST_20160120",
  "ConversionSoftware": "dcm2niix",
  "ConversionSoftwareVersion": "v1.0.20211006",
  "DerivedVendorReportedEchoSpacing": 0.000560011,
  "DeviceSerialNumber": "167006",
  "DwellTime": 2.1e-06,
  "EchoTime": 0.037,
  "EchoTime1": 0.037,
  "EchoTime2": 0.001,
  "EchoTrainLength": 104,
  "EffectiveEchoSpacing": 0.000560011,
  "FlipAngle": 52,
  "HeudiconvVersion": "0.5.3.post569+g418601f",
  "ImageComments": "Unaliased MB4/PE3/LB",
  "ImageOrientationPatientDICOM": [0.99971, -0.022624, 0.00826715, 0.0240832, 0.9326, -0.360108],
  "ImageOrientationText": "Tra>Cor(-21.1)>Sag(-0.0)",
  "ImageType": [
    "ORIGINAL",
    "PRIMARY",
    "P",
    "MB",
    "ND",
    "MOSAIC",
    "PHASE"
],
  "ImagingFrequency": 123.259,
  "InPlanePhaseEncodingDirectionDICOM": "COL",
  "InstitutionAddress": "Chemin Queen-Mary 4565,Montreal,District,CA,H3W 1W5",
  "InstitutionName": "IUGM",
  "InstitutionalDepartmentName": "Department",
  "MRAcquisitionType": "2D",
  "MagneticFieldStrength": 3,
  "Manufacturer": "Siemens",
  "ManufacturersModelName": "Prisma_fit",
  "MatrixCoilMode": "SENSE",
  "Modality": "MR",
  "MultibandAccelerationFactor": 4,
  "PartialFourier": 1,
  "PatientPosition": "HFS",
  "PercentPhaseFOV": 100,
  "PercentSampling": 100,
  "PhaseEncodingDirection": "j",
  "PhaseEncodingSteps": 104,
  "PhaseResolution": 1,
  "PixelBandwidth": 2290,
  "ProcedureStepDescription": "games^mario",
  "ProtocolName": "func_task-mario_run-02",
  "PulseSequenceDetails": "%CustomerSeq%\\cmrr_mbep2d_bold",
  "ReceiveCoilActiveElements": "HC1-7;NC1,2",
  "ReceiveCoilName": "HeadNeck_64",
  "ReconMatrixPE": 104,
  "RepetitionTime": 1.49,
  "SAR": 0.0496167,
  "ScanOptions": "FS",
  "ScanningSequence": "EP",
  "SequenceName": "epfid2d1_104",
  "SequenceVariant": "SK\\SS",
  "SeriesDescription": "func_task-mario_run-02",
  "SeriesNumber": 14,
  "ShimSetting": [611, -7241, -8840, 374, -8, -326, 41, 35],
  "SliceThickness": 2,
  "SliceTiming": [0, 0.785, 0.1, 0.8825, 0.1975, 0.98, 0.295, 1.0775, 0.3925, 1.1775, 0.49, 1.275, 0.59, 1.3725, 0.6875, 0, 0.785, 0.1, 0.8825, 0.1975, 0.98, 0.295, 1.0775, 0.3925, 1.1775, 0.49, 1.275, 0.59, 1.3725, 0.6875, 0, 0.785, 0.1, 0.8825, 0.1975, 0.98, 0.295, 1.0775, 0.3925, 1.1775, 0.49, 1.275, 0.59, 1.3725, 0.6875, 0, 0.785, 0.1, 0.8825, 0.1975, 0.98, 0.295, 1.0775, 0.3925, 1.1775, 0.49, 1.275, 0.59, 1.3725, 0.6875],
  "SoftwareVersions": "syngo MR E11",
  "SpacingBetweenSlices": 2,
  "StationName": "MRC35049",
  "TaskName": "mario",
  "TotalReadoutTime": 0.0576811,
  "TxRefAmp": 263.584,
  "WipMemBlock": "ce0ba42d-f9f7-45df-b8bb-9b75143a48a0||Sequence: R016 ve11c/master r/e634e98; Dec 19 2017 11:00:25 by eja",
  "dcmmeta_affine": [
    [-1.9994196891784668, 0.048166438937187195, -0.0008743086364120245, 101.57820129394531],
    [0.045248065143823624, 1.8651995658874512, -0.7204049825668335, -64.34913635253906],
    [0.016534291207790375, 0.7202157378196716, 1.8657480478286743, -73.87564086914062],
    [0.0, 0.0, 0.0, 1.0]
],
  "dcmmeta_reorient_transform": [
    [0.0, -1.0, 0.0, 103.0],
    [1.0, 0.0, 0.0, 0.0],
    [0.0, 0.0, 1.0, 0.0],
    [0.0, 0.0, 0.0, 1.0]
],
  "dcmmeta_shape": [104, 104, 60, 477],
  "dcmmeta_slice_dim": 2,
  "dcmmeta_version": 0.6,
  "global": {
    "const": {
      "AcquisitionMatrix": [104, 0, 0, 104],
      "AngioFlag": "N",
      "BitsAllocated": 16,
      "BitsStored": 16,
      "BodyPartExamined": "BRAIN",
      "Columns": 832,
      "EchoNumbers": 1,
      "EchoTime": 37.0,
      "EchoTrainLength": 104,
      "FlipAngle": 52.0,
      "HighBit": 15,
      "ImageOrientationPatient": [0.99970986161963, -0.022624033268, 0.00826714576792, 0.02408321981281, 0.93259976294799, -0.3601078736612],
      "ImagePositionPatient": [-851.86070878959, -790.22874767601, 256.44663453301],
      "ImageType": [
        "ORIGINAL",
        "PRIMARY",
        "P",
        "MB",
        "ND",
        "MOSAIC"
],
      "ImagedNucleus": "1H",
      "ImagingFrequency": 123.258829,
      "InPlanePhaseEncodingDirection": "COL",
      "LargestImagePixelValue": 4095,
      "MRAcquisitionType": "2D",
      "MagneticFieldStrength": 3.0,
      "Manufacturer": "SIEMENS",
      "ManufacturerModelName": "Prisma_fit",
      "Modality": "MR",
      "NumberOfAverages": 1.0,
      "NumberOfPhaseEncodingSteps": 104,
      "PercentPhaseFieldOfView": 100.0,
      "PercentSampling": 100.0,
      "PerformedProcedureStepStartTime": "173150.270000",
      "PhotometricInterpretation": "MONOCHROME2",
      "PixelBandwidth": 2290.0,
      "PixelRepresentation": 0,
      "PixelSpacing": [2.0, 2.0],
      "ProtocolName": "func_task-mario_run-02",
      "RepetitionTime": 1490.0,
      "RescaleIntercept": -4096.0,
      "RescaleSlope": 2.0,
      "RescaleType": "US",
      "Rows": 832,
      "SAR": 0.04961672910479,
      "SamplesPerPixel": 1,
      "ScanOptions": "FS",
      "ScanningSequence": "EP",
      "SequenceName": "epfid2d1_104",
      "SequenceVariant": [
        "SK",
        "SS"
],
      "SeriesDescription": "func_task-mario_run-02",
      "SeriesNumber": 14,
      "SeriesTime": "181333.611000",
      "SliceLocation": -45.782350907571,
      "SliceThickness": 2.0,
      "SmallestImagePixelValue": 0,
      "SoftwareVersions": "syngo MR E11",
      "SpacingBetweenSlices": 1.9999999437031,
      "SpecificCharacterSet": "ISO_IR 100",
      "StudyID": "1",
      "StudyTime": "173150.205000",
      "TransmitCoilName": "Body",
      "VariableFlipAngleFlag": "N",
      "WindowCenterWidthExplanation": "Algo1",
      "dBdt": 0.0},
    "slices": {}
  },
  "time": {
    "samples": {
      "AcquisitionNumber": [1, 2, 3, 4, 5, 6, 7, 8, 9, 10, 11, 12, 13, 14, 15, 16, 17, 18, 19, 20, 21, 22, 23, 24, 25, 26, 27, 28, 29, 30, 31, 32, 33, 34, 35, 36, 37, 38, 39, 40, 41, 42, 43, 44, 45, 46, 47, 48, 49, 50, 51, 52, 53, 54, 55, 56, 57, 58, 59, 60, 61, 62, 63, 64, 65, 66, 67, 68, 69, 70, 71, 72, 73, 74, 75, 76, 77, 78, 79, 80, 81, 82, 83, 84, 85, 86, 87, 88, 89, 90, 91, 92, 93, 94, 95, 96, 97, 98, 99, 100, 101, 102, 103, 104, 105, 106, 107, 108, 109, 110, 111, 112, 113, 114, 115, 116, 117, 118, 119, 120, 121, 122, 123, 124, 125, 126, 127, 128, 129, 130, 131, 132, 133, 134, 135, 136, 137, 138, 139, 140, 141, 142, 143, 144, 145, 146, 147, 148, 149, 150, 151, 152, 153, 154, 155, 156, 157, 158, 159, 160, 161, 162, 163, 164, 165, 166, 167, 168, 169, 170, 171, 172, 173, 174, 175, 176, 177, 178, 179, 180, 181, 182, 183, 184, 185, 186, 187, 188, 189, 190, 191, 192, 193, 194, 195, 196, 197, 198, 199, 200, 201, 202, 203, 204, 205, 206, 207, 208, 209, 210, 211, 212, 213, 214, 215, 216, 217, 218, 219, 220, 221, 222, 223, 224, 225, 226, 227, 228, 229, 230, 231, 232, 233, 234, 235, 236, 237, 238, 239, 240, 241, 242, 243, 244, 245, 246, 247, 248, 249, 250, 251, 252, 253, 254, 255, 256, 257, 258, 259, 260, 261, 262, 263, 264, 265, 266, 267, 268, 269, 270, 271, 272, 273, 274, 275, 276, 277, 278, 279, 280, 281, 282, 283, 284, 285, 286, 287, 288, 289, 290, 291, 292, 293, 294, 295, 296, 297, 298, 299, 300, 301, 302, 303, 304, 305, 306, 307, 308, 309, 310, 311, 312, 313, 314, 315, 316, 317, 318, 319, 320, 321, 322, 323, 324, 325, 326, 327, 328, 329, 330, 331, 332, 333, 334, 335, 336, 337, 338, 339, 340, 341, 342, 343, 344, 345, 346, 347, 348, 349, 350, 351, 352, 353, 354, 355, 356, 357, 358, 359, 360, 361, 362, 363, 364, 365, 366, 367, 368, 369, 370, 371, 372, 373, 374, 375, 376, 377, 378, 379, 380, 381, 382, 383, 384, 385, 386, 387, 388, 389, 390, 391, 392, 393, 394, 395, 396, 397, 398, 399, 400, 401, 402, 403, 404, 405, 406, 407, 408, 409, 410, 411, 412, 413, 414, 415, 416, 417, 418, 419, 420, 421, 422, 423, 424, 425, 426, 427, 428, 429, 430, 431, 432, 433, 434, 435, 436, 437, 438, 439, 440, 441, 442, 443, 444, 445, 446, 447, 448, 449, 450, 451, 452, 453, 454, 455, 456, 457, 458, 459, 460, 461, 462, 463, 464, 465, 466, 467, 468, 469, 470, 471, 472, 473, 474, 475, 476, 477],
      "AcquisitionTime": ["181212.487500", "181213.977500", "181215.467500", "181216.957500", "181218.447500", "181219.937500", "181221.427500", "181222.917500", "181224.407500", "181225.897500", "181227.387500", "181228.877500", "181230.367500", "181231.857500", "181233.347500", "181234.837500", "181236.327500", "181237.817500", "181239.307500", "181240.797500", "181242.287500", "181243.777500", "181245.267500", "181246.757500", "181248.247500", "181249.737500", "181251.227500", "181252.717500", "181254.207500", "181255.697500", "181257.187500", "181258.677500", "181300.167500", "181301.657500", "181303.147500", "181304.637500", "181306.127500", "181307.617500", "181309.107500", "181310.597500", "181312.087500", "181313.577500", "181315.067500", "181316.557500", "181318.047500", "181319.537500", "181321.027500", "181322.517500", "181324.007500", "181325.497500", "181326.987500", "181328.477500", "181329.967500", "181331.457500", "181332.947500", "181334.437500", "181335.927500", "181337.417500", "181338.907500", "181340.397500", "181341.887500", "181343.377500", "181344.867500", "181346.357500", "181347.847500", "181349.337500", "181350.827500", "181352.317500", "181353.807500", "181355.297500", "181356.787500", "181358.277500", "181359.767500", "181401.257500", "181402.747500", "181404.237500", "181405.727500", "181407.217500", "181408.707500", "181410.197500", "181411.687500", "181413.177500", "181414.667500", "181416.157500", "181417.647500", "181419.137500", "181420.627500", "181422.117500", "181423.607500", "181425.097500", "181426.587500", "181428.077500", "181429.567500", "181431.057500", "181432.547500", "181434.037500", "181435.527500", "181437.017500", "181438.507500", "181439.997500", "181441.487500", "181442.977500", "181444.467500", "181445.957500", "181447.447500", "181448.937500", "181450.427500", "181451.917500", "181453.407500", "181454.897500", "181456.387500", "181457.877500", "181459.367500", "181500.857500", "181502.347500", "181503.837500", "181505.327500", "181506.817500", "181508.307500", "181509.797500", "181511.287500", "181512.777500", "181514.267500", "181515.757500", "181517.247500", "181518.737500", "181520.227500", "181521.717500", "181523.207500", "181524.697500", "181526.187500", "181527.677500", "181529.167500", "181530.657500", "181532.147500", "181533.637500", "181535.127500", "181536.617500", "181538.107500", "181539.597500", "181541.087500", "181542.577500", "181544.067500", "181545.557500", "181547.047500", "181548.537500", "181550.027500", "181551.517500", "181553.007500", "181554.497500", "181555.987500", "181557.477500", "181558.967500", "181600.457500", "181601.947500", "181603.437500", "181604.927500", "181606.417500", "181607.907500", "181609.397500", "181610.887500", "181612.377500", "181613.867500", "181615.357500", "181616.847500", "181618.337500", "181619.827500", "181621.317500", "181622.807500", "181624.297500", "181625.787500", "181627.277500", "181628.767500", "181630.257500", "181631.747500", "181633.237500", "181634.727500", "181636.217500", "181637.707500", "181639.197500", "181640.687500", "181642.177500", "181643.667500", "181645.157500", "181646.647500", "181648.137500", "181649.627500", "181651.117500", "181652.607500", "181654.097500", "181655.587500", "181657.077500", "181658.567500", "181700.057500", "181701.547500", "181703.037500", "181704.527500", "181706.017500", "181707.507500", "181708.997500", "181710.487500", "181711.977500", "181713.467500", "181714.957500", "181716.447500", "181717.937500", "181719.427500", "181720.917500", "181722.407500", "181723.897500", "181725.387500", "181726.877500", "181728.367500", "181729.857500", "181731.347500", "181732.837500", "181734.327500", "181735.817500", "181737.307500", "181738.797500", "181740.287500", "181741.777500", "181743.267500", "181744.757500", "181746.247500", "181747.737500", "181749.227500", "181750.717500", "181752.207500", "181753.697500", "181755.187500", "181756.677500", "181758.167500", "181759.657500", "181801.147500", "181802.637500", "181804.127500", "181805.617500", "181807.107500", "181808.597500", "181810.087500", "181811.577500", "181813.067500", "181814.557500", "181816.047500", "181817.537500", "181819.027500", "181820.517500", "181822.007500", "181823.497500", "181824.987500", "181826.477500", "181827.967500", "181829.457500", "181830.947500", "181832.437500", "181833.927500", "181835.417500", "181836.907500", "181838.397500", "181839.887500", "181841.377500", "181842.867500", "181844.357500", "181845.847500", "181847.337500", "181848.827500", "181850.317500", "181851.807500", "181853.297500", "181854.787500", "181856.277500", "181857.767500", "181859.257500", "181900.747500", "181902.237500", "181903.727500", "181905.217500", "181906.707500", "181908.197500", "181909.687500", "181911.177500", "181912.667500", "181914.157500", "181915.647500", "181917.137500", "181918.627500", "181920.117500", "181921.607500", "181923.097500", "181924.587500", "181926.077500", "181927.567500", "181929.057500", "181930.547500", "181932.037500", "181933.527500", "181935.017500", "181936.507500", "181937.997500", "181939.487500", "181940.977500", "181942.467500", "181943.957500", "181945.447500", "181946.937500", "181948.427500", "181949.917500", "181951.407500", "181952.897500", "181954.387500", "181955.877500", "181957.367500", "181958.857500", "182000.347500", "182001.837500", "182003.327500", "182004.817500", "182006.307500", "182007.797500", "182009.287500", "182010.777500", "182012.267500", "182013.757500", "182015.247500", "182016.737500", "182018.227500", "182019.717500", "182021.207500", "182022.697500", "182024.187500", "182025.677500", "182027.167500", "182028.657500", "182030.147500", "182031.637500", "182033.127500", "182034.617500", "182036.107500", "182037.597500", "182039.087500", "182040.577500", "182042.067500", "182043.557500", "182045.047500", "182046.537500", "182048.027500", "182049.517500", "182051.007500", "182052.497500", "182053.987500", "182055.477500", "182056.967500", "182058.457500", "182059.947500", "182101.437500", "182102.927500", "182104.417500", "182105.907500", "182107.397500", "182108.887500", "182110.377500", "182111.867500", "182113.357500", "182114.847500", "182116.337500", "182117.827500", "182119.317500", "182120.807500", "182122.297500", "182123.787500", "182125.277500", "182126.767500", "182128.257500", "182129.747500", "182131.237500", "182132.727500", "182134.217500", "182135.707500", "182137.197500", "182138.687500", "182140.177500", "182141.667500", "182143.157500", "182144.647500", "182146.137500", "182147.627500", "182149.117500", "182150.607500", "182152.097500", "182153.587500", "182155.077500", "182156.567500", "182158.057500", "182159.547500", "182201.037500", "182202.527500", "182204.017500", "182205.507500", "182206.997500", "182208.487500", "182209.977500", "182211.467500", "182212.957500", "182214.447500", "182215.937500", "182217.427500", "182218.917500", "182220.407500", "182221.897500", "182223.387500", "182224.877500", "182226.367500", "182227.857500", "182229.347500", "182230.837500", "182232.327500", "182233.817500", "182235.307500", "182236.797500", "182238.287500", "182239.777500", "182241.267500", "182242.757500", "182244.247500", "182245.737500", "182247.227500", "182248.717500", "182250.207500", "182251.697500", "182253.187500", "182254.677500", "182256.167500", "182257.657500", "182259.147500", "182300.637500", "182302.127500", "182303.617500", "182305.107500", "182306.597500", "182308.087500", "182309.577500", "182311.067500", "182312.557500", "182314.047500", "182315.537500", "182317.027500", "182318.517500", "182320.007500", "182321.497500", "182322.987500", "182324.477500", "182325.967500", "182327.457500", "182328.947500", "182330.437500", "182331.927500", "182333.417500", "182334.907500", "182336.397500", "182337.887500", "182339.377500", "182340.867500", "182342.357500", "182343.847500", "182345.337500", "182346.827500", "182348.317500", "182349.807500", "182351.297500", "182352.787500", "182354.277500", "182355.767500", "182357.257500", "182358.747500", "182400.237500", "182401.727500"],
      "ContentTime": ["181333.613000", "181333.616000", "181333.618000", "181333.620000", "181333.623000", "181333.625000", "181333.628000", "181333.630000", "181333.633000", "181333.635000", "181333.638000", "181333.640000", "181333.643000", "181333.645000", "181333.647000", "181333.650000", "181333.652000", "181333.655000", "181333.657000", "181333.660000", "181333.662000", "181333.665000", "181333.667000", "181333.670000", "181333.672000", "181333.675000", "181333.677000", "181333.679000", "181333.682000", "181353.547000", "181353.550000", "181353.552000", "181353.555000", "181353.557000", "181353.560000", "181353.562000", "181353.565000", "181353.567000", "181353.570000", "181353.572000", "181353.575000", "181353.577000", "181353.579000", "181353.582000", "181353.584000", "181353.587000", "181353.589000", "181353.592000", "181353.594000", "181413.581000", "181413.583000", "181413.586000", "181413.588000", "181413.591000", "181413.593000", "181413.595000", "181413.598000", "181413.600000", "181413.603000", "181413.605000", "181413.608000", "181413.610000", "181413.612000", "181413.615000", "181413.617000", "181413.620000", "181413.622000", "181413.625000", "181413.627000", "181413.629000", "181433.568000", "181433.571000", "181433.573000", "181433.576000", "181433.578000", "181433.580000", "181433.583000", "181433.585000", "181433.588000", "181433.590000", "181433.593000", "181433.595000", "181433.598000", "181433.600000", "181433.603000", "181433.605000", "181433.608000", "181433.610000", "181433.613000", "181433.615000", "181513.583000", "181513.586000", "181513.588000", "181513.591000", "181513.593000", "181513.596000", "181513.598000", "181513.601000", "181513.603000", "181513.606000", "181513.608000", "181513.610000", "181513.613000", "181513.615000", "181513.618000", "181513.620000", "181513.623000", "181513.625000", "181513.628000", "181513.630000", "181513.632000", "181513.635000", "181513.637000", "181513.640000", "181513.642000", "181513.645000", "181513.647000", "181513.649000", "181513.652000", "181513.654000", "181513.657000", "181553.585000", "181553.587000", "181553.590000", "181553.592000", "181553.595000", "181553.597000", "181553.600000", "181553.602000", "181553.605000", "181553.607000", "181553.610000", "181553.612000", "181553.615000", "181553.617000", "181553.620000", "181553.622000", "181553.624000", "181553.627000", "181553.629000", "181553.632000", "181553.634000", "181553.637000", "181553.639000", "181553.642000", "181553.644000", "181553.647000", "181553.649000", "181633.592000", "181633.595000", "181633.597000", "181633.600000", "181633.602000", "181633.604000", "181633.607000", "181633.609000", "181633.612000", "181633.614000", "181633.617000", "181633.620000", "181633.622000", "181633.625000", "181633.627000", "181633.630000", "181633.632000", "181633.635000", "181633.637000", "181633.640000", "181633.642000", "181633.645000", "181633.647000", "181633.650000", "181633.652000", "181633.655000", "181713.583000", "181713.586000", "181713.588000", "181713.591000", "181713.593000", "181713.596000", "181713.598000", "181713.601000", "181713.603000", "181713.606000", "181713.608000", "181713.610000", "181713.613000", "181713.616000", "181713.618000", "181713.620000", "181713.623000", "181713.625000", "181713.628000", "181713.630000", "181713.633000", "181713.635000", "181713.638000", "181713.640000", "181713.643000", "181713.645000", "181713.648000", "181733.513000", "181733.515000", "181733.518000", "181733.520000", "181733.523000", "181733.525000", "181733.528000", "181733.530000", "181733.533000", "181733.535000", "181733.538000", "181733.540000", "181733.542000", "181733.545000", "181813.578000", "181813.581000", "181813.583000", "181813.585000", "181813.588000", "181813.590000", "181813.593000", "181813.595000", "181813.598000", "181813.600000", "181813.603000", "181813.605000", "181813.608000", "181813.610000", "181813.613000", "181813.615000", "181813.618000", "181813.620000", "181813.622000", "181813.625000", "181813.627000", "181813.630000", "181813.632000", "181813.635000", "181813.637000", "181813.640000", "181853.603000", "181853.605000", "181853.608000", "181853.611000", "181853.613000", "181853.616000", "181853.618000", "181853.620000", "181853.623000", "181853.625000", "181853.628000", "181853.630000", "181853.633000", "181853.635000", "181853.638000", "181853.640000", "181853.643000", "181853.645000", "181853.648000", "181853.650000", "181853.653000", "181853.655000", "181853.658000", "181853.660000", "181853.662000", "181853.665000", "181853.667000", "181933.577000", "181933.580000", "181933.582000", "181933.585000", "181933.587000", "181933.590000", "181933.592000", "181933.595000", "181933.597000", "181933.600000", "181933.602000", "181933.604000", "181933.607000", "181933.609000", "181933.612000", "181933.614000", "181933.617000", "181933.619000", "181933.622000", "181933.624000", "181933.627000", "181933.629000", "181933.632000", "181933.634000", "181933.637000", "181933.639000", "181933.642000", "182013.574000", "182013.577000", "182013.579000", "182013.582000", "182013.584000", "182013.587000", "182013.589000", "182013.592000", "182013.594000", "182013.597000", "182013.599000", "182013.602000", "182013.604000", "182013.607000", "182013.609000", "182013.612000", "182013.614000", "182013.616000", "182013.619000", "182013.621000", "182013.624000", "182013.626000", "182013.629000", "182013.631000", "182013.634000", "182013.636000", "182013.638000", "182053.579000", "182053.582000", "182053.585000", "182053.587000", "182053.590000", "182053.592000", "182053.595000", "182053.597000", "182053.600000", "182053.602000", "182053.604000", "182053.607000", "182053.609000", "182053.612000", "182053.614000", "182053.617000", "182053.619000", "182053.622000", "182053.624000", "182053.627000", "182053.629000", "182053.632000", "182053.634000", "182053.636000", "182053.639000", "182053.641000", "182053.644000", "182133.584000", "182133.586000", "182133.589000", "182133.591000", "182133.594000", "182133.596000", "182133.599000", "182133.601000", "182133.604000", "182133.606000", "182133.609000", "182133.611000", "182133.613000", "182133.616000", "182133.618000", "182133.621000", "182133.623000", "182133.626000", "182133.628000", "182133.631000", "182133.633000", "182133.636000", "182133.638000", "182133.641000", "182133.643000", "182133.646000", "182133.648000", "182213.569000", "182213.571000", "182213.574000", "182213.576000", "182213.579000", "182213.581000", "182213.584000", "182213.586000", "182213.589000", "182213.591000", "182213.594000", "182213.596000", "182213.599000", "182213.601000", "182213.604000", "182213.606000", "182213.608000", "182213.611000", "182213.613000", "182213.616000", "182213.618000", "182213.621000", "182213.623000", "182213.626000", "182213.628000", "182213.631000", "182213.633000", "182254.000000", "182254.003000", "182254.005000", "182254.008000", "182254.010000", "182254.013000", "182254.015000", "182254.018000", "182254.020000", "182254.022000", "182254.025000", "182254.027000", "182254.030000", "182254.032000", "182254.035000", "182254.037000", "182254.040000", "182254.042000", "182254.045000", "182254.047000", "182254.050000", "182254.052000", "182254.055000", "182254.057000", "182254.060000", "182254.062000", "182333.591000", "182333.593000", "182333.596000", "182333.598000", "182333.601000", "182333.603000", "182333.606000", "182333.608000", "182333.611000", "182333.613000", "182333.616000", "182333.618000", "182333.621000", "182333.623000", "182333.625000", "182333.628000", "182333.630000", "182333.633000", "182333.635000", "182333.638000", "182333.640000", "182333.643000", "182333.645000", "182333.648000", "182333.650000", "182333.653000", "182333.655000", "182404.536000", "182404.538000", "182404.541000", "182404.543000", "182404.546000", "182404.548000", "182404.551000", "182404.553000", "182404.556000", "182404.558000", "182404.561000", "182404.563000", "182404.566000", "182404.568000", "182404.571000", "182404.573000", "182404.576000", "182404.578000", "182404.581000", "182404.583000", "182404.586000"],
