{
  "AcquisitionMatrixPE": 104,
  "AcquisitionNumber": 1,
  "AcquisitionTime": "17:58:19.125000",
  "BandwidthPerPixelPhaseEncode": 17.17,
  "BaseResolution": 104,
  "BodyPartExamined": "BRAIN",
  "CoilCombinationMethod": "Sum of Squares",
  "ConsistencyInfo": "N4_VE11C_LATEST_20160120",
  "ConversionSoftware": "dcm2niix",
  "ConversionSoftwareVersion": "v1.0.20211006",
  "DerivedVendorReportedEchoSpacing": 0.000560011,
  "DeviceSerialNumber": "167006",
  "DwellTime": 2.1e-06,
  "EchoTime": 0.037,
  "EchoTrainLength": 104,
  "EffectiveEchoSpacing": 0.000560011,
  "FlipAngle": 52,
  "HeudiconvVersion": "0.5.3.post569+g418601f",
  "ImageComments": "Unaliased MB4/PE3/LB",
  "ImageOrientationPatientDICOM": [0.99971, -0.022624, 0.00826715, 0.0240832, 0.9326, -0.360108],
  "ImageOrientationText": "Tra>Cor(-21.1)>Sag(-0.0)",
  "ImageType": [
    "ORIGINAL",
    "PRIMARY",
    "M",
    "MB",
    "ND",
    "MOSAIC"
],
  "ImagingFrequency": 123.259,
  "InPlanePhaseEncodingDirectionDICOM": "COL",
  "InstitutionAddress": "Chemin Queen-Mary 4565,Montreal,District,CA,H3W 1W5",
  "InstitutionName": "IUGM",
  "InstitutionalDepartmentName": "Department",
  "MRAcquisitionType": "2D",
  "MagneticFieldStrength": 3,
  "Manufacturer": "Siemens",
  "ManufacturersModelName": "Prisma_fit",
  "MatrixCoilMode": "SENSE",
  "Modality": "MR",
  "MultibandAccelerationFactor": 4,
  "PartialFourier": 1,
  "PatientPosition": "HFS",
  "PercentPhaseFOV": 100,
  "PercentSampling": 100,
  "PhaseEncodingDirection": "j",
  "PhaseEncodingSteps": 104,
  "PhaseResolution": 1,
  "PixelBandwidth": 2290,
  "ProcedureStepDescription": "games^mario",
  "ProtocolName": "func_task-mario_run-01",
  "PulseSequenceDetails": "%CustomerSeq%\\cmrr_mbep2d_bold",
  "ReceiveCoilActiveElements": "HC1-7;NC1,2",
  "ReceiveCoilName": "HeadNeck_64",
  "ReconMatrixPE": 104,
  "RepetitionTime": 1.49,
  "SAR": 0.0496167,
  "ScanOptions": "FS",
  "ScanningSequence": "EP",
  "SequenceName": "epfid2d1_104",
  "SequenceVariant": "SK\\SS",
  "SeriesDescription": "func_task-mario_run-01",
  "SeriesNumber": 10,
  "ShimSetting": [611, -7241, -8840, 374, -8, -326, 41, 35],
  "SliceThickness": 2,
  "SliceTiming": [0, 0.785, 0.0975, 0.8825, 0.195, 0.98, 0.295, 1.0775, 0.3925, 1.175, 0.49, 1.275, 0.5875, 1.3725, 0.685, 0, 0.785, 0.0975, 0.8825, 0.195, 0.98, 0.295, 1.0775, 0.3925, 1.175, 0.49, 1.275, 0.5875, 1.3725, 0.685, 0, 0.785, 0.0975, 0.8825, 0.195, 0.98, 0.295, 1.0775, 0.3925, 1.175, 0.49, 1.275, 0.5875, 1.3725, 0.685, 0, 0.785, 0.0975, 0.8825, 0.195, 0.98, 0.295, 1.0775, 0.3925, 1.175, 0.49, 1.275, 0.5875, 1.3725, 0.685],
  "SoftwareVersions": "syngo MR E11",
  "SpacingBetweenSlices": 2,
  "StationName": "MRC35049",
  "TaskName": "mario",
  "TotalReadoutTime": 0.0576811,
  "TxRefAmp": 263.584,
  "WipMemBlock": "437c6dc0-0e59-42d3-b1e1-b203d3803711||Sequence: R016 ve11c/master r/e634e98; Dec 19 2017 11:00:25 by eja",
  "dcmmeta_affine": [
    [-1.9994196891784668, 0.048166438937187195, -0.0008743086364120245, 101.57820129394531],
    [0.045248065143823624, 1.8651995658874512, -0.7204049825668335, -64.34913635253906],
    [0.016534291207790375, 0.7202157378196716, 1.8657480478286743, -73.87564086914062],
    [0.0, 0.0, 0.0, 1.0]
],
  "dcmmeta_reorient_transform": [
    [0.0, -1.0, 0.0, 103.0],
    [1.0, 0.0, 0.0, 0.0],
    [0.0, 0.0, 1.0, 0.0],
    [0.0, 0.0, 0.0, 1.0]
],
  "dcmmeta_shape": [104, 104, 60, 497],
  "dcmmeta_slice_dim": 2,
  "dcmmeta_version": 0.6,
  "global": {
    "const": {
      "AcquisitionMatrix": [104, 0, 0, 104],
      "AngioFlag": "N",
      "BitsAllocated": 16,
      "BitsStored": 16,
      "BodyPartExamined": "BRAIN",
      "Columns": 832,
      "EchoNumbers": 1,
      "EchoTime": 37.0,
      "EchoTrainLength": 104,
      "FlipAngle": 52.0,
      "HighBit": 15,
      "ImageOrientationPatient": [0.99970986161963, -0.022624033268, 0.00826714576792, 0.02408321981281, 0.93259976294799, -0.3601078736612],
      "ImagePositionPatient": [-851.86070878959, -790.22874767601, 256.44663453301],
      "ImageType": [
        "ORIGINAL",
        "PRIMARY",
        "M",
        "MB",
        "ND",
        "MOSAIC"
],
      "ImagedNucleus": "1H",
      "ImagingFrequency": 123.25882,
      "InPlanePhaseEncodingDirection": "COL",
      "MRAcquisitionType": "2D",
      "MagneticFieldStrength": 3.0,
      "Manufacturer": "SIEMENS",
      "ManufacturerModelName": "Prisma_fit",
      "Modality": "MR",
      "NumberOfAverages": 1.0,
      "NumberOfPhaseEncodingSteps": 104,
      "PercentPhaseFieldOfView": 100.0,
      "PercentSampling": 100.0,
      "PerformedProcedureStepStartTime": "173150.270000",
      "PhotometricInterpretation": "MONOCHROME2",
      "PixelBandwidth": 2290.0,
      "PixelRepresentation": 0,
      "PixelSpacing": [2.0, 2.0],
      "ProtocolName": "func_task-mario_run-01",
      "RepetitionTime": 1490.0,
      "Rows": 832,
      "SAR": 0.04961672910479,
      "SamplesPerPixel": 1,
      "ScanOptions": "FS",
      "ScanningSequence": "EP",
      "SequenceName": "epfid2d1_104",
      "SequenceVariant": [
        "SK",
        "SS"
],
      "SeriesDescription": "func_task-mario_run-01",
      "SeriesNumber": 10,
      "SeriesTime": "175931.301000",
      "SliceLocation": -45.782350907571,
      "SliceThickness": 2.0,
      "SmallestImagePixelValue": 0,
      "SoftwareVersions": "syngo MR E11",
      "SpacingBetweenSlices": 1.9999999437031,
      "SpecificCharacterSet": "ISO_IR 100",
      "StudyID": "1",
      "StudyTime": "173150.205000",
      "TransmitCoilName": "Body",
      "VariableFlipAngleFlag": "N",
      "WindowCenterWidthExplanation": "Algo1",
      "dBdt": 0.0},
    "slices": {}
  },
  "time": {
    "samples": {
      "AcquisitionNumber": [1, 2, 3, 4, 5, 6, 7, 8, 9, 10, 11, 12, 13, 14, 15, 16, 17, 18, 19, 20, 21, 22, 23, 24, 25, 26, 27, 28, 29, 30, 31, 32, 33, 34, 35, 36, 37, 38, 39, 40, 41, 42, 43, 44, 45, 46, 47, 48, 49, 50, 51, 52, 53, 54, 55, 56, 57, 58, 59, 60, 61, 62, 63, 64, 65, 66, 67, 68, 69, 70, 71, 72, 73, 74, 75, 76, 77, 78, 79, 80, 81, 82, 83, 84, 85, 86, 87, 88, 89, 90, 91, 92, 93, 94, 95, 96, 97, 98, 99, 100, 101, 102, 103, 104, 105, 106, 107, 108, 109, 110, 111, 112, 113, 114, 115, 116, 117, 118, 119, 120, 121, 122, 123, 124, 125, 126, 127, 128, 129, 130, 131, 132, 133, 134, 135, 136, 137, 138, 139, 140, 141, 142, 143, 144, 145, 146, 147, 148, 149, 150, 151, 152, 153, 154, 155, 156, 157, 158, 159, 160, 161, 162, 163, 164, 165, 166, 167, 168, 169, 170, 171, 172, 173, 174, 175, 176, 177, 178, 179, 180, 181, 182, 183, 184, 185, 186, 187, 188, 189, 190, 191, 192, 193, 194, 195, 196, 197, 198, 199, 200, 201, 202, 203, 204, 205, 206, 207, 208, 209, 210, 211, 212, 213, 214, 215, 216, 217, 218, 219, 220, 221, 222, 223, 224, 225, 226, 227, 228, 229, 230, 231, 232, 233, 234, 235, 236, 237, 238, 239, 240, 241, 242, 243, 244, 245, 246, 247, 248, 249, 250, 251, 252, 253, 254, 255, 256, 257, 258, 259, 260, 261, 262, 263, 264, 265, 266, 267, 268, 269, 270, 271, 272, 273, 274, 275, 276, 277, 278, 279, 280, 281, 282, 283, 284, 285, 286, 287, 288, 289, 290, 291, 292, 293, 294, 295, 296, 297, 298, 299, 300, 301, 302, 303, 304, 305, 306, 307, 308, 309, 310, 311, 312, 313, 314, 315, 316, 317, 318, 319, 320, 321, 322, 323, 324, 325, 326, 327, 328, 329, 330, 331, 332, 333, 334, 335, 336, 337, 338, 339, 340, 341, 342, 343, 344, 345, 346, 347, 348, 349, 350, 351, 352, 353, 354, 355, 356, 357, 358, 359, 360, 361, 362, 363, 364, 365, 366, 367, 368, 369, 370, 371, 372, 373, 374, 375, 376, 377, 378, 379, 380, 381, 382, 383, 384, 385, 386, 387, 388, 389, 390, 391, 392, 393, 394, 395, 396, 397, 398, 399, 400, 401, 402, 403, 404, 405, 406, 407, 408, 409, 410, 411, 412, 413, 414, 415, 416, 417, 418, 419, 420, 421, 422, 423, 424, 425, 426, 427, 428, 429, 430, 431, 432, 433, 434, 435, 436, 437, 438, 439, 440, 441, 442, 443, 444, 445, 446, 447, 448, 449, 450, 451, 452, 453, 454, 455, 456, 457, 458, 459, 460, 461, 462, 463, 464, 465, 466, 467, 468, 469, 470, 471, 472, 473, 474, 475, 476, 477, 478, 479, 480, 481, 482, 483, 484, 485, 486, 487, 488, 489, 490, 491, 492, 493, 494, 495, 496, 497],
      "AcquisitionTime": ["175819.125000", "175820.615000", "175822.105000", "175823.595000", "175825.085000", "175826.575000", "175828.065000", "175829.555000", "175831.045000", "175832.535000", "175834.025000", "175835.515000", "175837.005000", "175838.495000", "175839.985000", "175841.475000", "175842.965000", "175844.455000", "175845.945000", "175847.435000", "175848.925000", "175850.415000", "175851.905000", "175853.395000", "175854.885000", "175856.375000", "175857.865000", "175859.355000", "175900.845000", "175902.335000", "175903.825000", "175905.315000", "175906.805000", "175908.295000", "175909.785000", "175911.275000", "175912.765000", "175914.255000", "175915.745000", "175917.235000", "175918.725000", "175920.215000", "175921.705000", "175923.195000", "175924.685000", "175926.175000", "175927.665000", "175929.155000", "175930.645000", "175932.135000", "175933.625000", "175935.115000", "175936.605000", "175938.095000", "175939.585000", "175941.075000", "175942.565000", "175944.055000", "175945.545000", "175947.035000", "175948.525000", "175950.015000", "175951.505000", "175952.995000", "175954.485000", "175955.975000", "175957.465000", "175958.955000", "180000.445000", "180001.935000", "180003.425000", "180004.915000", "180006.405000", "180007.895000", "180009.385000", "180010.875000", "180012.365000", "180013.855000", "180015.345000", "180016.835000", "180018.325000", "180019.815000", "180021.305000", "180022.795000", "180024.285000", "180025.775000", "180027.265000", "180028.755000", "180030.245000", "180031.735000", "180033.225000", "180034.715000", "180036.205000", "180037.695000", "180039.185000", "180040.675000", "180042.165000", "180043.655000", "180045.145000", "180046.635000", "180048.125000", "180049.615000", "180051.105000", "180052.595000", "180054.085000", "180055.575000", "180057.065000", "180058.555000", "180100.045000", "180101.535000", "180103.025000", "180104.515000", "180106.005000", "180107.495000", "180108.985000", "180110.475000", "180111.965000", "180113.455000", "180114.945000", "180116.435000", "180117.925000", "180119.415000", "180120.905000", "180122.395000", "180123.885000", "180125.375000", "180126.865000", "180128.355000", "180129.845000", "180131.335000", "180132.825000", "180134.315000", "180135.805000", "180137.295000", "180138.785000", "180140.275000", "180141.765000", "180143.255000", "180144.745000", "180146.235000", "180147.725000", "180149.215000", "180150.705000", "180152.195000", "180153.685000", "180155.175000", "180156.665000", "180158.155000", "180159.645000", "180201.135000", "180202.625000", "180204.115000", "180205.605000", "180207.095000", "180208.585000", "180210.075000", "180211.565000", "180213.055000", "180214.545000", "180216.035000", "180217.525000", "180219.015000", "180220.505000", "180221.995000", "180223.485000", "180224.975000", "180226.465000", "180227.955000", "180229.445000", "180230.935000", "180232.425000", "180233.915000", "180235.405000", "180236.895000", "180238.385000", "180239.875000", "180241.365000", "180242.855000", "180244.345000", "180245.835000", "180247.325000", "180248.815000", "180250.305000", "180251.795000", "180253.285000", "180254.775000", "180256.265000", "180257.755000", "180259.245000", "180300.735000", "180302.225000", "180303.715000", "180305.205000", "180306.695000", "180308.185000", "180309.675000", "180311.165000", "180312.655000", "180314.145000", "180315.635000", "180317.125000", "180318.615000", "180320.105000", "180321.595000", "180323.085000", "180324.575000", "180326.065000", "180327.555000", "180329.045000", "180330.535000", "180332.025000", "180333.515000", "180335.005000", "180336.495000", "180337.985000", "180339.475000", "180340.965000", "180342.455000", "180343.945000", "180345.435000", "180346.925000", "180348.415000", "180349.905000", "180351.395000", "180352.885000", "180354.375000", "180355.865000", "180357.355000", "180358.845000", "180400.335000", "180401.825000", "180403.315000", "180404.805000", "180406.295000", "180407.785000", "180409.275000", "180410.765000", "180412.255000", "180413.745000", "180415.235000", "180416.725000", "180418.215000", "180419.705000", "180421.195000", "180422.685000", "180424.175000", "180425.665000", "180427.155000", "180428.645000", "180430.135000", "180431.625000", "180433.115000", "180434.605000", "180436.095000", "180437.585000", "180439.075000", "180440.565000", "180442.055000", "180443.545000", "180445.035000", "180446.525000", "180448.015000", "180449.505000", "180450.995000", "180452.485000", "180453.975000", "180455.465000", "180456.955000", "180458.445000", "180459.935000", "180501.425000", "180502.915000", "180504.405000", "180505.895000", "180507.385000", "180508.875000", "180510.365000", "180511.855000", "180513.345000", "180514.835000", "180516.325000", "180517.815000", "180519.305000", "180520.795000", "180522.285000", "180523.775000", "180525.265000", "180526.755000", "180528.245000", "180529.735000", "180531.225000", "180532.715000", "180534.205000", "180535.695000", "180537.185000", "180538.675000", "180540.165000", "180541.655000", "180543.145000", "180544.635000", "180546.125000", "180547.615000", "180549.105000", "180550.595000", "180552.085000", "180553.575000", "180555.065000", "180556.555000", "180558.045000", "180559.535000", "180601.025000", "180602.515000", "180604.005000", "180605.495000", "180606.985000", "180608.475000", "180609.965000", "180611.455000", "180612.945000", "180614.435000", "180615.925000", "180617.415000", "180618.905000", "180620.395000", "180621.885000", "180623.375000", "180624.865000", "180626.355000", "180627.845000", "180629.335000", "180630.825000", "180632.315000", "180633.805000", "180635.295000", "180636.785000", "180638.275000", "180639.765000", "180641.255000", "180642.745000", "180644.235000", "180645.725000", "180647.215000", "180648.705000", "180650.195000", "180651.685000", "180653.175000", "180654.665000", "180656.155000", "180657.645000", "180659.135000", "180700.625000", "180702.115000", "180703.605000", "180705.095000", "180706.585000", "180708.075000", "180709.565000", "180711.055000", "180712.545000", "180714.035000", "180715.525000", "180717.015000", "180718.505000", "180719.995000", "180721.485000", "180722.975000", "180724.465000", "180725.955000", "180727.445000", "180728.935000", "180730.425000", "180731.915000", "180733.405000", "180734.895000", "180736.385000", "180737.875000", "180739.365000", "180740.855000", "180742.345000", "180743.835000", "180745.325000", "180746.815000", "180748.305000", "180749.795000", "180751.285000", "180752.775000", "180754.265000", "180755.755000", "180757.245000", "180758.735000", "180800.225000", "180801.715000", "180803.205000", "180804.695000", "180806.185000", "180807.675000", "180809.165000", "180810.655000", "180812.145000", "180813.635000", "180815.125000", "180816.615000", "180818.105000", "180819.595000", "180821.085000", "180822.575000", "180824.065000", "180825.555000", "180827.045000", "180828.535000", "180830.025000", "180831.515000", "180833.005000", "180834.495000", "180835.985000", "180837.475000", "180838.965000", "180840.455000", "180841.945000", "180843.435000", "180844.925000", "180846.415000", "180847.905000", "180849.395000", "180850.885000", "180852.375000", "180853.865000", "180855.355000", "180856.845000", "180858.335000", "180859.825000", "180901.315000", "180902.805000", "180904.295000", "180905.785000", "180907.275000", "180908.765000", "180910.255000", "180911.745000", "180913.235000", "180914.725000", "180916.215000", "180917.705000", "180919.195000", "180920.685000", "180922.175000", "180923.665000", "180925.155000", "180926.645000", "180928.135000", "180929.625000", "180931.115000", "180932.605000", "180934.095000", "180935.585000", "180937.075000", "180938.565000", "180940.055000", "180941.545000", "180943.035000", "180944.525000", "180946.015000", "180947.505000", "180948.995000", "180950.485000", "180951.975000", "180953.465000", "180954.955000", "180956.445000", "180957.935000", "180959.425000", "181000.915000", "181002.405000", "181003.895000", "181005.385000", "181006.875000", "181008.365000", "181009.855000", "181011.345000", "181012.835000", "181014.325000", "181015.815000", "181017.305000", "181018.795000", "181020.285000", "181021.775000", "181023.265000", "181024.755000", "181026.245000", "181027.735000", "181029.225000", "181030.715000", "181032.205000", "181033.695000", "181035.185000", "181036.675000", "181038.165000"],
      "ContentTime": ["175931.304000", "175931.308000", "175931.311000", "175931.314000", "175931.318000", "175931.321000", "175931.330000", "175931.333000", "175931.336000", "175931.340000", "175931.343000", "175931.346000", "175931.349000", "175931.353000", "175931.356000", "175931.359000", "175931.362000", "175931.366000", "180011.256000", "180011.260000", "180011.263000", "180011.266000", "180011.269000", "180011.273000", "180011.276000", "180011.279000", "180011.283000", "180011.286000", "180011.289000", "180011.292000", "180011.296000", "180011.299000", "180011.302000", "180011.305000", "180011.309000", "180011.312000", "180011.315000", "180011.327000", "180011.331000", "180011.334000", "180011.337000", "180011.340000", "180011.344000", "180011.347000", "180011.350000", "180011.353000", "180011.357000", "180011.360000", "180011.363000", "180011.366000", "180011.370000", "180011.373000", "180011.376000", "180011.379000", "180011.383000", "180011.386000", "180011.389000", "180031.255000", "180031.259000", "180031.262000", "180031.265000", "180031.268000", "180031.272000", "180031.275000", "180031.278000", "180031.281000", "180031.285000", "180031.288000", "180031.291000", "180031.294000", "180031.298000", "180031.301000", "180031.304000", "180031.307000", "180031.310000", "180031.314000", "180031.317000", "180031.320000", "180051.255000", "180051.259000", "180051.262000", "180051.265000", "180051.268000", "180051.272000", "180051.275000", "180051.278000", "180051.282000", "180051.285000", "180051.288000", "180051.291000", "180051.295000", "180051.298000", "180051.301000", "180051.304000", "180051.308000", "180051.311000", "180051.314000", "180051.317000", "180131.256000", "180131.260000", "180131.263000", "180131.266000", "180131.270000", "180131.273000", "180131.276000", "180131.279000", "180131.294000", "180131.298000", "180131.301000", "180131.304000", "180131.307000", "180131.311000", "180131.314000", "180131.317000", "180131.320000", "180131.324000", "180131.327000", "180131.330000", "180131.333000", "180131.337000", "180131.340000", "180131.343000", "180131.347000", "180131.350000", "180131.353000", "180131.356000", "180131.359000", "180131.363000", "180211.256000", "180211.260000", "180211.263000", "180211.266000", "180211.270000", "180211.273000", "180211.276000", "180211.279000", "180211.283000", "180211.286000", "180211.289000", "180211.292000", "180211.296000", "180211.299000", "180211.302000", "180211.305000", "180211.309000", "180211.312000", "180211.316000", "180211.319000", "180211.322000", "180211.325000", "180211.329000", "180211.332000", "180211.335000", "180211.339000", "180211.342000", "180251.255000", "180251.259000", "180251.262000", "180251.266000", "180251.269000", "180251.272000", "180251.275000", "180251.279000", "180251.282000", "180251.285000", "180251.288000", "180251.291000", "180251.295000", "180251.298000", "180251.301000", "180251.304000", "180251.308000", "180251.311000", "180251.314000", "180251.317000", "180251.321000", "180251.324000", "180251.327000", "180251.330000", "180251.334000", "180251.337000", "180251.340000", "180331.256000", "180331.260000", "180331.263000", "180331.266000", "180331.269000", "180331.273000", "180331.276000", "180331.279000", "180331.283000", "180331.286000", "180331.289000", "180331.292000", "180331.296000", "180331.299000", "180331.302000", "180331.305000", "180331.309000", "180331.312000", "180331.315000", "180331.318000", "180331.322000", "180331.325000", "180331.328000", "180331.331000", "180331.335000", "180331.338000", "180331.341000", "180411.256000", "180411.260000", "180411.263000", "180411.266000", "180411.270000", "180411.273000", "180411.276000", "180411.279000", "180411.283000", "180411.286000", "180411.289000", "180411.292000", "180411.296000", "180411.300000", "180411.303000", "180411.306000", "180411.309000", "180411.313000", "180411.316000", "180411.319000", "180411.323000", "180411.326000", "180411.329000", "180411.332000", "180411.336000", "180411.339000", "180451.256000", "180451.260000", "180451.263000", "180451.266000", "180451.270000", "180451.273000", "180451.276000", "180451.280000", "180451.283000", "180451.286000", "180451.289000", "180451.293000", "180451.296000", "180451.299000", "180451.302000", "180451.306000", "180451.309000", "180451.312000", "180451.315000", "180451.319000", "180451.322000", "180451.325000", "180451.329000", "180451.332000", "180451.335000", "180451.338000", "180451.342000", "180531.255000", "180531.259000", "180531.262000", "180531.265000", "180531.269000", "180531.272000", "180531.275000", "180531.278000", "180531.282000", "180531.285000", "180531.288000", "180531.291000", "180531.294000", "180531.298000", "180531.301000", "180531.304000", "180531.307000", "180531.311000", "180531.314000", "180531.317000", "180531.321000", "180531.324000", "180531.327000", "180531.331000", "180531.334000", "180531.337000", "180531.340000", "180611.256000", "180611.260000", "180611.263000", "180611.266000", "180611.270000", "180611.273000", "180611.276000", "180611.280000", "180611.283000", "180611.286000", "180611.289000", "180611.310000", "180611.313000", "180611.316000", "180611.319000", "180611.323000", "180611.326000", "180611.329000", "180611.332000", "180611.336000", "180611.339000", "180611.342000", "180611.345000", "180611.349000", "180611.352000", "180611.355000", "180611.359000", "180651.256000", "180651.260000", "180651.263000", "180651.266000", "180651.270000", "180651.273000", "180651.276000", "180651.280000", "180651.283000", "180651.286000", "180651.289000", "180651.293000", "180651.296000", "180651.299000", "180651.302000", "180651.305000", "180651.309000", "180651.312000", "180651.322000", "180651.325000", "180651.328000", "180651.331000", "180651.335000", "180651.338000", "180651.341000", "180651.344000", "180651.348000", "180731.255000", "180731.259000", "180731.262000", "180731.265000", "180731.269000", "180731.272000", "180731.275000", "180731.279000", "180731.282000", "180731.285000", "180731.288000", "180731.292000", "180731.295000", "180731.298000", "180731.301000", "180731.305000", "180731.308000", "180731.311000", "180731.314000", "180731.318000", "180731.321000", "180731.324000", "180731.327000", "180731.331000", "180731.334000", "180731.337000", "180731.340000", "180811.256000", "180811.260000", "180811.263000", "180811.266000", "180811.270000", "180811.273000", "180811.276000", "180811.280000", "180811.283000", "180811.286000", "180811.289000", "180811.292000", "180811.296000", "180811.299000", "180811.302000", "180811.307000", "180811.310000", "180811.314000", "180811.317000", "180811.320000", "180811.324000", "180811.327000", "180811.330000", "180811.334000", "180811.337000", "180811.340000", "180851.256000", "180851.260000", "180851.263000", "180851.266000", "180851.270000", "180851.273000", "180851.276000", "180851.280000", "180851.283000", "180851.286000", "180851.289000", "180851.293000", "180851.296000", "180851.299000", "180851.303000", "180851.306000", "180851.309000", "180851.312000", "180851.316000", "180851.319000", "180851.322000", "180851.325000", "180851.329000", "180851.332000", "180851.335000", "180851.338000", "180851.342000", "180931.256000", "180931.260000", "180931.263000", "180931.266000", "180931.269000", "180931.273000", "180931.276000", "180931.279000", "180931.282000", "180931.286000", "180931.289000", "180931.292000", "180931.295000", "180931.299000", "180931.302000", "180931.305000", "180931.309000", "180931.312000", "180931.315000", "180931.318000", "180931.322000", "180931.325000", "180931.328000", "180931.331000", "180931.335000", "180931.338000", "180931.341000", "181011.255000", "181011.259000", "181011.262000", "181011.265000", "181011.269000", "181011.272000", "181011.275000", "181011.279000", "181011.282000", "181011.285000", "181011.288000", "181011.292000", "181011.295000", "181011.298000", "181011.301000", "181011.305000", "181011.308000", "181011.311000", "181011.314000", "181011.318000", "181011.321000", "181011.324000", "181011.327000", "181011.331000", "181011.334000", "181011.337000", "181011.341000", "181040.939000", "181040.943000", "181040.946000", "181040.958000", "181040.962000", "181040.965000", "181040.968000", "181040.972000", "181040.975000", "181040.978000", "181040.982000", "181040.985000", "181040.988000", "181040.991000", "181040.995000", "181040.998000", "181041.002000", "181041.005000", "181041.009000", "181041.012000"],
