{
  "AcquisitionMatrixPE": 104,
  "AcquisitionNumber": 1,
  "AcquisitionTime": "18:25:28.865000",
  "BandwidthPerPixelPhaseEncode": 17.17,
  "BaseResolution": 104,
  "BodyPartExamined": "BRAIN",
  "CoilCombinationMethod": "Sum of Squares",
  "ConsistencyInfo": "N4_VE11C_LATEST_20160120",
  "ConversionSoftware": "dcm2niix",
  "ConversionSoftwareVersion": "v1.0.20211006",
  "DerivedVendorReportedEchoSpacing": 0.000560011,
  "DeviceSerialNumber": "167006",
  "DwellTime": 2.1e-06,
  "EchoTime": 0.037,
  "EchoTrainLength": 104,
  "EffectiveEchoSpacing": 0.000560011,
  "FlipAngle": 52,
  "HeudiconvVersion": "0.5.3.post569+g418601f",
  "ImageComments": "Unaliased MB4/PE3/LB",
  "ImageOrientationPatientDICOM": [0.99971, -0.022624, 0.00826715, 0.0240832, 0.9326, -0.360108],
  "ImageOrientationText": "Tra>Cor(-21.1)>Sag(-0.0)",
  "ImageType": [
    "ORIGINAL",
    "PRIMARY",
    "M",
    "MB",
    "ND",
    "MOSAIC"
],
  "ImagingFrequency": 123.259,
  "InPlanePhaseEncodingDirectionDICOM": "COL",
  "InstitutionAddress": "Chemin Queen-Mary 4565,Montreal,District,CA,H3W 1W5",
  "InstitutionName": "IUGM",
  "InstitutionalDepartmentName": "Department",
  "MRAcquisitionType": "2D",
  "MagneticFieldStrength": 3,
  "Manufacturer": "Siemens",
  "ManufacturersModelName": "Prisma_fit",
  "MatrixCoilMode": "SENSE",
  "Modality": "MR",
  "MultibandAccelerationFactor": 4,
  "PartialFourier": 1,
  "PatientPosition": "HFS",
  "PercentPhaseFOV": 100,
  "PercentSampling": 100,
  "PhaseEncodingDirection": "j",
  "PhaseEncodingSteps": 104,
  "PhaseResolution": 1,
  "PixelBandwidth": 2290,
  "ProcedureStepDescription": "games^mario",
  "ProtocolName": "func_task-mario_run-03",
  "PulseSequenceDetails": "%CustomerSeq%\\cmrr_mbep2d_bold",
  "ReceiveCoilActiveElements": "HC1-7;NC1,2",
  "ReceiveCoilName": "HeadNeck_64",
  "ReconMatrixPE": 104,
  "RepetitionTime": 1.49,
  "SAR": 0.0496167,
  "ScanOptions": "FS",
  "ScanningSequence": "EP",
  "SequenceName": "epfid2d1_104",
  "SequenceVariant": "SK\\SS",
  "SeriesDescription": "func_task-mario_run-03",
  "SeriesNumber": 16,
  "ShimSetting": [611, -7241, -8840, 374, -8, -326, 41, 35],
  "SliceThickness": 2,
  "SliceTiming": [0, 0.7825, 0.0975, 0.88, 0.195, 0.98, 0.2925, 1.0775, 0.39, 1.175, 0.49, 1.2725, 0.5875, 1.37, 0.685, 0, 0.7825, 0.0975, 0.88, 0.195, 0.98, 0.2925, 1.0775, 0.39, 1.175, 0.49, 1.2725, 0.5875, 1.37, 0.685, 0, 0.7825, 0.0975, 0.88, 0.195, 0.98, 0.2925, 1.0775, 0.39, 1.175, 0.49, 1.2725, 0.5875, 1.37, 0.685, 0, 0.7825, 0.0975, 0.88, 0.195, 0.98, 0.2925, 1.0775, 0.39, 1.175, 0.49, 1.2725, 0.5875, 1.37, 0.685],
  "SoftwareVersions": "syngo MR E11",
  "SpacingBetweenSlices": 2,
  "StationName": "MRC35049",
  "TaskName": "mario",
  "TotalReadoutTime": 0.0576811,
  "TxRefAmp": 263.584,
  "WipMemBlock": "51e905ac-580f-45c8-9725-d581c8ddbe27||Sequence: R016 ve11c/master r/e634e98; Dec 19 2017 11:00:25 by eja",
  "dcmmeta_affine": [
    [-1.9994196891784668, 0.048166438937187195, -0.0008743086364120245, 101.57820129394531],
    [0.045248065143823624, 1.8651995658874512, -0.7204049825668335, -64.34913635253906],
    [0.016534291207790375, 0.7202157378196716, 1.8657480478286743, -73.87564086914062],
    [0.0, 0.0, 0.0, 1.0]
],
  "dcmmeta_reorient_transform": [
    [0.0, -1.0, 0.0, 103.0],
    [1.0, 0.0, 0.0, 0.0],
    [0.0, 0.0, 1.0, 0.0],
    [0.0, 0.0, 0.0, 1.0]
],
  "dcmmeta_shape": [104, 104, 60, 459],
  "dcmmeta_slice_dim": 2,
  "dcmmeta_version": 0.6,
  "global": {
    "const": {
      "AcquisitionMatrix": [104, 0, 0, 104],
      "AngioFlag": "N",
      "BitsAllocated": 16,
      "BitsStored": 16,
      "BodyPartExamined": "BRAIN",
      "Columns": 832,
      "EchoNumbers": 1,
      "EchoTime": 37.0,
      "EchoTrainLength": 104,
      "FlipAngle": 52.0,
      "HighBit": 15,
      "ImageOrientationPatient": [0.99970986161963, -0.022624033268, 0.00826714576792, 0.02408321981281, 0.93259976294799, -0.3601078736612],
      "ImagePositionPatient": [-851.86070878959, -790.22874767601, 256.44663453301],
      "ImageType": [
        "ORIGINAL",
        "PRIMARY",
        "M",
        "MB",
        "ND",
        "MOSAIC"
],
      "ImagedNucleus": "1H",
      "ImagingFrequency": 123.258832,
      "InPlanePhaseEncodingDirection": "COL",
      "MRAcquisitionType": "2D",
      "MagneticFieldStrength": 3.0,
      "Manufacturer": "SIEMENS",
      "ManufacturerModelName": "Prisma_fit",
      "Modality": "MR",
      "NumberOfAverages": 1.0,
      "NumberOfPhaseEncodingSteps": 104,
      "PercentPhaseFieldOfView": 100.0,
      "PercentSampling": 100.0,
      "PerformedProcedureStepStartTime": "173150.270000",
      "PhotometricInterpretation": "MONOCHROME2",
      "PixelBandwidth": 2290.0,
      "PixelRepresentation": 0,
      "PixelSpacing": [2.0, 2.0],
      "ProtocolName": "func_task-mario_run-03",
      "RepetitionTime": 1490.0,
      "Rows": 832,
      "SAR": 0.04961672910479,
      "SamplesPerPixel": 1,
      "ScanOptions": "FS",
      "ScanningSequence": "EP",
      "SequenceName": "epfid2d1_104",
      "SequenceVariant": [
        "SK",
        "SS"
],
      "SeriesDescription": "func_task-mario_run-03",
      "SeriesNumber": 16,
      "SeriesTime": "182643.638000",
      "SliceLocation": -45.782350907571,
      "SliceThickness": 2.0,
      "SmallestImagePixelValue": 0,
      "SoftwareVersions": "syngo MR E11",
      "SpacingBetweenSlices": 1.9999999437031,
      "SpecificCharacterSet": "ISO_IR 100",
      "StudyID": "1",
      "StudyTime": "173150.205000",
      "TransmitCoilName": "Body",
      "VariableFlipAngleFlag": "N",
      "WindowCenterWidthExplanation": "Algo1",
      "dBdt": 0.0},
    "slices": {}
  },
  "time": {
    "samples": {
      "AcquisitionNumber": [1, 2, 3, 4, 5, 6, 7, 8, 9, 10, 11, 12, 13, 14, 15, 16, 17, 18, 19, 20, 21, 22, 23, 24, 25, 26, 27, 28, 29, 30, 31, 32, 33, 34, 35, 36, 37, 38, 39, 40, 41, 42, 43, 44, 45, 46, 47, 48, 49, 50, 51, 52, 53, 54, 55, 56, 57, 58, 59, 60, 61, 62, 63, 64, 65, 66, 67, 68, 69, 70, 71, 72, 73, 74, 75, 76, 77, 78, 79, 80, 81, 82, 83, 84, 85, 86, 87, 88, 89, 90, 91, 92, 93, 94, 95, 96, 97, 98, 99, 100, 101, 102, 103, 104, 105, 106, 107, 108, 109, 110, 111, 112, 113, 114, 115, 116, 117, 118, 119, 120, 121, 122, 123, 124, 125, 126, 127, 128, 129, 130, 131, 132, 133, 134, 135, 136, 137, 138, 139, 140, 141, 142, 143, 144, 145, 146, 147, 148, 149, 150, 151, 152, 153, 154, 155, 156, 157, 158, 159, 160, 161, 162, 163, 164, 165, 166, 167, 168, 169, 170, 171, 172, 173, 174, 175, 176, 177, 178, 179, 180, 181, 182, 183, 184, 185, 186, 187, 188, 189, 190, 191, 192, 193, 194, 195, 196, 197, 198, 199, 200, 201, 202, 203, 204, 205, 206, 207, 208, 209, 210, 211, 212, 213, 214, 215, 216, 217, 218, 219, 220, 221, 222, 223, 224, 225, 226, 227, 228, 229, 230, 231, 232, 233, 234, 235, 236, 237, 238, 239, 240, 241, 242, 243, 244, 245, 246, 247, 248, 249, 250, 251, 252, 253, 254, 255, 256, 257, 258, 259, 260, 261, 262, 263, 264, 265, 266, 267, 268, 269, 270, 271, 272, 273, 274, 275, 276, 277, 278, 279, 280, 281, 282, 283, 284, 285, 286, 287, 288, 289, 290, 291, 292, 293, 294, 295, 296, 297, 298, 299, 300, 301, 302, 303, 304, 305, 306, 307, 308, 309, 310, 311, 312, 313, 314, 315, 316, 317, 318, 319, 320, 321, 322, 323, 324, 325, 326, 327, 328, 329, 330, 331, 332, 333, 334, 335, 336, 337, 338, 339, 340, 341, 342, 343, 344, 345, 346, 347, 348, 349, 350, 351, 352, 353, 354, 355, 356, 357, 358, 359, 360, 361, 362, 363, 364, 365, 366, 367, 368, 369, 370, 371, 372, 373, 374, 375, 376, 377, 378, 379, 380, 381, 382, 383, 384, 385, 386, 387, 388, 389, 390, 391, 392, 393, 394, 395, 396, 397, 398, 399, 400, 401, 402, 403, 404, 405, 406, 407, 408, 409, 410, 411, 412, 413, 414, 415, 416, 417, 418, 419, 420, 421, 422, 423, 424, 425, 426, 427, 428, 429, 430, 431, 432, 433, 434, 435, 436, 437, 438, 439, 440, 441, 442, 443, 444, 445, 446, 447, 448, 449, 450, 451, 452, 453, 454, 455, 456, 457, 458, 459],
      "AcquisitionTime": ["182528.865000", "182530.355000", "182531.845000", "182533.335000", "182534.825000", "182536.315000", "182537.805000", "182539.295000", "182540.785000", "182542.275000", "182543.765000", "182545.255000", "182546.745000", "182548.235000", "182549.725000", "182551.215000", "182552.705000", "182554.195000", "182555.685000", "182557.175000", "182558.665000", "182600.155000", "182601.645000", "182603.135000", "182604.625000", "182606.115000", "182607.605000", "182609.095000", "182610.585000", "182612.075000", "182613.565000", "182615.055000", "182616.545000", "182618.035000", "182619.525000", "182621.015000", "182622.505000", "182623.995000", "182625.485000", "182626.975000", "182628.465000", "182629.955000", "182631.445000", "182632.935000", "182634.425000", "182635.915000", "182637.405000", "182638.895000", "182640.385000", "182641.875000", "182643.365000", "182644.855000", "182646.345000", "182647.835000", "182649.325000", "182650.815000", "182652.305000", "182653.795000", "182655.285000", "182656.775000", "182658.265000", "182659.755000", "182701.245000", "182702.735000", "182704.225000", "182705.715000", "182707.205000", "182708.695000", "182710.185000", "182711.675000", "182713.165000", "182714.655000", "182716.145000", "182717.635000", "182719.125000", "182720.615000", "182722.105000", "182723.595000", "182725.085000", "182726.575000", "182728.065000", "182729.555000", "182731.045000", "182732.535000", "182734.025000", "182735.515000", "182737.005000", "182738.495000", "182739.985000", "182741.475000", "182742.965000", "182744.455000", "182745.945000", "182747.435000", "182748.925000", "182750.415000", "182751.905000", "182753.395000", "182754.885000", "182756.375000", "182757.865000", "182759.355000", "182800.845000", "182802.335000", "182803.825000", "182805.315000", "182806.805000", "182808.295000", "182809.785000", "182811.275000", "182812.765000", "182814.255000", "182815.745000", "182817.235000", "182818.725000", "182820.215000", "182821.705000", "182823.195000", "182824.685000", "182826.175000", "182827.665000", "182829.155000", "182830.645000", "182832.135000", "182833.625000", "182835.115000", "182836.605000", "182838.095000", "182839.585000", "182841.075000", "182842.565000", "182844.055000", "182845.545000", "182847.035000", "182848.525000", "182850.015000", "182851.505000", "182852.995000", "182854.485000", "182855.975000", "182857.465000", "182858.955000", "182900.445000", "182901.935000", "182903.425000", "182904.915000", "182906.405000", "182907.895000", "182909.385000", "182910.875000", "182912.365000", "182913.855000", "182915.345000", "182916.835000", "182918.325000", "182919.815000", "182921.305000", "182922.795000", "182924.285000", "182925.775000", "182927.265000", "182928.755000", "182930.245000", "182931.735000", "182933.225000", "182934.715000", "182936.205000", "182937.695000", "182939.185000", "182940.675000", "182942.165000", "182943.655000", "182945.145000", "182946.635000", "182948.125000", "182949.615000", "182951.105000", "182952.595000", "182954.085000", "182955.575000", "182957.065000", "182958.555000", "183000.045000", "183001.535000", "183003.025000", "183004.515000", "183006.005000", "183007.495000", "183008.985000", "183010.475000", "183011.965000", "183013.455000", "183014.945000", "183016.435000", "183017.925000", "183019.415000", "183020.905000", "183022.395000", "183023.885000", "183025.375000", "183026.865000", "183028.355000", "183029.845000", "183031.335000", "183032.825000", "183034.315000", "183035.805000", "183037.295000", "183038.785000", "183040.275000", "183041.765000", "183043.255000", "183044.745000", "183046.235000", "183047.725000", "183049.215000", "183050.705000", "183052.195000", "183053.685000", "183055.175000", "183056.665000", "183058.155000", "183059.645000", "183101.135000", "183102.625000", "183104.115000", "183105.605000", "183107.095000", "183108.585000", "183110.075000", "183111.565000", "183113.055000", "183114.545000", "183116.035000", "183117.525000", "183119.015000", "183120.505000", "183121.995000", "183123.485000", "183124.975000", "183126.465000", "183127.955000", "183129.445000", "183130.935000", "183132.425000", "183133.915000", "183135.405000", "183136.895000", "183138.385000", "183139.875000", "183141.365000", "183142.855000", "183144.345000", "183145.835000", "183147.325000", "183148.815000", "183150.305000", "183151.795000", "183153.285000", "183154.775000", "183156.265000", "183157.755000", "183159.245000", "183200.735000", "183202.225000", "183203.715000", "183205.205000", "183206.695000", "183208.185000", "183209.675000", "183211.165000", "183212.655000", "183214.145000", "183215.635000", "183217.125000", "183218.615000", "183220.105000", "183221.595000", "183223.085000", "183224.575000", "183226.065000", "183227.555000", "183229.045000", "183230.535000", "183232.025000", "183233.515000", "183235.005000", "183236.495000", "183237.985000", "183239.475000", "183240.965000", "183242.455000", "183243.945000", "183245.435000", "183246.925000", "183248.415000", "183249.905000", "183251.395000", "183252.885000", "183254.375000", "183255.865000", "183257.355000", "183258.845000", "183300.335000", "183301.825000", "183303.315000", "183304.805000", "183306.295000", "183307.785000", "183309.275000", "183310.765000", "183312.255000", "183313.745000", "183315.235000", "183316.725000", "183318.215000", "183319.705000", "183321.195000", "183322.685000", "183324.175000", "183325.665000", "183327.155000", "183328.645000", "183330.135000", "183331.625000", "183333.115000", "183334.605000", "183336.095000", "183337.585000", "183339.075000", "183340.565000", "183342.055000", "183343.545000", "183345.035000", "183346.525000", "183348.015000", "183349.505000", "183350.995000", "183352.485000", "183353.975000", "183355.465000", "183356.955000", "183358.445000", "183359.935000", "183401.425000", "183402.915000", "183404.405000", "183405.895000", "183407.385000", "183408.875000", "183410.365000", "183411.855000", "183413.345000", "183414.835000", "183416.325000", "183417.815000", "183419.305000", "183420.795000", "183422.285000", "183423.775000", "183425.265000", "183426.755000", "183428.245000", "183429.735000", "183431.225000", "183432.715000", "183434.205000", "183435.695000", "183437.185000", "183438.675000", "183440.165000", "183441.655000", "183443.145000", "183444.635000", "183446.125000", "183447.615000", "183449.105000", "183450.595000", "183452.085000", "183453.575000", "183455.065000", "183456.555000", "183458.045000", "183459.535000", "183501.025000", "183502.515000", "183504.005000", "183505.495000", "183506.985000", "183508.475000", "183509.965000", "183511.455000", "183512.945000", "183514.435000", "183515.925000", "183517.415000", "183518.905000", "183520.395000", "183521.885000", "183523.375000", "183524.865000", "183526.355000", "183527.845000", "183529.335000", "183530.825000", "183532.315000", "183533.805000", "183535.295000", "183536.785000", "183538.275000", "183539.765000", "183541.255000", "183542.745000", "183544.235000", "183545.725000", "183547.215000", "183548.705000", "183550.195000", "183551.685000", "183553.175000", "183554.665000", "183556.155000", "183557.645000", "183559.135000", "183600.625000", "183602.115000", "183603.605000", "183605.095000", "183606.585000", "183608.075000", "183609.565000", "183611.055000", "183612.545000", "183614.035000", "183615.525000", "183617.015000", "183618.505000", "183619.995000", "183621.485000", "183622.975000", "183624.465000", "183625.955000", "183627.445000", "183628.935000", "183630.425000", "183631.915000", "183633.405000", "183634.895000", "183636.385000", "183637.875000", "183639.365000", "183640.855000", "183642.345000", "183643.835000", "183645.325000", "183646.815000", "183648.305000", "183649.795000", "183651.285000"],
      "ContentTime": ["182643.641000", "182643.645000", "182643.648000", "182643.652000", "182643.655000", "182643.658000", "182643.661000", "182643.665000", "182643.668000", "182643.671000", "182643.674000", "182643.678000", "182643.681000", "182643.684000", "182643.687000", "182643.691000", "182643.694000", "182643.697000", "182643.700000", "182643.711000", "182643.714000", "182703.604000", "182703.608000", "182703.611000", "182703.614000", "182703.617000", "182703.621000", "182703.624000", "182703.627000", "182703.630000", "182703.633000", "182703.637000", "182703.640000", "182703.643000", "182703.646000", "182703.650000", "182703.653000", "182703.656000", "182703.659000", "182703.663000", "182703.666000", "182703.669000", "182723.605000", "182723.609000", "182723.612000", "182723.615000", "182723.619000", "182723.622000", "182723.626000", "182723.629000", "182723.632000", "182723.636000", "182723.639000", "182723.663000", "182723.666000", "182723.669000", "182723.673000", "182723.676000", "182723.679000", "182723.682000", "182723.686000", "182723.689000", "182743.605000", "182743.609000", "182743.612000", "182743.615000", "182743.618000", "182743.622000", "182743.625000", "182743.628000", "182743.632000", "182743.635000", "182743.638000", "182743.641000", "182743.645000", "182743.648000", "182743.651000", "182743.654000", "182743.658000", "182743.661000", "182743.664000", "182743.667000", "182803.605000", "182803.609000", "182803.612000", "182803.616000", "182803.619000", "182803.623000", "182803.626000", "182803.629000", "182803.633000", "182803.636000", "182803.639000", "182803.642000", "182803.646000", "182803.649000", "182803.652000", "182803.655000", "182803.658000", "182803.662000", "182803.665000", "182803.668000", "182843.605000", "182843.609000", "182843.612000", "182843.615000", "182843.619000", "182843.622000", "182843.625000", "182843.628000", "182843.631000", "182843.635000", "182843.638000", "182843.641000", "182843.644000", "182843.648000", "182843.651000", "182843.654000", "182843.658000", "182843.661000", "182843.664000", "182843.667000", "182843.671000", "182843.674000", "182843.677000", "182843.681000", "182843.684000", "182843.687000", "182843.690000", "182843.694000", "182923.604000", "182923.608000", "182923.611000", "182923.614000", "182923.617000", "182923.621000", "182923.624000", "182923.627000", "182923.630000", "182923.634000", "182923.637000", "182923.641000", "182923.644000", "182923.647000", "182923.650000", "182923.654000", "182923.657000", "182923.660000", "182923.664000", "182923.667000", "182923.670000", "182923.673000", "182923.676000", "182923.680000", "182923.683000", "182923.697000", "182923.700000", "183003.605000", "183003.609000", "183003.612000", "183003.616000", "183003.620000", "183003.625000", "183003.628000", "183003.631000", "183003.635000", "183003.638000", "183003.641000", "183003.645000", "183003.648000", "183003.651000", "183003.654000", "183003.657000", "183003.661000", "183003.664000", "183003.667000", "183003.671000", "183003.674000", "183003.677000", "183003.680000", "183003.684000", "183003.687000", "183003.690000", "183043.605000", "183043.609000", "183043.612000", "183043.615000", "183043.619000", "183043.622000", "183043.625000", "183043.628000", "183043.632000", "183043.635000", "183043.638000", "183043.641000", "183043.645000", "183043.648000", "183043.651000", "183043.654000", "183043.658000", "183043.661000", "183043.664000", "183043.667000", "183043.671000", "183043.674000", "183043.677000", "183043.680000", "183043.691000", "183043.695000", "183043.711000", "183123.605000", "183123.609000", "183123.612000", "183123.615000", "183123.619000", "183123.622000", "183123.625000", "183123.629000", "183123.632000", "183123.635000", "183123.638000", "183123.642000", "183123.645000", "183123.648000", "183123.652000", "183123.655000", "183123.658000", "183123.661000", "183123.665000", "183123.668000", "183123.671000", "183123.674000", "183123.678000", "183123.681000", "183123.685000", "183123.688000", "183123.691000", "183203.605000", "183203.609000", "183203.612000", "183203.615000", "183203.619000", "183203.622000", "183203.625000", "183203.628000", "183203.632000", "183203.635000", "183203.638000", "183203.642000", "183203.645000", "183203.648000", "183203.651000", "183203.655000", "183203.658000", "183203.683000", "183203.686000", "183203.690000", "183203.693000", "183203.696000", "183203.699000", "183203.703000", "183203.706000", "183203.709000", "183203.713000", "183243.605000", "183243.609000", "183243.612000", "183243.616000", "183243.619000", "183243.622000", "183243.625000", "183243.629000", "183243.632000", "183243.635000", "183243.639000", "183243.642000", "183243.645000", "183243.648000", "183243.652000", "183243.655000", "183243.658000", "183243.662000", "183243.665000", "183243.668000", "183243.671000", "183243.675000", "183243.678000", "183243.681000", "183243.684000", "183243.688000", "183243.691000", "183323.605000", "183323.609000", "183323.612000", "183323.615000", "183323.619000", "183323.622000", "183323.625000", "183323.628000", "183323.632000", "183323.635000", "183323.638000", "183323.642000", "183323.645000", "183323.648000", "183323.651000", "183323.655000", "183323.658000", "183323.661000", "183323.665000", "183323.668000", "183323.671000", "183323.674000", "183323.678000", "183323.681000", "183323.684000", "183323.687000", "183323.691000", "183403.604000", "183403.608000", "183403.611000", "183403.614000", "183403.618000", "183403.621000", "183403.624000", "183403.627000", "183403.631000", "183403.634000", "183403.637000", "183403.641000", "183403.644000", "183403.647000", "183403.650000", "183403.654000", "183403.657000", "183403.660000", "183403.664000", "183403.667000", "183403.670000", "183403.673000", "183403.677000", "183403.680000", "183403.683000", "183403.686000", "183403.690000", "183443.605000", "183443.617000", "183443.621000", "183443.624000", "183443.627000", "183443.630000", "183443.634000", "183443.637000", "183443.640000", "183443.644000", "183443.647000", "183443.650000", "183443.653000", "183443.657000", "183443.660000", "183443.664000", "183443.667000", "183443.670000", "183443.673000", "183443.677000", "183443.680000", "183443.683000", "183443.686000", "183443.690000", "183443.693000", "183443.696000", "183523.605000", "183523.609000", "183523.612000", "183523.615000", "183523.619000", "183523.622000", "183523.625000", "183523.628000", "183523.632000", "183523.635000", "183523.638000", "183523.641000", "183523.645000", "183523.648000", "183523.651000", "183523.654000", "183523.657000", "183523.661000", "183523.664000", "183523.667000", "183523.671000", "183523.674000", "183523.677000", "183523.680000", "183523.684000", "183523.687000", "183523.690000", "183603.605000", "183603.609000", "183603.612000", "183603.615000", "183603.619000", "183603.622000", "183603.626000", "183603.629000", "183603.632000", "183603.636000", "183603.639000", "183603.642000", "183603.645000", "183603.649000", "183603.652000", "183603.655000", "183603.658000", "183603.662000", "183603.665000", "183603.668000", "183603.672000", "183603.675000", "183603.678000", "183603.681000", "183603.685000", "183603.688000", "183603.691000", "183643.605000", "183643.609000", "183643.612000", "183643.615000", "183643.619000", "183643.622000", "183643.625000", "183643.628000", "183643.632000", "183643.654000", "183643.658000", "183643.661000", "183643.664000", "183643.667000", "183643.671000", "183643.674000", "183643.677000", "183643.681000", "183643.684000", "183643.687000", "183643.690000", "183643.693000", "183643.697000", "183643.700000", "183643.703000", "183643.707000", "183643.710000", "183654.783000", "183654.786000", "183654.789000", "183654.793000", "183654.796000", "183654.799000", "183654.802000"],
