{
  "AcquisitionMatrixPE": 104,
  "AcquisitionNumber": 1,
  "AcquisitionTime": "18:25:28.865000",
  "BandwidthPerPixelPhaseEncode": 17.17,
  "BaseResolution": 104,
  "BodyPartExamined": "BRAIN",
  "CoilCombinationMethod": "Sum of Squares",
  "ConsistencyInfo": "N4_VE11C_LATEST_20160120",
  "ConversionSoftware": "dcm2niix",
  "ConversionSoftwareVersion": "v1.0.20211006",
  "DerivedVendorReportedEchoSpacing": 0.000560011,
  "DeviceSerialNumber": "167006",
  "DwellTime": 2.1e-06,
  "EchoTime": 0.037,
  "EchoTime1": 0.037,
  "EchoTime2": 0.001,
  "EchoTrainLength": 104,
  "EffectiveEchoSpacing": 0.000560011,
  "FlipAngle": 52,
  "HeudiconvVersion": "0.5.3.post569+g418601f",
  "ImageComments": "Unaliased MB4/PE3/LB",
  "ImageOrientationPatientDICOM": [0.99971, -0.022624, 0.00826715, 0.0240832, 0.9326, -0.360108],
  "ImageOrientationText": "Tra>Cor(-21.1)>Sag(-0.0)",
  "ImageType": [
    "ORIGINAL",
    "PRIMARY",
    "P",
    "MB",
    "ND",
    "MOSAIC",
    "PHASE"
],
  "ImagingFrequency": 123.259,
  "InPlanePhaseEncodingDirectionDICOM": "COL",
  "InstitutionAddress": "Chemin Queen-Mary 4565,Montreal,District,CA,H3W 1W5",
  "InstitutionName": "IUGM",
  "InstitutionalDepartmentName": "Department",
  "MRAcquisitionType": "2D",
  "MagneticFieldStrength": 3,
  "Manufacturer": "Siemens",
  "ManufacturersModelName": "Prisma_fit",
  "MatrixCoilMode": "SENSE",
  "Modality": "MR",
  "MultibandAccelerationFactor": 4,
  "PartialFourier": 1,
  "PatientPosition": "HFS",
  "PercentPhaseFOV": 100,
  "PercentSampling": 100,
  "PhaseEncodingDirection": "j",
  "PhaseEncodingSteps": 104,
  "PhaseResolution": 1,
  "PixelBandwidth": 2290,
  "ProcedureStepDescription": "games^mario",
  "ProtocolName": "func_task-mario_run-03",
  "PulseSequenceDetails": "%CustomerSeq%\\cmrr_mbep2d_bold",
  "ReceiveCoilActiveElements": "HC1-7;NC1,2",
  "ReceiveCoilName": "HeadNeck_64",
  "ReconMatrixPE": 104,
  "RepetitionTime": 1.49,
  "SAR": 0.0496167,
  "ScanOptions": "FS",
  "ScanningSequence": "EP",
  "SequenceName": "epfid2d1_104",
  "SequenceVariant": "SK\\SS",
  "SeriesDescription": "func_task-mario_run-03",
  "SeriesNumber": 17,
  "ShimSetting": [611, -7241, -8840, 374, -8, -326, 41, 35],
  "SliceThickness": 2,
  "SliceTiming": [0, 0.7825, 0.0975, 0.88, 0.195, 0.98, 0.2925, 1.0775, 0.39, 1.175, 0.49, 1.2725, 0.5875, 1.37, 0.685, 0, 0.7825, 0.0975, 0.88, 0.195, 0.98, 0.2925, 1.0775, 0.39, 1.175, 0.49, 1.2725, 0.5875, 1.37, 0.685, 0, 0.7825, 0.0975, 0.88, 0.195, 0.98, 0.2925, 1.0775, 0.39, 1.175, 0.49, 1.2725, 0.5875, 1.37, 0.685, 0, 0.7825, 0.0975, 0.88, 0.195, 0.98, 0.2925, 1.0775, 0.39, 1.175, 0.49, 1.2725, 0.5875, 1.37, 0.685],
  "SoftwareVersions": "syngo MR E11",
  "SpacingBetweenSlices": 2,
  "StationName": "MRC35049",
  "TaskName": "mario",
  "TotalReadoutTime": 0.0576811,
  "TxRefAmp": 263.584,
  "WipMemBlock": "51e905ac-580f-45c8-9725-d581c8ddbe27||Sequence: R016 ve11c/master r/e634e98; Dec 19 2017 11:00:25 by eja",
  "dcmmeta_affine": [
    [-1.9994196891784668, 0.048166438937187195, -0.0008743086364120245, 101.57820129394531],
    [0.045248065143823624, 1.8651995658874512, -0.7204049825668335, -64.34913635253906],
    [0.016534291207790375, 0.7202157378196716, 1.8657480478286743, -73.87564086914062],
    [0.0, 0.0, 0.0, 1.0]
],
  "dcmmeta_reorient_transform": [
    [0.0, -1.0, 0.0, 103.0],
    [1.0, 0.0, 0.0, 0.0],
    [0.0, 0.0, 1.0, 0.0],
    [0.0, 0.0, 0.0, 1.0]
],
  "dcmmeta_shape": [104, 104, 60, 459],
  "dcmmeta_slice_dim": 2,
  "dcmmeta_version": 0.6,
  "global": {
    "const": {
      "AcquisitionMatrix": [104, 0, 0, 104],
      "AngioFlag": "N",
      "BitsAllocated": 16,
      "BitsStored": 16,
      "BodyPartExamined": "BRAIN",
      "Columns": 832,
      "EchoNumbers": 1,
      "EchoTime": 37.0,
      "EchoTrainLength": 104,
      "FlipAngle": 52.0,
      "HighBit": 15,
      "ImageOrientationPatient": [0.99970986161963, -0.022624033268, 0.00826714576792, 0.02408321981281, 0.93259976294799, -0.3601078736612],
      "ImagePositionPatient": [-851.86070878959, -790.22874767601, 256.44663453301],
      "ImageType": [
        "ORIGINAL",
        "PRIMARY",
        "P",
        "MB",
        "ND",
        "MOSAIC"
],
      "ImagedNucleus": "1H",
      "ImagingFrequency": 123.258832,
      "InPlanePhaseEncodingDirection": "COL",
      "LargestImagePixelValue": 4095,
      "MRAcquisitionType": "2D",
      "MagneticFieldStrength": 3.0,
      "Manufacturer": "SIEMENS",
      "ManufacturerModelName": "Prisma_fit",
      "Modality": "MR",
      "NumberOfAverages": 1.0,
      "NumberOfPhaseEncodingSteps": 104,
      "PercentPhaseFieldOfView": 100.0,
      "PercentSampling": 100.0,
      "PerformedProcedureStepStartTime": "173150.270000",
      "PhotometricInterpretation": "MONOCHROME2",
      "PixelBandwidth": 2290.0,
      "PixelRepresentation": 0,
      "PixelSpacing": [2.0, 2.0],
      "ProtocolName": "func_task-mario_run-03",
      "RepetitionTime": 1490.0,
      "RescaleIntercept": -4096.0,
      "RescaleSlope": 2.0,
      "RescaleType": "US",
      "Rows": 832,
      "SAR": 0.04961672910479,
      "SamplesPerPixel": 1,
      "ScanOptions": "FS",
      "ScanningSequence": "EP",
      "SequenceName": "epfid2d1_104",
      "SequenceVariant": [
        "SK",
        "SS"
],
      "SeriesDescription": "func_task-mario_run-03",
      "SeriesNumber": 17,
      "SeriesTime": "182643.755000",
      "SliceLocation": -45.782350907571,
      "SliceThickness": 2.0,
      "SmallestImagePixelValue": 0,
      "SoftwareVersions": "syngo MR E11",
      "SpacingBetweenSlices": 1.9999999437031,
      "SpecificCharacterSet": "ISO_IR 100",
      "StudyID": "1",
      "StudyTime": "173150.205000",
      "TransmitCoilName": "Body",
      "VariableFlipAngleFlag": "N",
      "WindowCenterWidthExplanation": "Algo1",
      "dBdt": 0.0},
    "slices": {}
  },
  "time": {
    "samples": {
      "AcquisitionNumber": [1, 2, 3, 4, 5, 6, 7, 8, 9, 10, 11, 12, 13, 14, 15, 16, 17, 18, 19, 20, 21, 22, 23, 24, 25, 26, 27, 28, 29, 30, 31, 32, 33, 34, 35, 36, 37, 38, 39, 40, 41, 42, 43, 44, 45, 46, 47, 48, 49, 50, 51, 52, 53, 54, 55, 56, 57, 58, 59, 60, 61, 62, 63, 64, 65, 66, 67, 68, 69, 70, 71, 72, 73, 74, 75, 76, 77, 78, 79, 80, 81, 82, 83, 84, 85, 86, 87, 88, 89, 90, 91, 92, 93, 94, 95, 96, 97, 98, 99, 100, 101, 102, 103, 104, 105, 106, 107, 108, 109, 110, 111, 112, 113, 114, 115, 116, 117, 118, 119, 120, 121, 122, 123, 124, 125, 126, 127, 128, 129, 130, 131, 132, 133, 134, 135, 136, 137, 138, 139, 140, 141, 142, 143, 144, 145, 146, 147, 148, 149, 150, 151, 152, 153, 154, 155, 156, 157, 158, 159, 160, 161, 162, 163, 164, 165, 166, 167, 168, 169, 170, 171, 172, 173, 174, 175, 176, 177, 178, 179, 180, 181, 182, 183, 184, 185, 186, 187, 188, 189, 190, 191, 192, 193, 194, 195, 196, 197, 198, 199, 200, 201, 202, 203, 204, 205, 206, 207, 208, 209, 210, 211, 212, 213, 214, 215, 216, 217, 218, 219, 220, 221, 222, 223, 224, 225, 226, 227, 228, 229, 230, 231, 232, 233, 234, 235, 236, 237, 238, 239, 240, 241, 242, 243, 244, 245, 246, 247, 248, 249, 250, 251, 252, 253, 254, 255, 256, 257, 258, 259, 260, 261, 262, 263, 264, 265, 266, 267, 268, 269, 270, 271, 272, 273, 274, 275, 276, 277, 278, 279, 280, 281, 282, 283, 284, 285, 286, 287, 288, 289, 290, 291, 292, 293, 294, 295, 296, 297, 298, 299, 300, 301, 302, 303, 304, 305, 306, 307, 308, 309, 310, 311, 312, 313, 314, 315, 316, 317, 318, 319, 320, 321, 322, 323, 324, 325, 326, 327, 328, 329, 330, 331, 332, 333, 334, 335, 336, 337, 338, 339, 340, 341, 342, 343, 344, 345, 346, 347, 348, 349, 350, 351, 352, 353, 354, 355, 356, 357, 358, 359, 360, 361, 362, 363, 364, 365, 366, 367, 368, 369, 370, 371, 372, 373, 374, 375, 376, 377, 378, 379, 380, 381, 382, 383, 384, 385, 386, 387, 388, 389, 390, 391, 392, 393, 394, 395, 396, 397, 398, 399, 400, 401, 402, 403, 404, 405, 406, 407, 408, 409, 410, 411, 412, 413, 414, 415, 416, 417, 418, 419, 420, 421, 422, 423, 424, 425, 426, 427, 428, 429, 430, 431, 432, 433, 434, 435, 436, 437, 438, 439, 440, 441, 442, 443, 444, 445, 446, 447, 448, 449, 450, 451, 452, 453, 454, 455, 456, 457, 458, 459],
      "AcquisitionTime": ["182528.865000", "182530.355000", "182531.845000", "182533.335000", "182534.825000", "182536.315000", "182537.805000", "182539.295000", "182540.785000", "182542.275000", "182543.765000", "182545.255000", "182546.745000", "182548.235000", "182549.725000", "182551.215000", "182552.705000", "182554.195000", "182555.685000", "182557.175000", "182558.665000", "182600.155000", "182601.645000", "182603.135000", "182604.625000", "182606.115000", "182607.605000", "182609.095000", "182610.585000", "182612.075000", "182613.565000", "182615.055000", "182616.545000", "182618.035000", "182619.525000", "182621.015000", "182622.505000", "182623.995000", "182625.485000", "182626.975000", "182628.465000", "182629.955000", "182631.445000", "182632.935000", "182634.425000", "182635.915000", "182637.405000", "182638.895000", "182640.385000", "182641.875000", "182643.365000", "182644.855000", "182646.345000", "182647.835000", "182649.325000", "182650.815000", "182652.305000", "182653.795000", "182655.285000", "182656.775000", "182658.265000", "182659.755000", "182701.245000", "182702.735000", "182704.225000", "182705.715000", "182707.205000", "182708.695000", "182710.185000", "182711.675000", "182713.165000", "182714.655000", "182716.145000", "182717.635000", "182719.125000", "182720.615000", "182722.105000", "182723.595000", "182725.085000", "182726.575000", "182728.065000", "182729.555000", "182731.045000", "182732.535000", "182734.025000", "182735.515000", "182737.005000", "182738.495000", "182739.985000", "182741.475000", "182742.965000", "182744.455000", "182745.945000", "182747.435000", "182748.925000", "182750.415000", "182751.905000", "182753.395000", "182754.885000", "182756.375000", "182757.865000", "182759.355000", "182800.845000", "182802.335000", "182803.825000", "182805.315000", "182806.805000", "182808.295000", "182809.785000", "182811.275000", "182812.765000", "182814.255000", "182815.745000", "182817.235000", "182818.725000", "182820.215000", "182821.705000", "182823.195000", "182824.685000", "182826.175000", "182827.665000", "182829.155000", "182830.645000", "182832.135000", "182833.625000", "182835.115000", "182836.605000", "182838.095000", "182839.585000", "182841.075000", "182842.565000", "182844.055000", "182845.545000", "182847.035000", "182848.525000", "182850.015000", "182851.505000", "182852.995000", "182854.485000", "182855.975000", "182857.465000", "182858.955000", "182900.445000", "182901.935000", "182903.425000", "182904.915000", "182906.405000", "182907.895000", "182909.385000", "182910.875000", "182912.365000", "182913.855000", "182915.345000", "182916.835000", "182918.325000", "182919.815000", "182921.305000", "182922.795000", "182924.285000", "182925.775000", "182927.265000", "182928.755000", "182930.245000", "182931.735000", "182933.225000", "182934.715000", "182936.205000", "182937.695000", "182939.185000", "182940.675000", "182942.165000", "182943.655000", "182945.145000", "182946.635000", "182948.125000", "182949.615000", "182951.105000", "182952.595000", "182954.085000", "182955.575000", "182957.065000", "182958.555000", "183000.045000", "183001.535000", "183003.025000", "183004.515000", "183006.005000", "183007.495000", "183008.985000", "183010.475000", "183011.965000", "183013.455000", "183014.945000", "183016.435000", "183017.925000", "183019.415000", "183020.905000", "183022.395000", "183023.885000", "183025.375000", "183026.865000", "183028.355000", "183029.845000", "183031.335000", "183032.825000", "183034.315000", "183035.805000", "183037.295000", "183038.785000", "183040.275000", "183041.765000", "183043.255000", "183044.745000", "183046.235000", "183047.725000", "183049.215000", "183050.705000", "183052.195000", "183053.685000", "183055.175000", "183056.665000", "183058.155000", "183059.645000", "183101.135000", "183102.625000", "183104.115000", "183105.605000", "183107.095000", "183108.585000", "183110.075000", "183111.565000", "183113.055000", "183114.545000", "183116.035000", "183117.525000", "183119.015000", "183120.505000", "183121.995000", "183123.485000", "183124.975000", "183126.465000", "183127.955000", "183129.445000", "183130.935000", "183132.425000", "183133.915000", "183135.405000", "183136.895000", "183138.385000", "183139.875000", "183141.365000", "183142.855000", "183144.345000", "183145.835000", "183147.325000", "183148.815000", "183150.305000", "183151.795000", "183153.285000", "183154.775000", "183156.265000", "183157.755000", "183159.245000", "183200.735000", "183202.225000", "183203.715000", "183205.205000", "183206.695000", "183208.185000", "183209.675000", "183211.165000", "183212.655000", "183214.145000", "183215.635000", "183217.125000", "183218.615000", "183220.105000", "183221.595000", "183223.085000", "183224.575000", "183226.065000", "183227.555000", "183229.045000", "183230.535000", "183232.025000", "183233.515000", "183235.005000", "183236.495000", "183237.985000", "183239.475000", "183240.965000", "183242.455000", "183243.945000", "183245.435000", "183246.925000", "183248.415000", "183249.905000", "183251.395000", "183252.885000", "183254.375000", "183255.865000", "183257.355000", "183258.845000", "183300.335000", "183301.825000", "183303.315000", "183304.805000", "183306.295000", "183307.785000", "183309.275000", "183310.765000", "183312.255000", "183313.745000", "183315.235000", "183316.725000", "183318.215000", "183319.705000", "183321.195000", "183322.685000", "183324.175000", "183325.665000", "183327.155000", "183328.645000", "183330.135000", "183331.625000", "183333.115000", "183334.605000", "183336.095000", "183337.585000", "183339.075000", "183340.565000", "183342.055000", "183343.545000", "183345.035000", "183346.525000", "183348.015000", "183349.505000", "183350.995000", "183352.485000", "183353.975000", "183355.465000", "183356.955000", "183358.445000", "183359.935000", "183401.425000", "183402.915000", "183404.405000", "183405.895000", "183407.385000", "183408.875000", "183410.365000", "183411.855000", "183413.345000", "183414.835000", "183416.325000", "183417.815000", "183419.305000", "183420.795000", "183422.285000", "183423.775000", "183425.265000", "183426.755000", "183428.245000", "183429.735000", "183431.225000", "183432.715000", "183434.205000", "183435.695000", "183437.185000", "183438.675000", "183440.165000", "183441.655000", "183443.145000", "183444.635000", "183446.125000", "183447.615000", "183449.105000", "183450.595000", "183452.085000", "183453.575000", "183455.065000", "183456.555000", "183458.045000", "183459.535000", "183501.025000", "183502.515000", "183504.005000", "183505.495000", "183506.985000", "183508.475000", "183509.965000", "183511.455000", "183512.945000", "183514.435000", "183515.925000", "183517.415000", "183518.905000", "183520.395000", "183521.885000", "183523.375000", "183524.865000", "183526.355000", "183527.845000", "183529.335000", "183530.825000", "183532.315000", "183533.805000", "183535.295000", "183536.785000", "183538.275000", "183539.765000", "183541.255000", "183542.745000", "183544.235000", "183545.725000", "183547.215000", "183548.705000", "183550.195000", "183551.685000", "183553.175000", "183554.665000", "183556.155000", "183557.645000", "183559.135000", "183600.625000", "183602.115000", "183603.605000", "183605.095000", "183606.585000", "183608.075000", "183609.565000", "183611.055000", "183612.545000", "183614.035000", "183615.525000", "183617.015000", "183618.505000", "183619.995000", "183621.485000", "183622.975000", "183624.465000", "183625.955000", "183627.445000", "183628.935000", "183630.425000", "183631.915000", "183633.405000", "183634.895000", "183636.385000", "183637.875000", "183639.365000", "183640.855000", "183642.345000", "183643.835000", "183645.325000", "183646.815000", "183648.305000", "183649.795000", "183651.285000"],
      "ContentTime": ["182643.757000", "182643.759000", "182643.762000", "182643.764000", "182643.767000", "182643.769000", "182643.772000", "182643.774000", "182643.777000", "182643.779000", "182643.781000", "182643.784000", "182643.786000", "182643.789000", "182643.791000", "182643.794000", "182643.796000", "182643.799000", "182643.801000", "182643.804000", "182643.806000", "182703.714000", "182703.717000", "182703.719000", "182703.721000", "182703.724000", "182703.726000", "182703.729000", "182703.731000", "182703.734000", "182703.736000", "182703.739000", "182703.741000", "182703.743000", "182703.746000", "182703.748000", "182703.751000", "182703.753000", "182703.756000", "182703.758000", "182703.761000", "182703.763000", "182723.725000", "182723.728000", "182723.739000", "182723.741000", "182723.744000", "182723.746000", "182723.749000", "182723.751000", "182723.754000", "182723.756000", "182723.759000", "182723.761000", "182723.764000", "182723.766000", "182723.768000", "182723.771000", "182723.773000", "182723.776000", "182723.778000", "182723.781000", "182743.713000", "182743.715000", "182743.718000", "182743.720000", "182743.723000", "182743.725000", "182743.728000", "182743.730000", "182743.733000", "182743.735000", "182743.738000", "182743.740000", "182743.743000", "182743.745000", "182743.747000", "182743.750000", "182743.752000", "182743.755000", "182743.757000", "182743.760000", "182803.706000", "182803.709000", "182803.711000", "182803.714000", "182803.716000", "182803.719000", "182803.721000", "182803.724000", "182803.726000", "182803.729000", "182803.731000", "182803.733000", "182803.736000", "182803.738000", "182803.741000", "182803.743000", "182803.746000", "182803.748000", "182803.751000", "182803.753000", "182843.760000", "182843.762000", "182843.765000", "182843.767000", "182843.770000", "182843.772000", "182843.775000", "182843.777000", "182843.779000", "182843.782000", "182843.784000", "182843.787000", "182843.789000", "182843.792000", "182843.794000", "182843.797000", "182843.799000", "182843.802000", "182843.804000", "182843.807000", "182843.809000", "182843.811000", "182843.814000", "182843.816000", "182843.819000", "182843.821000", "182843.833000", "182843.835000", "182923.750000", "182923.752000", "182923.755000", "182923.757000", "182923.760000", "182923.762000", "182923.765000", "182923.767000", "182923.770000", "182923.772000", "182923.774000", "182923.777000", "182923.779000", "182923.782000", "182923.784000", "182923.787000", "182923.789000", "182923.792000", "182923.794000", "182923.796000", "182923.799000", "182923.801000", "182923.804000", "182923.806000", "182923.809000", "182923.811000", "182923.814000", "183003.764000", "183003.766000", "183003.769000", "183003.771000", "183003.774000", "183003.776000", "183003.779000", "183003.781000", "183003.784000", "183003.786000", "183003.789000", "183003.791000", "183003.794000", "183003.796000", "183003.799000", "183003.801000", "183003.804000", "183003.806000", "183003.809000", "183003.811000", "183003.814000", "183003.816000", "183003.818000", "183003.821000", "183003.823000", "183003.826000", "183043.772000", "183043.774000", "183043.777000", "183043.779000", "183043.782000", "183043.784000", "183043.787000", "183043.789000", "183043.792000", "183043.794000", "183043.797000", "183043.799000", "183043.802000", "183043.804000", "183043.807000", "183043.809000", "183043.812000", "183043.814000", "183043.816000", "183043.819000", "183043.821000", "183043.824000", "183043.826000", "183043.829000", "183043.831000", "183043.834000", "183043.836000", "183123.745000", "183123.747000", "183123.750000", "183123.752000", "183123.755000", "183123.757000", "183123.760000", "183123.762000", "183123.765000", "183123.767000", "183123.770000", "183123.772000", "183123.775000", "183123.777000", "183123.780000", "183123.782000", "183123.785000", "183123.787000", "183123.789000", "183123.792000", "183123.794000", "183123.797000", "183123.799000", "183123.802000", "183123.804000", "183123.807000", "183123.809000", "183203.771000", "183203.773000", "183203.776000", "183203.778000", "183203.781000", "183203.783000", "183203.786000", "183203.788000", "183203.791000", "183203.793000", "183203.796000", "183203.798000", "183203.801000", "183203.803000", "183203.806000", "183203.808000", "183203.811000", "183203.813000", "183203.815000", "183203.818000", "183203.820000", "183203.823000", "183203.825000", "183203.828000", "183203.830000", "183203.833000", "183203.835000", "183243.750000", "183243.752000", "183243.755000", "183243.757000", "183243.760000", "183243.762000", "183243.765000", "183243.767000", "183243.770000", "183243.772000", "183243.775000", "183243.777000", "183243.780000", "183243.782000", "183243.784000", "183243.787000", "183243.789000", "183243.792000", "183243.794000", "183243.797000", "183243.799000", "183243.802000", "183243.804000", "183243.807000", "183243.809000", "183243.812000", "183243.814000", "183323.745000", "183323.748000", "183323.750000", "183323.753000", "183323.755000", "183323.758000", "183323.760000", "183323.763000", "183323.765000", "183323.768000", "183323.770000", "183323.773000", "183323.775000", "183323.778000", "183323.780000", "183323.782000", "183323.785000", "183323.787000", "183323.790000", "183323.792000", "183323.795000", "183323.797000", "183323.800000", "183323.802000", "183323.805000", "183323.807000", "183323.809000", "183403.747000", "183403.750000", "183403.752000", "183403.755000", "183403.757000", "183403.760000", "183403.762000", "183403.765000", "183403.767000", "183403.770000", "183403.772000", "183403.774000", "183403.777000", "183403.779000", "183403.782000", "183403.784000", "183403.787000", "183403.789000", "183403.792000", "183403.794000", "183403.796000", "183403.799000", "183403.801000", "183403.804000", "183403.806000", "183403.809000", "183403.811000", "183444.144000", "183444.147000", "183444.149000", "183444.152000", "183444.154000", "183444.157000", "183444.159000", "183444.162000", "183444.164000", "183444.167000", "183444.169000", "183444.172000", "183444.174000", "183444.177000", "183444.179000", "183444.182000", "183444.184000", "183444.187000", "183444.189000", "183444.191000", "183444.194000", "183444.196000", "183444.199000", "183444.201000", "183444.204000", "183444.206000", "183523.736000", "183523.738000", "183523.741000", "183523.743000", "183523.746000", "183523.748000", "183523.751000", "183523.753000", "183523.756000", "183523.758000", "183523.761000", "183523.763000", "183523.766000", "183523.769000", "183523.771000", "183523.774000", "183523.776000", "183523.779000", "183523.781000", "183523.784000", "183523.786000", "183523.789000", "183523.791000", "183523.794000", "183523.796000", "183523.798000", "183523.801000", "183603.738000", "183603.741000", "183603.743000", "183603.746000", "183603.748000", "183603.750000", "183603.753000", "183603.755000", "183603.758000", "183603.760000", "183603.763000", "183603.765000", "183603.768000", "183603.770000", "183603.773000", "183603.775000", "183603.778000", "183603.780000", "183603.783000", "183603.785000", "183603.788000", "183603.790000", "183603.793000", "183603.795000", "183603.798000", "183603.800000", "183603.803000", "183643.753000", "183643.755000", "183643.758000", "183643.760000", "183643.763000", "183643.765000", "183643.768000", "183643.770000", "183643.773000", "183643.775000", "183643.778000", "183643.780000", "183643.783000", "183643.785000", "183643.788000", "183643.790000", "183643.793000", "183643.795000", "183643.797000", "183643.800000", "183643.802000", "183643.805000", "183643.807000", "183643.810000", "183643.812000", "183643.815000", "183643.817000", "183654.823000", "183654.826000", "183654.828000", "183654.831000", "183654.833000", "183654.836000", "183654.838000"],
