{
  "AcquisitionMatrixPE": 104,
  "AcquisitionNumber": 1,
  "AcquisitionTime": "18:38:22.095000",
  "BandwidthPerPixelPhaseEncode": 17.17,
  "BaseResolution": 104,
  "BodyPartExamined": "BRAIN",
  "CoilCombinationMethod": "Sum of Squares",
  "ConsistencyInfo": "N4_VE11C_LATEST_20160120",
  "ConversionSoftware": "dcm2niix",
  "ConversionSoftwareVersion": "v1.0.20211006",
  "DerivedVendorReportedEchoSpacing": 0.000560011,
  "DeviceSerialNumber": "167006",
  "DwellTime": 2.1e-06,
  "EchoTime": 0.037,
  "EchoTrainLength": 104,
  "EffectiveEchoSpacing": 0.000560011,
  "FlipAngle": 52,
  "HeudiconvVersion": "0.5.3.post569+g418601f",
  "ImageComments": "Unaliased MB4/PE3/LB",
  "ImageOrientationPatientDICOM": [0.99971, -0.022624, 0.00826715, 0.0240832, 0.9326, -0.360108],
  "ImageOrientationText": "Tra>Cor(-21.1)>Sag(-0.0)",
  "ImageType": [
    "ORIGINAL",
    "PRIMARY",
    "M",
    "MB",
    "ND",
    "MOSAIC"
],
  "ImagingFrequency": 123.259,
  "InPlanePhaseEncodingDirectionDICOM": "COL",
  "InstitutionAddress": "Chemin Queen-Mary 4565,Montreal,District,CA,H3W 1W5",
  "InstitutionName": "IUGM",
  "InstitutionalDepartmentName": "Department",
  "MRAcquisitionType": "2D",
  "MagneticFieldStrength": 3,
  "Manufacturer": "Siemens",
  "ManufacturersModelName": "Prisma_fit",
  "MatrixCoilMode": "SENSE",
  "Modality": "MR",
  "MultibandAccelerationFactor": 4,
  "PartialFourier": 1,
  "PatientPosition": "HFS",
  "PercentPhaseFOV": 100,
  "PercentSampling": 100,
  "PhaseEncodingDirection": "j",
  "PhaseEncodingSteps": 104,
  "PhaseResolution": 1,
  "PixelBandwidth": 2290,
  "ProcedureStepDescription": "games^mario",
  "ProtocolName": "func_task-mario_run-04",
  "PulseSequenceDetails": "%CustomerSeq%\\cmrr_mbep2d_bold",
  "ReceiveCoilActiveElements": "HC1-7;NC1,2",
  "ReceiveCoilName": "HeadNeck_64",
  "ReconMatrixPE": 104,
  "RepetitionTime": 1.49,
  "SAR": 0.0496167,
  "ScanOptions": "FS",
  "ScanningSequence": "EP",
  "SequenceName": "epfid2d1_104",
  "SequenceVariant": "SK\\SS",
  "SeriesDescription": "func_task-mario_run-04",
  "SeriesNumber": 19,
  "ShimSetting": [611, -7241, -8840, 374, -8, -326, 41, 35],
  "SliceThickness": 2,
  "SliceTiming": [0, 0.785, 0.0975, 0.8825, 0.1975, 0.98, 0.295, 1.0775, 0.3925, 1.1775, 0.49, 1.275, 0.5875, 1.3725, 0.6875, 0, 0.785, 0.0975, 0.8825, 0.1975, 0.98, 0.295, 1.0775, 0.3925, 1.1775, 0.49, 1.275, 0.5875, 1.3725, 0.6875, 0, 0.785, 0.0975, 0.8825, 0.1975, 0.98, 0.295, 1.0775, 0.3925, 1.1775, 0.49, 1.275, 0.5875, 1.3725, 0.6875, 0, 0.785, 0.0975, 0.8825, 0.1975, 0.98, 0.295, 1.0775, 0.3925, 1.1775, 0.49, 1.275, 0.5875, 1.3725, 0.6875],
  "SoftwareVersions": "syngo MR E11",
  "SpacingBetweenSlices": 2,
  "StationName": "MRC35049",
  "TaskName": "mario",
  "TotalReadoutTime": 0.0576811,
  "TxRefAmp": 263.584,
  "WipMemBlock": "c16e6c52-ecc2-4c1b-ae92-46f49b13929f||Sequence: R016 ve11c/master r/e634e98; Dec 19 2017 11:00:25 by eja",
  "dcmmeta_affine": [
    [-1.9994196891784668, 0.048166438937187195, -0.0008743086364120245, 101.57820129394531],
    [0.045248065143823624, 1.8651995658874512, -0.7204049825668335, -64.34913635253906],
    [0.016534291207790375, 0.7202157378196716, 1.8657480478286743, -73.87564086914062],
    [0.0, 0.0, 0.0, 1.0]
],
  "dcmmeta_reorient_transform": [
    [0.0, -1.0, 0.0, 103.0],
    [1.0, 0.0, 0.0, 0.0],
    [0.0, 0.0, 1.0, 0.0],
    [0.0, 0.0, 0.0, 1.0]
],
  "dcmmeta_shape": [104, 104, 60, 432],
  "dcmmeta_slice_dim": 2,
  "dcmmeta_version": 0.6,
  "global": {
    "const": {
      "AcquisitionMatrix": [104, 0, 0, 104],
      "AngioFlag": "N",
      "BitsAllocated": 16,
      "BitsStored": 16,
      "BodyPartExamined": "BRAIN",
      "Columns": 832,
      "EchoNumbers": 1,
      "EchoTime": 37.0,
      "EchoTrainLength": 104,
      "FlipAngle": 52.0,
      "HighBit": 15,
      "ImageOrientationPatient": [0.99970986161963, -0.022624033268, 0.00826714576792, 0.02408321981281, 0.93259976294799, -0.3601078736612],
      "ImagePositionPatient": [-851.86070878959, -790.22874767601, 256.44663453301],
      "ImageType": [
        "ORIGINAL",
        "PRIMARY",
        "M",
        "MB",
        "ND",
        "MOSAIC"
],
      "ImagedNucleus": "1H",
      "ImagingFrequency": 123.258836,
      "InPlanePhaseEncodingDirection": "COL",
      "MRAcquisitionType": "2D",
      "MagneticFieldStrength": 3.0,
      "Manufacturer": "SIEMENS",
      "ManufacturerModelName": "Prisma_fit",
      "Modality": "MR",
      "NumberOfAverages": 1.0,
      "NumberOfPhaseEncodingSteps": 104,
      "PercentPhaseFieldOfView": 100.0,
      "PercentSampling": 100.0,
      "PerformedProcedureStepStartTime": "173150.270000",
      "PhotometricInterpretation": "MONOCHROME2",
      "PixelBandwidth": 2290.0,
      "PixelRepresentation": 0,
      "PixelSpacing": [2.0, 2.0],
      "ProtocolName": "func_task-mario_run-04",
      "RepetitionTime": 1490.0,
      "Rows": 832,
      "SAR": 0.04961672910479,
      "SamplesPerPixel": 1,
      "ScanOptions": "FS",
      "ScanningSequence": "EP",
      "SequenceName": "epfid2d1_104",
      "SequenceVariant": [
        "SK",
        "SS"
],
      "SeriesDescription": "func_task-mario_run-04",
      "SeriesNumber": 19,
      "SeriesTime": "183931.297000",
      "SliceLocation": -45.782350907571,
      "SliceThickness": 2.0,
      "SmallestImagePixelValue": 0,
      "SoftwareVersions": "syngo MR E11",
      "SpacingBetweenSlices": 1.9999999437031,
      "SpecificCharacterSet": "ISO_IR 100",
      "StudyID": "1",
      "StudyTime": "173150.205000",
      "TransmitCoilName": "Body",
      "VariableFlipAngleFlag": "N",
      "WindowCenterWidthExplanation": "Algo1",
      "dBdt": 0.0},
    "slices": {}
  },
  "time": {
    "samples": {
      "AcquisitionNumber": [1, 2, 3, 4, 5, 6, 7, 8, 9, 10, 11, 12, 13, 14, 15, 16, 17, 18, 19, 20, 21, 22, 23, 24, 25, 26, 27, 28, 29, 30, 31, 32, 33, 34, 35, 36, 37, 38, 39, 40, 41, 42, 43, 44, 45, 46, 47, 48, 49, 50, 51, 52, 53, 54, 55, 56, 57, 58, 59, 60, 61, 62, 63, 64, 65, 66, 67, 68, 69, 70, 71, 72, 73, 74, 75, 76, 77, 78, 79, 80, 81, 82, 83, 84, 85, 86, 87, 88, 89, 90, 91, 92, 93, 94, 95, 96, 97, 98, 99, 100, 101, 102, 103, 104, 105, 106, 107, 108, 109, 110, 111, 112, 113, 114, 115, 116, 117, 118, 119, 120, 121, 122, 123, 124, 125, 126, 127, 128, 129, 130, 131, 132, 133, 134, 135, 136, 137, 138, 139, 140, 141, 142, 143, 144, 145, 146, 147, 148, 149, 150, 151, 152, 153, 154, 155, 156, 157, 158, 159, 160, 161, 162, 163, 164, 165, 166, 167, 168, 169, 170, 171, 172, 173, 174, 175, 176, 177, 178, 179, 180, 181, 182, 183, 184, 185, 186, 187, 188, 189, 190, 191, 192, 193, 194, 195, 196, 197, 198, 199, 200, 201, 202, 203, 204, 205, 206, 207, 208, 209, 210, 211, 212, 213, 214, 215, 216, 217, 218, 219, 220, 221, 222, 223, 224, 225, 226, 227, 228, 229, 230, 231, 232, 233, 234, 235, 236, 237, 238, 239, 240, 241, 242, 243, 244, 245, 246, 247, 248, 249, 250, 251, 252, 253, 254, 255, 256, 257, 258, 259, 260, 261, 262, 263, 264, 265, 266, 267, 268, 269, 270, 271, 272, 273, 274, 275, 276, 277, 278, 279, 280, 281, 282, 283, 284, 285, 286, 287, 288, 289, 290, 291, 292, 293, 294, 295, 296, 297, 298, 299, 300, 301, 302, 303, 304, 305, 306, 307, 308, 309, 310, 311, 312, 313, 314, 315, 316, 317, 318, 319, 320, 321, 322, 323, 324, 325, 326, 327, 328, 329, 330, 331, 332, 333, 334, 335, 336, 337, 338, 339, 340, 341, 342, 343, 344, 345, 346, 347, 348, 349, 350, 351, 352, 353, 354, 355, 356, 357, 358, 359, 360, 361, 362, 363, 364, 365, 366, 367, 368, 369, 370, 371, 372, 373, 374, 375, 376, 377, 378, 379, 380, 381, 382, 383, 384, 385, 386, 387, 388, 389, 390, 391, 392, 393, 394, 395, 396, 397, 398, 399, 400, 401, 402, 403, 404, 405, 406, 407, 408, 409, 410, 411, 412, 413, 414, 415, 416, 417, 418, 419, 420, 421, 422, 423, 424, 425, 426, 427, 428, 429, 430, 431, 432],
      "AcquisitionTime": ["183822.095000", "183823.585000", "183825.075000", "183826.565000", "183828.055000", "183829.545000", "183831.035000", "183832.525000", "183834.015000", "183835.505000", "183836.995000", "183838.485000", "183839.975000", "183841.465000", "183842.955000", "183844.445000", "183845.935000", "183847.425000", "183848.915000", "183850.405000", "183851.895000", "183853.385000", "183854.875000", "183856.365000", "183857.855000", "183859.345000", "183900.835000", "183902.325000", "183903.815000", "183905.305000", "183906.795000", "183908.285000", "183909.775000", "183911.265000", "183912.755000", "183914.245000", "183915.735000", "183917.225000", "183918.715000", "183920.205000", "183921.695000", "183923.185000", "183924.675000", "183926.165000", "183927.655000", "183929.145000", "183930.635000", "183932.125000", "183933.615000", "183935.105000", "183936.595000", "183938.085000", "183939.575000", "183941.065000", "183942.555000", "183944.045000", "183945.535000", "183947.025000", "183948.515000", "183950.005000", "183951.495000", "183952.985000", "183954.475000", "183955.965000", "183957.455000", "183958.945000", "184000.435000", "184001.925000", "184003.415000", "184004.905000", "184006.395000", "184007.885000", "184009.375000", "184010.865000", "184012.355000", "184013.845000", "184015.335000", "184016.825000", "184018.315000", "184019.805000", "184021.295000", "184022.785000", "184024.275000", "184025.765000", "184027.255000", "184028.745000", "184030.235000", "184031.725000", "184033.215000", "184034.705000", "184036.195000", "184037.685000", "184039.175000", "184040.665000", "184042.155000", "184043.645000", "184045.135000", "184046.625000", "184048.115000", "184049.605000", "184051.095000", "184052.585000", "184054.075000", "184055.565000", "184057.055000", "184058.545000", "184100.035000", "184101.525000", "184103.015000", "184104.505000", "184105.995000", "184107.485000", "184108.975000", "184110.465000", "184111.955000", "184113.445000", "184114.935000", "184116.425000", "184117.915000", "184119.405000", "184120.895000", "184122.385000", "184123.875000", "184125.365000", "184126.855000", "184128.345000", "184129.835000", "184131.325000", "184132.815000", "184134.305000", "184135.795000", "184137.285000", "184138.775000", "184140.265000", "184141.755000", "184143.245000", "184144.735000", "184146.225000", "184147.715000", "184149.205000", "184150.695000", "184152.185000", "184153.675000", "184155.165000", "184156.655000", "184158.145000", "184159.635000", "184201.125000", "184202.615000", "184204.105000", "184205.595000", "184207.085000", "184208.575000", "184210.065000", "184211.555000", "184213.045000", "184214.535000", "184216.025000", "184217.515000", "184219.005000", "184220.495000", "184221.985000", "184223.475000", "184224.965000", "184226.455000", "184227.945000", "184229.435000", "184230.925000", "184232.415000", "184233.905000", "184235.395000", "184236.885000", "184238.375000", "184239.865000", "184241.355000", "184242.845000", "184244.335000", "184245.825000", "184247.315000", "184248.805000", "184250.295000", "184251.785000", "184253.275000", "184254.765000", "184256.255000", "184257.745000", "184259.235000", "184300.725000", "184302.215000", "184303.705000", "184305.195000", "184306.685000", "184308.175000", "184309.665000", "184311.155000", "184312.645000", "184314.135000", "184315.625000", "184317.115000", "184318.605000", "184320.095000", "184321.585000", "184323.075000", "184324.565000", "184326.055000", "184327.545000", "184329.035000", "184330.525000", "184332.015000", "184333.505000", "184334.995000", "184336.485000", "184337.975000", "184339.465000", "184340.955000", "184342.445000", "184343.935000", "184345.425000", "184346.915000", "184348.405000", "184349.895000", "184351.385000", "184352.875000", "184354.365000", "184355.855000", "184357.345000", "184358.835000", "184400.325000", "184401.815000", "184403.305000", "184404.795000", "184406.285000", "184407.775000", "184409.265000", "184410.755000", "184412.245000", "184413.735000", "184415.225000", "184416.715000", "184418.205000", "184419.695000", "184421.185000", "184422.675000", "184424.165000", "184425.655000", "184427.145000", "184428.635000", "184430.125000", "184431.615000", "184433.105000", "184434.595000", "184436.085000", "184437.575000", "184439.065000", "184440.555000", "184442.045000", "184443.535000", "184445.025000", "184446.515000", "184448.005000", "184449.495000", "184450.985000", "184452.475000", "184453.965000", "184455.455000", "184456.945000", "184458.435000", "184459.925000", "184501.415000", "184502.905000", "184504.395000", "184505.885000", "184507.375000", "184508.865000", "184510.355000", "184511.845000", "184513.335000", "184514.825000", "184516.315000", "184517.805000", "184519.295000", "184520.785000", "184522.275000", "184523.765000", "184525.255000", "184526.745000", "184528.235000", "184529.725000", "184531.215000", "184532.705000", "184534.195000", "184535.685000", "184537.175000", "184538.665000", "184540.155000", "184541.645000", "184543.135000", "184544.625000", "184546.115000", "184547.605000", "184549.095000", "184550.585000", "184552.075000", "184553.565000", "184555.055000", "184556.545000", "184558.035000", "184559.525000", "184601.015000", "184602.505000", "184603.995000", "184605.485000", "184606.975000", "184608.465000", "184609.955000", "184611.445000", "184612.935000", "184614.425000", "184615.915000", "184617.405000", "184618.895000", "184620.385000", "184621.875000", "184623.365000", "184624.855000", "184626.345000", "184627.835000", "184629.325000", "184630.815000", "184632.305000", "184633.795000", "184635.285000", "184636.775000", "184638.265000", "184639.755000", "184641.245000", "184642.735000", "184644.225000", "184645.715000", "184647.205000", "184648.695000", "184650.185000", "184651.675000", "184653.165000", "184654.655000", "184656.145000", "184657.635000", "184659.125000", "184700.615000", "184702.105000", "184703.595000", "184705.085000", "184706.575000", "184708.065000", "184709.555000", "184711.045000", "184712.535000", "184714.025000", "184715.515000", "184717.005000", "184718.495000", "184719.985000", "184721.475000", "184722.965000", "184724.455000", "184725.945000", "184727.435000", "184728.925000", "184730.415000", "184731.905000", "184733.395000", "184734.885000", "184736.375000", "184737.865000", "184739.355000", "184740.845000", "184742.335000", "184743.825000", "184745.315000", "184746.805000", "184748.295000", "184749.785000", "184751.275000", "184752.765000", "184754.255000", "184755.745000", "184757.235000", "184758.725000", "184800.215000", "184801.705000", "184803.195000", "184804.685000", "184806.175000", "184807.665000", "184809.155000", "184810.645000", "184812.135000", "184813.625000", "184815.115000", "184816.605000", "184818.095000", "184819.585000", "184821.075000", "184822.565000", "184824.055000", "184825.545000", "184827.035000", "184828.525000", "184830.015000", "184831.505000", "184832.995000", "184834.485000", "184835.975000", "184837.465000", "184838.955000", "184840.445000", "184841.935000", "184843.425000", "184844.915000", "184846.405000", "184847.895000", "184849.385000", "184850.875000", "184852.365000", "184853.855000", "184855.345000", "184856.835000", "184858.325000", "184859.815000", "184901.305000", "184902.795000", "184904.285000"],
      "ContentTime": ["183931.300000", "183931.304000", "183931.307000", "183931.311000", "183931.314000", "183931.317000", "183931.320000", "183931.324000", "183931.327000", "183931.330000", "183931.333000", "183931.336000", "183931.340000", "183931.343000", "183931.346000", "183951.256000", "183951.260000", "183951.263000", "183951.266000", "183951.269000", "183951.273000", "183951.276000", "183951.279000", "183951.282000", "183951.285000", "183951.289000", "183951.292000", "183951.295000", "183951.299000", "183951.307000", "183951.310000", "183951.313000", "183951.316000", "183951.319000", "183951.323000", "184011.255000", "184011.259000", "184011.262000", "184011.265000", "184011.268000", "184011.272000", "184011.275000", "184011.278000", "184011.281000", "184011.292000", "184011.295000", "184011.298000", "184011.302000", "184011.305000", "184011.308000", "184011.311000", "184011.315000", "184011.318000", "184011.321000", "184011.324000", "184031.256000", "184031.260000", "184031.263000", "184031.266000", "184031.269000", "184031.273000", "184031.276000", "184031.279000", "184031.282000", "184031.285000", "184031.289000", "184031.292000", "184031.316000", "184031.319000", "184031.322000", "184031.326000", "184031.329000", "184031.332000", "184031.335000", "184031.339000", "184031.342000", "184051.256000", "184051.260000", "184051.263000", "184051.266000", "184051.269000", "184051.273000", "184051.276000", "184051.279000", "184051.282000", "184051.286000", "184051.289000", "184051.292000", "184051.295000", "184051.299000", "184051.302000", "184051.305000", "184051.308000", "184051.311000", "184051.315000", "184051.318000", "184131.256000", "184131.260000", "184131.263000", "184131.266000", "184131.269000", "184131.273000", "184131.276000", "184131.279000", "184131.282000", "184131.286000", "184131.289000", "184131.292000", "184131.296000", "184131.299000", "184131.302000", "184131.305000", "184131.309000", "184131.312000", "184131.315000", "184131.318000", "184131.322000", "184131.325000", "184131.328000", "184131.331000", "184131.335000", "184131.338000", "184131.341000", "184131.345000", "184131.348000", "184131.351000", "184211.255000", "184211.259000", "184211.262000", "184211.265000", "184211.269000", "184211.272000", "184211.275000", "184211.278000", "184211.282000", "184211.285000", "184211.288000", "184211.291000", "184211.295000", "184211.298000", "184211.301000", "184211.305000", "184211.308000", "184211.311000", "184211.314000", "184211.318000", "184211.321000", "184211.324000", "184211.327000", "184211.330000", "184211.334000", "184211.337000", "184211.340000", "184251.256000", "184251.260000", "184251.263000", "184251.267000", "184251.270000", "184251.273000", "184251.276000", "184251.280000", "184251.283000", "184251.286000", "184251.290000", "184251.293000", "184251.296000", "184251.299000", "184251.323000", "184251.328000", "184251.332000", "184251.335000", "184251.338000", "184251.341000", "184251.345000", "184251.348000", "184251.351000", "184251.355000", "184251.358000", "184251.361000", "184331.256000", "184331.260000", "184331.263000", "184331.266000", "184331.270000", "184331.273000", "184331.276000", "184331.280000", "184331.283000", "184331.286000", "184331.289000", "184331.293000", "184331.296000", "184331.299000", "184331.302000", "184331.306000", "184331.309000", "184331.312000", "184331.315000", "184331.319000", "184331.322000", "184331.325000", "184331.329000", "184331.332000", "184331.335000", "184331.338000", "184331.342000", "184411.256000", "184411.260000", "184411.263000", "184411.266000", "184411.269000", "184411.273000", "184411.276000", "184411.279000", "184411.283000", "184411.286000", "184411.289000", "184411.292000", "184411.296000", "184411.299000", "184411.302000", "184411.306000", "184411.309000", "184411.312000", "184411.315000", "184411.319000", "184411.322000", "184411.325000", "184411.328000", "184411.332000", "184411.335000", "184411.338000", "184411.342000", "184451.255000", "184451.259000", "184451.262000", "184451.266000", "184451.269000", "184451.272000", "184451.275000", "184451.279000", "184451.282000", "184451.285000", "184451.289000", "184451.292000", "184451.295000", "184451.298000", "184451.302000", "184451.305000", "184451.308000", "184451.311000", "184451.315000", "184451.318000", "184451.321000", "184451.324000", "184451.328000", "184451.331000", "184451.334000", "184451.337000", "184451.341000", "184531.256000", "184531.260000", "184531.263000", "184531.266000", "184531.270000", "184531.273000", "184531.292000", "184531.295000", "184531.298000", "184531.301000", "184531.305000", "184531.308000", "184531.311000", "184531.315000", "184531.318000", "184531.321000", "184531.324000", "184531.328000", "184531.331000", "184531.334000", "184531.338000", "184531.341000", "184531.344000", "184531.348000", "184531.351000", "184531.354000", "184531.357000", "184611.256000", "184611.260000", "184611.264000", "184611.267000", "184611.270000", "184611.274000", "184611.277000", "184611.281000", "184611.284000", "184611.287000", "184611.291000", "184611.294000", "184611.298000", "184611.302000", "184611.305000", "184611.309000", "184611.312000", "184611.315000", "184611.319000", "184611.322000", "184611.325000", "184611.329000", "184611.332000", "184611.335000", "184611.339000", "184611.342000", "184611.345000", "184651.255000", "184651.259000", "184651.262000", "184651.265000", "184651.268000", "184651.272000", "184651.275000", "184651.278000", "184651.282000", "184651.285000", "184651.288000", "184651.291000", "184651.295000", "184651.298000", "184651.301000", "184651.305000", "184651.308000", "184651.311000", "184651.314000", "184651.318000", "184651.321000", "184651.324000", "184651.327000", "184651.331000", "184651.334000", "184651.337000", "184651.340000", "184731.256000", "184731.260000", "184731.263000", "184731.267000", "184731.270000", "184731.273000", "184731.276000", "184731.280000", "184731.283000", "184731.286000", "184731.289000", "184731.293000", "184731.296000", "184731.299000", "184731.303000", "184731.306000", "184731.309000", "184731.312000", "184731.316000", "184731.320000", "184731.323000", "184731.338000", "184731.342000", "184731.345000", "184731.348000", "184731.352000", "184811.256000", "184811.260000", "184811.264000", "184811.267000", "184811.270000", "184811.273000", "184811.277000", "184811.280000", "184811.283000", "184811.287000", "184811.290000", "184811.293000", "184811.297000", "184811.300000", "184811.303000", "184811.307000", "184811.310000", "184811.313000", "184811.316000", "184811.320000", "184811.323000", "184811.327000", "184811.330000", "184811.333000", "184811.336000", "184811.340000", "184811.343000", "184851.256000", "184851.260000", "184851.263000", "184851.267000", "184851.270000", "184851.273000", "184851.276000", "184851.280000", "184851.283000", "184851.286000", "184851.289000", "184851.292000", "184851.296000", "184851.299000", "184851.302000", "184851.306000", "184851.309000", "184851.312000", "184851.315000", "184851.319000", "184851.322000", "184851.325000", "184851.328000", "184851.332000", "184851.335000", "184851.338000", "184851.341000", "184907.737000", "184907.740000", "184907.744000", "184907.747000", "184907.750000", "184907.754000", "184907.757000", "184907.760000", "184907.763000", "184907.767000", "184907.770000"],
      "InstanceCreationTime": ["183931.300000", "183931.304000", "183931.307000", "183931.311000", "183931.314000", "183931.317000", "183931.320000", "183931.324000", "183931.327000", "183931.330000", "183931.333000", "183931.336000", "183931.340000", "183931.343000", "183931.346000", "183951.256000", "183951.260000", "183951.263000", "183951.266000", "183951.269000", "183951.273000", "183951.276000", "183951.279000", "183951.282000", "183951.285000", "183951.289000", "183951.292000", "183951.295000", "183951.299000", "183951.307000", "183951.310000", "183951.313000", "183951.316000", "183951.319000", "183951.323000", "184011.255000", "184011.259000", "184011.262000", "184011.265000", "184011.268000", "184011.272000", "184011.275000", "184011.278000", "184011.281000", "184011.292000", "184011.295000", "184011.298000", "184011.302000", "184011.305000", "184011.308000", "184011.311000", "184011.315000", "184011.318000", "184011.321000", "184011.324000", "184031.256000", "184031.260000", "184031.263000", "184031.266000", "184031.269000", "184031.273000", "184031.276000", "184031.279000", "184031.282000", "184031.285000", "184031.289000", "184031.292000", "184031.316000", "184031.319000", "184031.322000", "184031.326000", "184031.329000", "184031.332000", "184031.335000", "184031.339000", "184031.342000", "184051.256000", "184051.260000", "184051.263000", "184051.266000", "184051.269000", "184051.273000", "184051.276000", "184051.279000", "184051.282000", "184051.286000", "184051.289000", "184051.292000", "184051.295000", "184051.299000", "184051.302000", "184051.305000", "184051.308000", "184051.311000", "184051.315000", "184051.318000", "184131.256000", "184131.260000", "184131.263000", "184131.266000", "184131.269000", "184131.273000", "184131.276000", "184131.279000", "184131.282000", "184131.286000", "184131.289000", "184131.292000", "184131.296000", "184131.299000", "184131.302000", "184131.305000", "184131.309000", "184131.312000", "184131.315000", "184131.318000", "184131.322000", "184131.325000", "184131.328000", "184131.331000", "184131.335000", "184131.338000", "184131.341000", "184131.345000", "184131.348000", "184131.351000", "184211.255000", "184211.259000", "184211.262000", "184211.265000", "184211.269000", "184211.272000", "184211.275000", "184211.278000", "184211.282000", "184211.285000", "184211.288000", "184211.291000", "184211.295000", "184211.298000", "184211.301000", "184211.305000", "184211.308000", "184211.311000", "184211.314000", "184211.318000", "184211.321000", "184211.324000", "184211.327000", "184211.330000", "184211.334000", "184211.337000", "184211.340000", "184251.256000", "184251.260000", "184251.263000", "184251.267000", "184251.270000", "184251.273000", "184251.276000", "184251.280000", "184251.283000", "184251.286000", "184251.290000", "184251.293000", "184251.296000", "184251.299000", "184251.323000", "184251.328000", "184251.332000", "184251.335000", "184251.338000", "184251.341000", "184251.345000", "184251.348000", "184251.351000", "184251.355000", "184251.358000", "184251.361000", "184331.256000", "184331.260000", "184331.263000", "184331.266000", "184331.270000", "184331.273000", "184331.276000", "184331.280000", "184331.283000", "184331.286000", "184331.289000", "184331.293000", "184331.296000", "184331.299000", "184331.302000", "184331.306000", "184331.309000", "184331.312000", "184331.315000", "184331.319000", "184331.322000", "184331.325000", "184331.329000", "184331.332000", "184331.335000", "184331.338000", "184331.342000", "184411.256000", "184411.260000", "184411.263000", "184411.266000", "184411.269000", "184411.273000", "184411.276000", "184411.279000", "184411.283000", "184411.286000", "184411.289000", "184411.292000", "184411.296000", "184411.299000", "184411.302000", "184411.306000", "184411.309000", "184411.312000", "184411.315000", "184411.319000", "184411.322000", "184411.325000", "184411.328000", "184411.332000", "184411.335000", "184411.338000", "184411.342000", "184451.255000", "184451.259000", "184451.262000", "184451.266000", "184451.269000", "184451.272000", "184451.275000", "184451.279000", "184451.282000", "184451.285000", "184451.289000", "184451.292000", "184451.295000", "184451.298000", "184451.302000", "184451.305000", "184451.308000", "184451.311000", "184451.315000", "184451.318000", "184451.321000", "184451.324000", "184451.328000", "184451.331000", "184451.334000", "184451.337000", "184451.341000", "184531.256000", "184531.260000", "184531.263000", "184531.266000", "184531.270000", "184531.273000", "184531.292000", "184531.295000", "184531.298000", "184531.301000", "184531.305000", "184531.308000", "184531.311000", "184531.315000", "184531.318000", "184531.321000", "184531.324000", "184531.328000", "184531.331000", "184531.334000", "184531.338000", "184531.341000", "184531.344000", "184531.348000", "184531.351000", "184531.354000", "184531.357000", "184611.256000", "184611.260000", "184611.264000", "184611.267000", "184611.270000", "184611.274000", "184611.277000", "184611.281000", "184611.284000", "184611.287000", "184611.291000", "184611.294000", "184611.298000", "184611.302000", "184611.305000", "184611.309000", "184611.312000", "184611.315000", "184611.319000", "184611.322000", "184611.325000", "184611.329000", "184611.332000", "184611.335000", "184611.339000", "184611.342000", "184611.345000", "184651.255000", "184651.259000", "184651.262000", "184651.265000", "184651.268000", "184651.272000", "184651.275000", "184651.278000", "184651.282000", "184651.285000", "184651.288000", "184651.291000", "184651.295000", "184651.298000", "184651.301000", "184651.305000", "184651.308000", "184651.311000", "184651.314000", "184651.318000", "184651.321000", "184651.324000", "184651.327000", "184651.331000", "184651.334000", "184651.337000", "184651.340000", "184731.256000", "184731.260000", "184731.263000", "184731.267000", "184731.270000", "184731.273000", "184731.276000", "184731.280000", "184731.283000", "184731.286000", "184731.289000", "184731.293000", "184731.296000", "184731.299000", "184731.303000", "184731.306000", "184731.309000", "184731.312000", "184731.316000", "184731.320000", "184731.323000", "184731.338000", "184731.342000", "184731.345000", "184731.348000", "184731.352000", "184811.256000", "184811.260000", "184811.264000", "184811.267000", "184811.270000", "184811.273000", "184811.277000", "184811.280000", "184811.283000", "184811.287000", "184811.290000", "184811.293000", "184811.297000", "184811.300000", "184811.303000", "184811.307000", "184811.310000", "184811.313000", "184811.316000", "184811.320000", "184811.323000", "184811.327000", "184811.330000", "184811.333000", "184811.336000", "184811.340000", "184811.343000", "184851.256000", "184851.260000", "184851.263000", "184851.267000", "184851.270000", "184851.273000", "184851.276000", "184851.280000", "184851.283000", "184851.286000", "184851.289000", "184851.292000", "184851.296000", "184851.299000", "184851.302000", "184851.306000", "184851.309000", "184851.312000", "184851.315000", "184851.319000", "184851.322000", "184851.325000", "184851.328000", "184851.332000", "184851.335000", "184851.338000", "184851.341000", "184907.737000", "184907.740000", "184907.744000", "184907.747000", "184907.750000", "184907.754000", "184907.757000", "184907.760000", "184907.763000", "184907.767000", "184907.770000"],
