{
  "AcquisitionMatrixPE": 104,
  "AcquisitionNumber": 1,
  "AcquisitionTime": "14:01:15.887500",
  "BandwidthPerPixelPhaseEncode": 17.17,
  "BaseResolution": 104,
  "BodyPartExamined": "BRAIN",
  "CoilString": "HC1-7;NC1_2",
  "ConsistencyInfo": "N4_VE11C_LATEST_20160120",
  "ConversionSoftware": "dcm2niix",
  "ConversionSoftwareVersion": "v1.0.20190902",
  "DerivedVendorReportedEchoSpacing": 0.000560011,
  "DeviceSerialNumber": "167006",
  "DwellTime": 2.1e-06,
  "EchoTime": 0.037,
  "EchoTrainLength": 104,
  "EffectiveEchoSpacing": 0.000560011,
  "FlipAngle": 52,
  "HeudiconvVersion": "0.10.0",
  "ImageComments": "Unaliased_MB4_PE3_LB",
  "ImageOrientationPatientDICOM": [0.998149, 0.0408578, 0.0450404, -0.0212568, 0.92836, -0.371073],
  "ImageType": [
    "ORIGINAL",
    "PRIMARY",
    "M",
    "MB",
    "ND",
    "MOSAIC"
],
  "ImagingFrequency": 123.259,
  "InPlanePhaseEncodingDirectionDICOM": "COL",
  "InstitutionAddress": "Chemin_Queen-Mary_4565_Montreal_District_CA_H3W_1W5",
  "InstitutionName": "IUGM",
  "InstitutionalDepartmentName": "Department",
  "MRAcquisitionType": "2D",
  "MagneticFieldStrength": 3,
  "Manufacturer": "Siemens",
  "ManufacturersModelName": "Prisma_fit",
  "Modality": "MR",
  "MultibandAccelerationFactor": 4,
  "PartialFourier": 1,
  "PatientPosition": "HFS",
  "PercentPhaseFOV": 100,
  "PhaseEncodingDirection": "j",
  "PhaseEncodingSteps": 104,
  "PhaseResolution": 1,
  "PixelBandwidth": 2290,
  "ProcedureStepDescription": "games_mario",
  "ProtocolName": "func_task-mario_run-01",
  "PulseSequenceDetails": "%CustomerSeq%_cmrr_mbep2d_bold",
  "ReceiveCoilActiveElements": "HC1-7;NC1,2",
  "ReceiveCoilName": "HeadNeck_64",
  "ReconMatrixPE": 104,
  "RepetitionTime": 1.49,
  "SAR": 0.0663035,
  "ScanOptions": "FS",
  "ScanningSequence": "EP",
  "SequenceName": "epfid2d1_104",
  "SequenceVariant": "SK_SS",
  "SeriesDescription": "func_task-mario_run-01",
  "SeriesNumber": 10,
  "ShimSetting": [627, -7163, -8857, 636, 79, 135, -10, -5],
  "SliceThickness": 2,
  "SliceTiming": [0, 0.785, 0.0975, 0.8825, 0.1975, 0.98, 0.295, 1.0775, 0.3925, 1.175, 0.49, 1.275, 0.5875, 1.3725, 0.685, 0, 0.785, 0.0975, 0.8825, 0.1975, 0.98, 0.295, 1.0775, 0.3925, 1.175, 0.49, 1.275, 0.5875, 1.3725, 0.685, 0, 0.785, 0.0975, 0.8825, 0.1975, 0.98, 0.295, 1.0775, 0.3925, 1.175, 0.49, 1.275, 0.5875, 1.3725, 0.685, 0, 0.785, 0.0975, 0.8825, 0.1975, 0.98, 0.295, 1.0775, 0.3925, 1.175, 0.49, 1.275, 0.5875, 1.3725, 0.685],
  "SoftwareVersions": "syngo_MR_E11",
  "SpacingBetweenSlices": 2,
  "StationName": "MRC35049",
  "TaskName": "mario",
  "TotalReadoutTime": 0.0576811,
  "TxRefAmp": 320.286,
  "WipMemBlock": "edd2a2f8-05ae-4829-abd4-b54faf58ab71||Sequence: R016 ve11c/master r/e634e98; Dec 19 2017 11:00:25 by eja",
  "dcmmeta_affine": [
    [-1.9962985515594482, -0.04251369833946228, 0.11394988000392914, 106.32657623291016],
    [-0.0817156732082367, 1.8567204475402832, -0.7388583421707153, -54.501651763916016],
    [0.09008073806762695, 0.7421466708183289, 1.8550212383270264, -78.37899780273438],
    [0.0, 0.0, 0.0, 1.0]
],
  "dcmmeta_reorient_transform": [
    [0.0, -1.0, 0.0, 103.0],
    [1.0, 0.0, 0.0, 0.0],
    [0.0, 0.0, 1.0, 0.0],
    [0.0, 0.0, 0.0, 1.0]
],
  "dcmmeta_shape": [104, 104, 60, 449],
  "dcmmeta_slice_dim": 2,
  "dcmmeta_version": 0.6,
  "global": {
    "const": {
      "AcquisitionMatrix": [104, 0, 0, 104],
      "AngioFlag": "N",
      "BitsAllocated": 16,
      "BitsStored": 16,
      "BodyPartExamined": "BRAIN",
      "Columns": 832,
      "EchoNumbers": 1,
      "EchoTime": 37.0,
      "EchoTrainLength": 104,
      "FlipAngle": 52.0,
      "HighBit": 15,
      "ImageOrientationPatient": [0.99814928869648, 0.04085783527955, 0.04504036823765, -0.0212568494355, 0.92836023019757, -0.3710733476546],
      "ImagePositionPatient": [-813.1253616864, -842.33130593472, 235.41411721963],
      "ImageType": [
        "ORIGINAL",
        "PRIMARY",
        "M",
        "MB",
        "ND",
        "MOSAIC"
],
      "ImagedNucleus": "1H",
      "ImagingFrequency": 123.258893,
      "InPlanePhaseEncodingDirection": "COL",
      "MRAcquisitionType": "2D",
      "MagneticFieldStrength": 3.0,
      "Manufacturer": "SIEMENS",
      "ManufacturerModelName": "Prisma_fit",
      "Modality": "MR",
      "NumberOfAverages": 1.0,
      "NumberOfPhaseEncodingSteps": 104,
      "PercentPhaseFieldOfView": 100.0,
      "PercentSampling": 100.0,
      "PerformedProcedureStepStartTime": "121120.470000",
      "PhotometricInterpretation": "MONOCHROME2",
      "PixelBandwidth": 2290.0,
      "PixelRepresentation": 0,
      "PixelSpacing": [2.0, 2.0],
      "ProtocolName": "func_task-mario_run-01",
      "RepetitionTime": 1490.0,
      "Rows": 832,
      "SAR": 0.066303450855,
      "SamplesPerPixel": 1,
      "ScanOptions": "FS",
      "ScanningSequence": "EP",
      "SequenceName": "epfid2d1_104",
      "SequenceVariant": [
        "SK",
        "SS"
],
      "SeriesDescription": "func_task-mario_run-01",
      "SeriesNumber": 10,
      "SeriesTime": "140239.398000",
      "SliceLocation": -46.50490409018,
      "SliceThickness": 2.0,
      "SmallestImagePixelValue": 0,
      "SoftwareVersions": "syngo MR E11",
      "SpacingBetweenSlices": 1.9999999981647,
      "SpecificCharacterSet": "ISO_IR 100",
      "StudyID": "1",
      "StudyTime": "121119.986000",
      "TransmitCoilName": "Body",
      "VariableFlipAngleFlag": "N",
      "dBdt": 0.0},
    "slices": {}
  },
  "time": {
    "samples": {
      "AcquisitionNumber": [1, 2, 3, 4, 5, 6, 7, 8, 9, 10, 11, 12, 13, 14, 15, 16, 17, 18, 19, 20, 21, 22, 23, 24, 25, 26, 27, 28, 29, 30, 31, 32, 33, 34, 35, 36, 37, 38, 39, 40, 41, 42, 43, 44, 45, 46, 47, 48, 49, 50, 51, 52, 53, 54, 55, 56, 57, 58, 59, 60, 61, 62, 63, 64, 65, 66, 67, 68, 69, 70, 71, 72, 73, 74, 75, 76, 77, 78, 79, 80, 81, 82, 83, 84, 85, 86, 87, 88, 89, 90, 91, 92, 93, 94, 95, 96, 97, 98, 99, 100, 101, 102, 103, 104, 105, 106, 107, 108, 109, 110, 111, 112, 113, 114, 115, 116, 117, 118, 119, 120, 121, 122, 123, 124, 125, 126, 127, 128, 129, 130, 131, 132, 133, 134, 135, 136, 137, 138, 139, 140, 141, 142, 143, 144, 145, 146, 147, 148, 149, 150, 151, 152, 153, 154, 155, 156, 157, 158, 159, 160, 161, 162, 163, 164, 165, 166, 167, 168, 169, 170, 171, 172, 173, 174, 175, 176, 177, 178, 179, 180, 181, 182, 183, 184, 185, 186, 187, 188, 189, 190, 191, 192, 193, 194, 195, 196, 197, 198, 199, 200, 201, 202, 203, 204, 205, 206, 207, 208, 209, 210, 211, 212, 213, 214, 215, 216, 217, 218, 219, 220, 221, 222, 223, 224, 225, 226, 227, 228, 229, 230, 231, 232, 233, 234, 235, 236, 237, 238, 239, 240, 241, 242, 243, 244, 245, 246, 247, 248, 249, 250, 251, 252, 253, 254, 255, 256, 257, 258, 259, 260, 261, 262, 263, 264, 265, 266, 267, 268, 269, 270, 271, 272, 273, 274, 275, 276, 277, 278, 279, 280, 281, 282, 283, 284, 285, 286, 287, 288, 289, 290, 291, 292, 293, 294, 295, 296, 297, 298, 299, 300, 301, 302, 303, 304, 305, 306, 307, 308, 309, 310, 311, 312, 313, 314, 315, 316, 317, 318, 319, 320, 321, 322, 323, 324, 325, 326, 327, 328, 329, 330, 331, 332, 333, 334, 335, 336, 337, 338, 339, 340, 341, 342, 343, 344, 345, 346, 347, 348, 349, 350, 351, 352, 353, 354, 355, 356, 357, 358, 359, 360, 361, 362, 363, 364, 365, 366, 367, 368, 369, 370, 371, 372, 373, 374, 375, 376, 377, 378, 379, 380, 381, 382, 383, 384, 385, 386, 387, 388, 389, 390, 391, 392, 393, 394, 395, 396, 397, 398, 399, 400, 401, 402, 403, 404, 405, 406, 407, 408, 409, 410, 411, 412, 413, 414, 415, 416, 417, 418, 419, 420, 421, 422, 423, 424, 425, 426, 427, 428, 429, 430, 431, 432, 433, 434, 435, 436, 437, 438, 439, 440, 441, 442, 443, 444, 445, 446, 447, 448, 449],
      "AcquisitionTime": ["140115.887500", "140117.377500", "140118.867500", "140120.357500", "140121.847500", "140123.337500", "140124.827500", "140126.317500", "140127.807500", "140129.297500", "140130.787500", "140132.277500", "140133.767500", "140135.257500", "140136.747500", "140138.237500", "140139.727500", "140141.217500", "140142.707500", "140144.197500", "140145.687500", "140147.177500", "140148.667500", "140150.157500", "140151.647500", "140153.137500", "140154.627500", "140156.117500", "140157.607500", "140159.097500", "140200.587500", "140202.077500", "140203.567500", "140205.057500", "140206.547500", "140208.037500", "140209.527500", "140211.017500", "140212.507500", "140213.997500", "140215.487500", "140216.977500", "140218.467500", "140219.957500", "140221.447500", "140222.937500", "140224.427500", "140225.917500", "140227.407500", "140228.897500", "140230.387500", "140231.877500", "140233.367500", "140234.857500", "140236.347500", "140237.837500", "140239.327500", "140240.817500", "140242.307500", "140243.797500", "140245.287500", "140246.777500", "140248.267500", "140249.757500", "140251.247500", "140252.737500", "140254.227500", "140255.717500", "140257.207500", "140258.697500", "140300.187500", "140301.677500", "140303.167500", "140304.657500", "140306.147500", "140307.637500", "140309.127500", "140310.617500", "140312.107500", "140313.597500", "140315.087500", "140316.577500", "140318.067500", "140319.557500", "140321.047500", "140322.537500", "140324.027500", "140325.517500", "140327.007500", "140328.497500", "140329.987500", "140331.477500", "140332.967500", "140334.457500", "140335.947500", "140337.437500", "140338.927500", "140340.417500", "140341.907500", "140343.397500", "140344.887500", "140346.377500", "140347.867500", "140349.357500", "140350.847500", "140352.337500", "140353.827500", "140355.317500", "140356.807500", "140358.297500", "140359.787500", "140401.277500", "140402.767500", "140404.257500", "140405.747500", "140407.237500", "140408.727500", "140410.217500", "140411.707500", "140413.197500", "140414.687500", "140416.177500", "140417.667500", "140419.157500", "140420.647500", "140422.137500", "140423.627500", "140425.117500", "140426.607500", "140428.097500", "140429.587500", "140431.077500", "140432.567500", "140434.057500", "140435.547500", "140437.037500", "140438.527500", "140440.017500", "140441.507500", "140442.997500", "140444.487500", "140445.977500", "140447.467500", "140448.957500", "140450.447500", "140451.937500", "140453.427500", "140454.917500", "140456.407500", "140457.897500", "140459.387500", "140500.877500", "140502.367500", "140503.857500", "140505.347500", "140506.837500", "140508.327500", "140509.817500", "140511.307500", "140512.797500", "140514.287500", "140515.777500", "140517.267500", "140518.757500", "140520.247500", "140521.737500", "140523.227500", "140524.717500", "140526.207500", "140527.697500", "140529.187500", "140530.677500", "140532.167500", "140533.657500", "140535.147500", "140536.637500", "140538.127500", "140539.617500", "140541.107500", "140542.597500", "140544.087500", "140545.577500", "140547.067500", "140548.557500", "140550.047500", "140551.537500", "140553.027500", "140554.517500", "140556.007500", "140557.497500", "140558.987500", "140600.477500", "140601.967500", "140603.457500", "140604.947500", "140606.437500", "140607.927500", "140609.417500", "140610.907500", "140612.397500", "140613.887500", "140615.377500", "140616.867500", "140618.357500", "140619.847500", "140621.337500", "140622.827500", "140624.317500", "140625.807500", "140627.297500", "140628.787500", "140630.277500", "140631.767500", "140633.257500", "140634.747500", "140636.237500", "140637.727500", "140639.217500", "140640.707500", "140642.197500", "140643.687500", "140645.177500", "140646.667500", "140648.157500", "140649.647500", "140651.137500", "140652.627500", "140654.117500", "140655.607500", "140657.097500", "140658.587500", "140700.077500", "140701.567500", "140703.057500", "140704.547500", "140706.037500", "140707.527500", "140709.017500", "140710.507500", "140711.997500", "140713.487500", "140714.977500", "140716.467500", "140717.957500", "140719.447500", "140720.937500", "140722.427500", "140723.917500", "140725.407500", "140726.897500", "140728.387500", "140729.877500", "140731.367500", "140732.857500", "140734.347500", "140735.837500", "140737.327500", "140738.817500", "140740.307500", "140741.797500", "140743.287500", "140744.777500", "140746.267500", "140747.757500", "140749.247500", "140750.737500", "140752.227500", "140753.717500", "140755.207500", "140756.697500", "140758.187500", "140759.677500", "140801.167500", "140802.657500", "140804.147500", "140805.637500", "140807.127500", "140808.617500", "140810.107500", "140811.597500", "140813.087500", "140814.577500", "140816.067500", "140817.557500", "140819.047500", "140820.537500", "140822.027500", "140823.517500", "140825.007500", "140826.497500", "140827.987500", "140829.477500", "140830.967500", "140832.457500", "140833.947500", "140835.437500", "140836.927500", "140838.417500", "140839.907500", "140841.397500", "140842.887500", "140844.377500", "140845.867500", "140847.357500", "140848.847500", "140850.337500", "140851.827500", "140853.317500", "140854.807500", "140856.297500", "140857.787500", "140859.277500", "140900.767500", "140902.257500", "140903.747500", "140905.237500", "140906.727500", "140908.217500", "140909.707500", "140911.197500", "140912.687500", "140914.177500", "140915.667500", "140917.157500", "140918.647500", "140920.137500", "140921.627500", "140923.117500", "140924.607500", "140926.097500", "140927.587500", "140929.077500", "140930.567500", "140932.057500", "140933.547500", "140935.037500", "140936.527500", "140938.017500", "140939.507500", "140940.997500", "140942.487500", "140943.977500", "140945.467500", "140946.957500", "140948.447500", "140949.937500", "140951.427500", "140952.917500", "140954.407500", "140955.897500", "140957.387500", "140958.877500", "141000.367500", "141001.857500", "141003.347500", "141004.837500", "141006.327500", "141007.817500", "141009.307500", "141010.797500", "141012.287500", "141013.777500", "141015.267500", "141016.757500", "141018.247500", "141019.737500", "141021.227500", "141022.717500", "141024.207500", "141025.697500", "141027.187500", "141028.677500", "141030.167500", "141031.657500", "141033.147500", "141034.637500", "141036.127500", "141037.617500", "141039.107500", "141040.597500", "141042.087500", "141043.577500", "141045.067500", "141046.557500", "141048.047500", "141049.537500", "141051.027500", "141052.517500", "141054.007500", "141055.497500", "141056.987500", "141058.477500", "141059.967500", "141101.457500", "141102.947500", "141104.437500", "141105.927500", "141107.417500", "141108.907500", "141110.397500", "141111.887500", "141113.377500", "141114.867500", "141116.357500", "141117.847500", "141119.337500", "141120.827500", "141122.317500", "141123.807500", "141125.297500", "141126.787500", "141128.277500", "141129.767500", "141131.257500", "141132.747500", "141134.237500", "141135.727500", "141137.217500", "141138.707500", "141140.197500", "141141.687500", "141143.177500", "141144.667500", "141146.157500", "141147.647500", "141149.137500", "141150.627500", "141152.117500", "141153.607500", "141155.097500", "141156.587500", "141158.077500", "141159.567500", "141201.057500", "141202.547500", "141204.037500", "141205.527500", "141207.017500", "141208.507500", "141209.997500", "141211.487500", "141212.977500", "141214.467500", "141215.957500", "141217.447500", "141218.937500", "141220.427500", "141221.917500", "141223.407500"],
      "ContentTime": ["140239.401000", "140239.405000", "140239.408000", "140239.412000", "140239.415000", "140239.418000", "140239.422000", "140239.425000", "140239.428000", "140239.432000", "140239.435000", "140239.438000", "140239.446000", "140239.451000", "140239.454000", "140239.457000", "140239.460000", "140239.464000", "140239.467000", "140239.470000", "140239.474000", "140239.477000", "140239.480000", "140239.483000", "140239.487000", "140239.490000", "140239.493000", "140239.497000", "140239.500000", "140239.503000", "140239.506000", "140259.358000", "140259.362000", "140259.365000", "140259.368000", "140259.372000", "140259.375000", "140259.378000", "140259.382000", "140259.385000", "140259.388000", "140259.391000", "140259.395000", "140259.398000", "140259.401000", "140259.404000", "140259.408000", "140259.411000", "140259.414000", "140259.417000", "140259.421000", "140259.424000", "140319.358000", "140319.362000", "140319.365000", "140319.368000", "140319.372000", "140319.375000", "140319.395000", "140319.399000", "140319.402000", "140319.405000", "140319.409000", "140319.412000", "140319.415000", "140319.418000", "140319.422000", "140319.426000", "140319.429000", "140319.432000", "140319.436000", "140319.439000", "140339.357000", "140339.361000", "140339.364000", "140339.367000", "140339.371000", "140339.374000", "140339.377000", "140339.381000", "140339.384000", "140339.387000", "140339.390000", "140339.394000", "140339.397000", "140339.400000", "140339.403000", "140339.407000", "140339.410000", "140339.413000", "140339.417000", "140339.420000", "140419.357000", "140419.361000", "140419.364000", "140419.367000", "140419.371000", "140419.374000", "140419.377000", "140419.381000", "140419.384000", "140419.387000", "140419.390000", "140419.394000", "140419.397000", "140419.400000", "140419.404000", "140419.407000", "140419.410000", "140419.414000", "140419.417000", "140419.420000", "140419.423000", "140419.427000", "140419.430000", "140419.433000", "140419.437000", "140419.440000", "140419.443000", "140419.446000", "140419.450000", "140419.453000", "140459.358000", "140459.362000", "140459.365000", "140459.368000", "140459.372000", "140459.375000", "140459.378000", "140459.382000", "140459.385000", "140459.388000", "140459.391000", "140459.395000", "140459.398000", "140459.401000", "140459.404000", "140459.408000", "140459.411000", "140459.414000", "140459.418000", "140459.421000", "140459.424000", "140459.427000", "140459.431000", "140459.434000", "140459.437000", "140459.441000", "140459.444000", "140539.358000", "140539.362000", "140539.365000", "140539.372000", "140539.376000", "140539.379000", "140539.398000", "140539.401000", "140539.405000", "140539.408000", "140539.411000", "140539.415000", "140539.418000", "140539.421000", "140539.425000", "140539.428000", "140539.432000", "140539.435000", "140539.438000", "140539.441000", "140539.445000", "140539.460000", "140539.463000", "140539.467000", "140539.470000", "140539.473000", "140539.477000", "140619.357000", "140619.361000", "140619.364000", "140619.368000", "140619.371000", "140619.374000", "140619.377000", "140619.381000", "140619.384000", "140619.387000", "140619.391000", "140619.394000", "140619.397000", "140619.400000", "140619.404000", "140619.407000", "140619.410000", "140619.414000", "140619.417000", "140619.420000", "140619.423000", "140619.427000", "140619.430000", "140619.433000", "140619.436000", "140619.440000", "140619.443000", "140659.357000", "140659.361000", "140659.364000", "140659.368000", "140659.371000", "140659.374000", "140659.378000", "140659.381000", "140659.384000", "140659.388000", "140659.391000", "140659.394000", "140659.398000", "140659.401000", "140659.404000", "140659.408000", "140659.411000", "140659.414000", "140659.418000", "140659.421000", "140659.424000", "140659.428000", "140659.431000", "140659.434000", "140659.437000", "140659.441000", "140659.444000", "140739.358000", "140739.370000", "140739.374000", "140739.377000", "140739.380000", "140739.384000", "140739.387000", "140739.390000", "140739.393000", "140739.397000", "140739.400000", "140739.404000", "140739.407000", "140739.410000", "140739.413000", "140739.417000", "140739.420000", "140739.423000", "140739.426000", "140739.430000", "140739.433000", "140739.436000", "140739.439000", "140739.443000", "140739.446000", "140739.449000", "140739.465000", "140819.357000", "140819.361000", "140819.364000", "140819.368000", "140819.371000", "140819.374000", "140819.378000", "140819.381000", "140819.384000", "140819.387000", "140819.391000", "140819.394000", "140819.398000", "140819.401000", "140819.404000", "140819.408000", "140819.411000", "140819.415000", "140819.418000", "140819.421000", "140819.425000", "140819.428000", "140819.431000", "140819.435000", "140819.438000", "140819.441000", "140859.357000", "140859.361000", "140859.364000", "140859.368000", "140859.371000", "140859.374000", "140859.377000", "140859.381000", "140859.384000", "140859.387000", "140859.391000", "140859.394000", "140859.397000", "140859.400000", "140859.404000", "140859.407000", "140859.410000", "140859.414000", "140859.417000", "140859.420000", "140859.423000", "140859.427000", "140859.430000", "140859.433000", "140859.437000", "140859.440000", "140859.443000", "140939.358000", "140939.362000", "140939.365000", "140939.369000", "140939.372000", "140939.375000", "140939.379000", "140939.382000", "140939.385000", "140939.389000", "140939.392000", "140939.395000", "140939.399000", "140939.402000", "140939.405000", "140939.408000", "140939.412000", "140939.415000", "140939.418000", "140939.422000", "140939.425000", "140939.428000", "140939.432000", "140939.435000", "140939.438000", "140939.442000", "140939.445000", "141019.376000", "141019.379000", "141019.383000", "141019.386000", "141019.389000", "141019.393000", "141019.396000", "141019.399000", "141019.403000", "141019.406000", "141019.409000", "141019.413000", "141019.416000", "141019.419000", "141019.422000", "141019.426000", "141019.429000", "141019.432000", "141019.436000", "141019.439000", "141019.442000", "141019.445000", "141019.449000", "141019.452000", "141019.455000", "141019.459000", "141019.462000", "141059.357000", "141059.361000", "141059.364000", "141059.368000", "141059.371000", "141059.374000", "141059.377000", "141059.381000", "141059.384000", "141059.387000", "141059.391000", "141059.395000", "141059.399000", "141059.402000", "141059.405000", "141059.409000", "141059.412000", "141059.415000", "141059.418000", "141059.422000", "141059.425000", "141059.428000", "141059.432000", "141059.435000", "141059.438000", "141059.442000", "141059.445000", "141139.357000", "141139.361000", "141139.364000", "141139.368000", "141139.371000", "141139.374000", "141139.378000", "141139.381000", "141139.384000", "141139.388000", "141139.391000", "141139.394000", "141139.398000", "141139.401000", "141139.404000", "141139.408000", "141139.411000", "141139.414000", "141139.418000", "141139.421000", "141139.424000", "141139.428000", "141139.431000", "141139.434000", "141139.437000", "141139.441000", "141139.444000", "141219.358000", "141219.362000", "141219.366000", "141219.370000", "141219.374000", "141219.377000", "141219.381000", "141219.385000", "141219.388000", "141219.391000", "141219.395000", "141219.398000", "141219.419000", "141219.422000", "141219.425000", "141219.429000", "141219.432000", "141219.435000", "141219.439000", "141219.442000", "141219.445000", "141219.449000", "141219.452000", "141219.455000", "141219.458000", "141219.462000", "141225.654000", "141225.657000", "141225.660000", "141225.664000", "141225.667000"],
