{
  "AcquisitionMatrixPE": 104,
  "AcquisitionNumber": 1,
  "AcquisitionTime": "14:52:12.807500",
  "BandwidthPerPixelPhaseEncode": 17.17,
  "BaseResolution": 104,
  "BodyPartExamined": "BRAIN",
  "CoilString": "HC1-7;NC1_2",
  "ConsistencyInfo": "N4_VE11C_LATEST_20160120",
  "ConversionSoftware": "dcm2niix",
  "ConversionSoftwareVersion": "v1.0.20190902",
  "DerivedVendorReportedEchoSpacing": 0.000560011,
  "DeviceSerialNumber": "167006",
  "DwellTime": 2.1e-06,
  "EchoTime": 0.037,
  "EchoTrainLength": 104,
  "EffectiveEchoSpacing": 0.000560011,
  "FlipAngle": 52,
  "HeudiconvVersion": "0.10.0",
  "ImageComments": "Unaliased_MB4_PE3_LB",
  "ImageOrientationPatientDICOM": [0.998149, 0.0408578, 0.0450404, -0.0212568, 0.92836, -0.371073],
  "ImageType": [
    "ORIGINAL",
    "PRIMARY",
    "P",
    "MB",
    "ND",
    "MOSAIC"
],
  "ImagingFrequency": 123.259,
  "InPlanePhaseEncodingDirectionDICOM": "COL",
  "InstitutionAddress": "Chemin_Queen-Mary_4565_Montreal_District_CA_H3W_1W5",
  "InstitutionName": "IUGM",
  "InstitutionalDepartmentName": "Department",
  "MRAcquisitionType": "2D",
  "MagneticFieldStrength": 3,
  "Manufacturer": "Siemens",
  "ManufacturersModelName": "Prisma_fit",
  "Modality": "MR",
  "MultibandAccelerationFactor": 4,
  "PartialFourier": 1,
  "PatientPosition": "HFS",
  "PercentPhaseFOV": 100,
  "PhaseEncodingDirection": "j",
  "PhaseEncodingSteps": 104,
  "PhaseResolution": 1,
  "PixelBandwidth": 2290,
  "ProcedureStepDescription": "games_mario",
  "ProtocolName": "func_task-mario_run-05",
  "PulseSequenceDetails": "%CustomerSeq%_cmrr_mbep2d_bold",
  "ReceiveCoilActiveElements": "HC1-7;NC1,2",
  "ReceiveCoilName": "HeadNeck_64",
  "ReconMatrixPE": 104,
  "RepetitionTime": 1.49,
  "SAR": 0.0663035,
  "ScanOptions": "FS",
  "ScanningSequence": "EP",
  "SequenceName": "epfid2d1_104",
  "SequenceVariant": "SK_SS",
  "SeriesDescription": "func_task-mario_run-05",
  "SeriesNumber": 23,
  "ShimSetting": [627, -7163, -8857, 636, 79, 135, -10, -5],
  "SliceThickness": 2,
  "SliceTiming": [0, 0.785, 0.1, 0.8825, 0.1975, 0.98, 0.295, 1.08, 0.3925, 1.1775, 0.49, 1.275, 0.59, 1.3725, 0.6875, 0, 0.785, 0.1, 0.8825, 0.1975, 0.98, 0.295, 1.08, 0.3925, 1.1775, 0.49, 1.275, 0.59, 1.3725, 0.6875, 0, 0.785, 0.1, 0.8825, 0.1975, 0.98, 0.295, 1.08, 0.3925, 1.1775, 0.49, 1.275, 0.59, 1.3725, 0.6875, 0, 0.785, 0.1, 0.8825, 0.1975, 0.98, 0.295, 1.08, 0.3925, 1.1775, 0.49, 1.275, 0.59, 1.3725, 0.6875],
  "SoftwareVersions": "syngo_MR_E11",
  "SpacingBetweenSlices": 2,
  "StationName": "MRC35049",
  "TaskName": "mario",
  "TotalReadoutTime": 0.0576811,
  "TxRefAmp": 320.286,
  "WipMemBlock": "3c35fcbd-f283-4664-9262-eee0b26bcd70||Sequence: R016 ve11c/master r/e634e98; Dec 19 2017 11:00:25 by eja",
  "dcmmeta_affine": [
    [-1.9962985515594482, -0.04251369833946228, 0.11394988000392914, 106.32657623291016],
    [-0.0817156732082367, 1.8567204475402832, -0.7388583421707153, -54.501651763916016],
    [0.09008073806762695, 0.7421466708183289, 1.8550212383270264, -78.37899780273438],
    [0.0, 0.0, 0.0, 1.0]
],
  "dcmmeta_reorient_transform": [
    [0.0, -1.0, 0.0, 103.0],
    [1.0, 0.0, 0.0, 0.0],
    [0.0, 0.0, 1.0, 0.0],
    [0.0, 0.0, 0.0, 1.0]
],
  "dcmmeta_shape": [104, 104, 60, 443],
  "dcmmeta_slice_dim": 2,
  "dcmmeta_version": 0.6,
  "global": {
    "const": {
      "AcquisitionMatrix": [104, 0, 0, 104],
      "AngioFlag": "N",
      "BitsAllocated": 16,
      "BitsStored": 16,
      "BodyPartExamined": "BRAIN",
      "Columns": 832,
      "EchoNumbers": 1,
      "EchoTime": 37.0,
      "EchoTrainLength": 104,
      "FlipAngle": 52.0,
      "HighBit": 15,
      "ImageOrientationPatient": [0.99814928869648, 0.04085783527955, 0.04504036823765, -0.0212568494355, 0.92836023019757, -0.3710733476546],
      "ImagePositionPatient": [-813.1253616864, -842.33130593472, 235.41411721963],
      "ImageType": [
        "ORIGINAL",
        "PRIMARY",
        "P",
        "MB",
        "ND",
        "MOSAIC"
],
      "ImagedNucleus": "1H",
      "ImagingFrequency": 123.258924,
      "InPlanePhaseEncodingDirection": "COL",
      "LargestImagePixelValue": 4095,
      "MRAcquisitionType": "2D",
      "MagneticFieldStrength": 3.0,
      "Manufacturer": "SIEMENS",
      "ManufacturerModelName": "Prisma_fit",
      "Modality": "MR",
      "NumberOfAverages": 1.0,
      "NumberOfPhaseEncodingSteps": 104,
      "PercentPhaseFieldOfView": 100.0,
      "PercentSampling": 100.0,
      "PerformedProcedureStepStartTime": "121120.470000",
      "PhotometricInterpretation": "MONOCHROME2",
      "PixelBandwidth": 2290.0,
      "PixelRepresentation": 0,
      "PixelSpacing": [2.0, 2.0],
      "ProtocolName": "func_task-mario_run-05",
      "RepetitionTime": 1490.0,
      "RescaleIntercept": -4096.0,
      "RescaleSlope": 2.0,
      "RescaleType": "US",
      "Rows": 832,
      "SAR": 0.066303450855,
      "SamplesPerPixel": 1,
      "ScanOptions": "FS",
      "ScanningSequence": "EP",
      "SequenceName": "epfid2d1_104",
      "SequenceVariant": [
        "SK",
        "SS"
],
      "SeriesDescription": "func_task-mario_run-05",
      "SeriesNumber": 23,
      "SeriesTime": "145319.638000",
      "SliceLocation": -46.50490409018,
      "SliceThickness": 2.0,
      "SmallestImagePixelValue": 0,
      "SoftwareVersions": "syngo MR E11",
      "SpacingBetweenSlices": 1.9999999981647,
      "SpecificCharacterSet": "ISO_IR 100",
      "StudyID": "1",
      "StudyTime": "121119.986000",
      "TransmitCoilName": "Body",
      "VariableFlipAngleFlag": "N",
      "WindowCenterWidthExplanation": "Algo1",
      "dBdt": 0.0},
    "slices": {}
  },
  "time": {
    "samples": {
      "AcquisitionNumber": [1, 2, 3, 4, 5, 6, 7, 8, 9, 10, 11, 12, 13, 14, 15, 16, 17, 18, 19, 20, 21, 22, 23, 24, 25, 26, 27, 28, 29, 30, 31, 32, 33, 34, 35, 36, 37, 38, 39, 40, 41, 42, 43, 44, 45, 46, 47, 48, 49, 50, 51, 52, 53, 54, 55, 56, 57, 58, 59, 60, 61, 62, 63, 64, 65, 66, 67, 68, 69, 70, 71, 72, 73, 74, 75, 76, 77, 78, 79, 80, 81, 82, 83, 84, 85, 86, 87, 88, 89, 90, 91, 92, 93, 94, 95, 96, 97, 98, 99, 100, 101, 102, 103, 104, 105, 106, 107, 108, 109, 110, 111, 112, 113, 114, 115, 116, 117, 118, 119, 120, 121, 122, 123, 124, 125, 126, 127, 128, 129, 130, 131, 132, 133, 134, 135, 136, 137, 138, 139, 140, 141, 142, 143, 144, 145, 146, 147, 148, 149, 150, 151, 152, 153, 154, 155, 156, 157, 158, 159, 160, 161, 162, 163, 164, 165, 166, 167, 168, 169, 170, 171, 172, 173, 174, 175, 176, 177, 178, 179, 180, 181, 182, 183, 184, 185, 186, 187, 188, 189, 190, 191, 192, 193, 194, 195, 196, 197, 198, 199, 200, 201, 202, 203, 204, 205, 206, 207, 208, 209, 210, 211, 212, 213, 214, 215, 216, 217, 218, 219, 220, 221, 222, 223, 224, 225, 226, 227, 228, 229, 230, 231, 232, 233, 234, 235, 236, 237, 238, 239, 240, 241, 242, 243, 244, 245, 246, 247, 248, 249, 250, 251, 252, 253, 254, 255, 256, 257, 258, 259, 260, 261, 262, 263, 264, 265, 266, 267, 268, 269, 270, 271, 272, 273, 274, 275, 276, 277, 278, 279, 280, 281, 282, 283, 284, 285, 286, 287, 288, 289, 290, 291, 292, 293, 294, 295, 296, 297, 298, 299, 300, 301, 302, 303, 304, 305, 306, 307, 308, 309, 310, 311, 312, 313, 314, 315, 316, 317, 318, 319, 320, 321, 322, 323, 324, 325, 326, 327, 328, 329, 330, 331, 332, 333, 334, 335, 336, 337, 338, 339, 340, 341, 342, 343, 344, 345, 346, 347, 348, 349, 350, 351, 352, 353, 354, 355, 356, 357, 358, 359, 360, 361, 362, 363, 364, 365, 366, 367, 368, 369, 370, 371, 372, 373, 374, 375, 376, 377, 378, 379, 380, 381, 382, 383, 384, 385, 386, 387, 388, 389, 390, 391, 392, 393, 394, 395, 396, 397, 398, 399, 400, 401, 402, 403, 404, 405, 406, 407, 408, 409, 410, 411, 412, 413, 414, 415, 416, 417, 418, 419, 420, 421, 422, 423, 424, 425, 426, 427, 428, 429, 430, 431, 432, 433, 434, 435, 436, 437, 438, 439, 440, 441, 442, 443],
      "AcquisitionTime": ["145212.807500", "145214.297500", "145215.787500", "145217.277500", "145218.767500", "145220.257500", "145221.747500", "145223.237500", "145224.727500", "145226.217500", "145227.707500", "145229.197500", "145230.687500", "145232.177500", "145233.667500", "145235.157500", "145236.647500", "145238.137500", "145239.627500", "145241.117500", "145242.607500", "145244.097500", "145245.587500", "145247.077500", "145248.567500", "145250.057500", "145251.547500", "145253.037500", "145254.527500", "145256.017500", "145257.507500", "145258.997500", "145300.487500", "145301.977500", "145303.467500", "145304.957500", "145306.447500", "145307.937500", "145309.427500", "145310.917500", "145312.407500", "145313.897500", "145315.387500", "145316.877500", "145318.367500", "145319.857500", "145321.347500", "145322.837500", "145324.327500", "145325.817500", "145327.307500", "145328.797500", "145330.287500", "145331.777500", "145333.267500", "145334.757500", "145336.247500", "145337.737500", "145339.227500", "145340.717500", "145342.207500", "145343.697500", "145345.187500", "145346.677500", "145348.167500", "145349.657500", "145351.147500", "145352.637500", "145354.127500", "145355.617500", "145357.107500", "145358.597500", "145400.087500", "145401.577500", "145403.067500", "145404.557500", "145406.047500", "145407.537500", "145409.027500", "145410.517500", "145412.007500", "145413.497500", "145414.987500", "145416.477500", "145417.967500", "145419.457500", "145420.947500", "145422.437500", "145423.927500", "145425.417500", "145426.907500", "145428.397500", "145429.887500", "145431.377500", "145432.867500", "145434.357500", "145435.847500", "145437.337500", "145438.827500", "145440.317500", "145441.807500", "145443.297500", "145444.787500", "145446.277500", "145447.767500", "145449.257500", "145450.747500", "145452.237500", "145453.727500", "145455.217500", "145456.707500", "145458.197500", "145459.687500", "145501.177500", "145502.667500", "145504.157500", "145505.647500", "145507.137500", "145508.627500", "145510.117500", "145511.607500", "145513.097500", "145514.587500", "145516.077500", "145517.567500", "145519.057500", "145520.547500", "145522.037500", "145523.527500", "145525.017500", "145526.507500", "145527.997500", "145529.487500", "145530.977500", "145532.467500", "145533.957500", "145535.447500", "145536.937500", "145538.427500", "145539.917500", "145541.407500", "145542.897500", "145544.387500", "145545.877500", "145547.367500", "145548.857500", "145550.347500", "145551.837500", "145553.327500", "145554.817500", "145556.307500", "145557.797500", "145559.287500", "145600.777500", "145602.267500", "145603.757500", "145605.247500", "145606.737500", "145608.227500", "145609.717500", "145611.207500", "145612.697500", "145614.187500", "145615.677500", "145617.167500", "145618.657500", "145620.147500", "145621.637500", "145623.127500", "145624.617500", "145626.107500", "145627.597500", "145629.087500", "145630.577500", "145632.067500", "145633.557500", "145635.047500", "145636.537500", "145638.027500", "145639.517500", "145641.007500", "145642.497500", "145643.987500", "145645.477500", "145646.967500", "145648.457500", "145649.947500", "145651.437500", "145652.927500", "145654.417500", "145655.907500", "145657.397500", "145658.887500", "145700.377500", "145701.867500", "145703.357500", "145704.847500", "145706.337500", "145707.827500", "145709.317500", "145710.807500", "145712.297500", "145713.787500", "145715.277500", "145716.767500", "145718.257500", "145719.747500", "145721.237500", "145722.727500", "145724.217500", "145725.707500", "145727.197500", "145728.687500", "145730.177500", "145731.667500", "145733.157500", "145734.647500", "145736.137500", "145737.627500", "145739.117500", "145740.607500", "145742.097500", "145743.587500", "145745.077500", "145746.567500", "145748.057500", "145749.547500", "145751.037500", "145752.527500", "145754.017500", "145755.507500", "145756.997500", "145758.487500", "145759.977500", "145801.467500", "145802.957500", "145804.447500", "145805.937500", "145807.427500", "145808.917500", "145810.407500", "145811.897500", "145813.387500", "145814.877500", "145816.367500", "145817.857500", "145819.347500", "145820.837500", "145822.327500", "145823.817500", "145825.307500", "145826.797500", "145828.287500", "145829.777500", "145831.267500", "145832.757500", "145834.247500", "145835.737500", "145837.227500", "145838.717500", "145840.207500", "145841.697500", "145843.187500", "145844.677500", "145846.167500", "145847.657500", "145849.147500", "145850.637500", "145852.127500", "145853.617500", "145855.107500", "145856.597500", "145858.087500", "145859.577500", "145901.067500", "145902.557500", "145904.047500", "145905.537500", "145907.027500", "145908.517500", "145910.007500", "145911.497500", "145912.987500", "145914.477500", "145915.967500", "145917.457500", "145918.947500", "145920.437500", "145921.927500", "145923.417500", "145924.907500", "145926.397500", "145927.887500", "145929.377500", "145930.867500", "145932.357500", "145933.847500", "145935.337500", "145936.827500", "145938.317500", "145939.807500", "145941.297500", "145942.787500", "145944.277500", "145945.767500", "145947.257500", "145948.747500", "145950.237500", "145951.727500", "145953.217500", "145954.707500", "145956.197500", "145957.687500", "145959.177500", "150000.667500", "150002.157500", "150003.647500", "150005.137500", "150006.627500", "150008.117500", "150009.607500", "150011.097500", "150012.587500", "150014.077500", "150015.567500", "150017.057500", "150018.547500", "150020.037500", "150021.527500", "150023.017500", "150024.507500", "150025.997500", "150027.487500", "150028.977500", "150030.467500", "150031.957500", "150033.447500", "150034.937500", "150036.427500", "150037.917500", "150039.407500", "150040.897500", "150042.387500", "150043.877500", "150045.367500", "150046.857500", "150048.347500", "150049.837500", "150051.327500", "150052.817500", "150054.307500", "150055.797500", "150057.287500", "150058.777500", "150100.267500", "150101.757500", "150103.247500", "150104.737500", "150106.227500", "150107.717500", "150109.207500", "150110.697500", "150112.187500", "150113.677500", "150115.167500", "150116.657500", "150118.147500", "150119.637500", "150121.127500", "150122.617500", "150124.107500", "150125.597500", "150127.087500", "150128.577500", "150130.067500", "150131.557500", "150133.047500", "150134.537500", "150136.027500", "150137.517500", "150139.007500", "150140.497500", "150141.987500", "150143.477500", "150144.967500", "150146.457500", "150147.947500", "150149.437500", "150150.927500", "150152.417500", "150153.907500", "150155.397500", "150156.887500", "150158.377500", "150159.867500", "150201.357500", "150202.847500", "150204.337500", "150205.827500", "150207.317500", "150208.807500", "150210.297500", "150211.787500", "150213.277500", "150214.767500", "150216.257500", "150217.747500", "150219.237500", "150220.727500", "150222.217500", "150223.707500", "150225.197500", "150226.687500", "150228.177500", "150229.667500", "150231.157500", "150232.647500", "150234.137500", "150235.627500", "150237.117500", "150238.607500", "150240.097500", "150241.587500", "150243.077500", "150244.567500", "150246.057500", "150247.547500", "150249.037500", "150250.527500", "150252.017500", "150253.507500", "150254.997500", "150256.487500", "150257.977500", "150259.467500", "150300.957500", "150302.447500", "150303.937500", "150305.427500", "150306.917500", "150308.407500", "150309.897500", "150311.387500"],
      "ContentTime": ["145319.640000", "145319.643000", "145319.645000", "145319.647000", "145319.650000", "145319.653000", "145319.655000", "145319.658000", "145319.660000", "145319.663000", "145319.665000", "145319.668000", "145339.633000", "145339.635000", "145339.638000", "145339.641000", "145339.643000", "145339.646000", "145339.648000", "145339.651000", "145339.653000", "145339.656000", "145339.658000", "145339.661000", "145339.663000", "145339.666000", "145339.668000", "145339.671000", "145339.673000", "145339.677000", "145339.680000", "145339.683000", "145359.643000", "145359.646000", "145359.649000", "145359.651000", "145359.654000", "145359.656000", "145359.659000", "145359.661000", "145359.664000", "145359.666000", "145359.669000", "145359.671000", "145359.674000", "145359.676000", "145359.679000", "145359.681000", "145359.684000", "145359.686000", "145359.689000", "145359.691000", "145359.694000", "145419.967000", "145419.970000", "145419.973000", "145419.975000", "145419.978000", "145419.980000", "145419.983000", "145419.985000", "145419.988000", "145419.990000", "145419.993000", "145419.995000", "145419.998000", "145420.001000", "145420.004000", "145420.006000", "145420.009000", "145420.011000", "145420.014000", "145420.016000", "145439.636000", "145439.638000", "145439.641000", "145439.644000", "145439.646000", "145439.648000", "145439.651000", "145439.653000", "145439.656000", "145439.658000", "145439.661000", "145439.663000", "145439.666000", "145439.668000", "145439.671000", "145439.673000", "145439.676000", "145439.678000", "145439.681000", "145439.683000", "145519.679000", "145519.682000", "145519.684000", "145519.687000", "145519.689000", "145519.692000", "145519.694000", "145519.697000", "145519.699000", "145519.702000", "145519.704000", "145519.707000", "145519.709000", "145519.712000", "145519.714000", "145519.717000", "145519.719000", "145519.721000", "145519.724000", "145519.726000", "145519.729000", "145519.731000", "145519.734000", "145519.736000", "145519.739000", "145519.741000", "145519.744000", "145519.746000", "145519.749000", "145519.752000", "145519.754000", "145519.757000", "145559.664000", "145559.666000", "145559.669000", "145559.672000", "145559.674000", "145559.677000", "145559.686000", "145559.688000", "145559.691000", "145559.693000", "145559.696000", "145559.698000", "145559.701000", "145559.703000", "145559.706000", "145559.708000", "145559.711000", "145559.713000", "145559.716000", "145559.718000", "145559.721000", "145559.724000", "145559.726000", "145559.729000", "145559.731000", "145559.734000", "145639.648000", "145639.651000", "145639.654000", "145639.656000", "145639.659000", "145639.661000", "145639.664000", "145639.667000", "145639.669000", "145639.672000", "145639.674000", "145639.677000", "145639.679000", "145639.682000", "145639.684000", "145639.687000", "145639.689000", "145639.692000", "145639.694000", "145639.697000", "145639.699000", "145639.702000", "145639.704000", "145639.707000", "145639.710000", "145639.713000", "145639.717000", "145719.667000", "145719.670000", "145719.673000", "145719.675000", "145719.678000", "145719.680000", "145719.683000", "145719.685000", "145719.688000", "145719.690000", "145719.693000", "145719.695000", "145719.698000", "145719.700000", "145719.703000", "145719.705000", "145719.708000", "145719.711000", "145719.719000", "145719.721000", "145719.724000", "145719.727000", "145719.729000", "145719.732000", "145719.734000", "145719.737000", "145719.739000", "145759.662000", "145759.665000", "145759.668000", "145759.670000", "145759.673000", "145759.675000", "145759.678000", "145759.680000", "145759.683000", "145759.685000", "145759.688000", "145759.690000", "145759.693000", "145759.695000", "145759.698000", "145759.700000", "145759.703000", "145759.705000", "145759.708000", "145759.711000", "145759.713000", "145759.716000", "145759.718000", "145759.721000", "145759.723000", "145759.726000", "145759.728000", "145839.660000", "145839.662000", "145839.665000", "145839.667000", "145839.670000", "145839.673000", "145839.675000", "145839.678000", "145839.680000", "145839.683000", "145839.685000", "145839.688000", "145839.690000", "145839.693000", "145839.695000", "145839.698000", "145839.700000", "145839.703000", "145839.705000", "145839.708000", "145839.710000", "145839.713000", "145839.715000", "145839.718000", "145839.721000", "145839.723000", "145839.725000", "145919.673000", "145919.676000", "145919.678000", "145919.681000", "145919.683000", "145919.686000", "145919.689000", "145919.691000", "145919.693000", "145919.696000", "145919.699000", "145919.701000", "145919.704000", "145919.706000", "145919.709000", "145919.711000", "145919.714000", "145919.716000", "145919.719000", "145919.721000", "145919.724000", "145919.749000", "145919.752000", "145919.754000", "145919.757000", "145919.759000", "145919.762000", "145959.670000", "145959.672000", "145959.675000", "145959.677000", "145959.680000", "145959.683000", "145959.685000", "145959.687000", "145959.690000", "145959.693000", "145959.695000", "145959.698000", "145959.700000", "145959.703000", "145959.705000", "145959.708000", "145959.710000", "145959.713000", "145959.715000", "145959.718000", "145959.720000", "145959.723000", "145959.725000", "145959.728000", "145959.731000", "145959.733000", "145959.735000", "150039.678000", "150039.681000", "150039.684000", "150039.691000", "150039.694000", "150039.696000", "150039.699000", "150039.701000", "150039.704000", "150039.706000", "150039.709000", "150039.711000", "150039.714000", "150039.716000", "150039.719000", "150039.722000", "150039.724000", "150039.727000", "150039.729000", "150039.732000", "150039.734000", "150039.737000", "150039.739000", "150039.742000", "150039.744000", "150039.747000", "150119.670000", "150119.672000", "150119.675000", "150119.678000", "150119.680000", "150119.682000", "150119.685000", "150119.688000", "150119.690000", "150119.693000", "150119.695000", "150119.698000", "150119.701000", "150119.704000", "150119.707000", "150119.709000", "150119.712000", "150119.714000", "150119.717000", "150119.719000", "150119.722000", "150119.724000", "150119.727000", "150119.730000", "150119.732000", "150119.734000", "150119.737000", "150159.666000", "150159.669000", "150159.672000", "150159.674000", "150159.677000", "150159.679000", "150159.682000", "150159.685000", "150159.688000", "150159.690000", "150159.693000", "150159.695000", "150159.698000", "150159.700000", "150159.703000", "150159.705000", "150159.708000", "150159.711000", "150159.713000", "150159.716000", "150159.718000", "150159.721000", "150159.723000", "150159.726000", "150159.728000", "150159.731000", "150159.733000", "150239.657000", "150239.660000", "150239.663000", "150239.665000", "150239.668000", "150239.670000", "150239.673000", "150239.675000", "150239.678000", "150239.680000", "150239.683000", "150239.686000", "150239.688000", "150239.691000", "150239.693000", "150239.696000", "150239.698000", "150239.701000", "150239.703000", "150239.706000", "150239.708000", "150239.711000", "150239.713000", "150239.716000", "150239.718000", "150239.721000", "150239.724000", "150314.111000", "150314.113000", "150314.116000", "150314.118000", "150314.121000", "150314.124000", "150314.126000", "150314.129000", "150314.131000", "150314.134000", "150314.136000", "150314.139000", "150314.142000", "150314.144000", "150314.147000", "150314.149000", "150314.152000", "150314.154000", "150314.157000", "150314.159000", "150314.168000", "150314.170000", "150314.173000"],
