{
  "AcquisitionMatrixPE": 104,
  "AcquisitionNumber": 1,
  "AcquisitionTime": "14:01:15.887500",
  "BandwidthPerPixelPhaseEncode": 17.17,
  "BaseResolution": 104,
  "BodyPartExamined": "BRAIN",
  "CoilString": "HC1-7;NC1_2",
  "ConsistencyInfo": "N4_VE11C_LATEST_20160120",
  "ConversionSoftware": "dcm2niix",
  "ConversionSoftwareVersion": "v1.0.20190902",
  "DerivedVendorReportedEchoSpacing": 0.000560011,
  "DeviceSerialNumber": "167006",
  "DwellTime": 2.1e-06,
  "EchoTime": 0.037,
  "EchoTrainLength": 104,
  "EffectiveEchoSpacing": 0.000560011,
  "FlipAngle": 52,
  "HeudiconvVersion": "0.10.0",
  "ImageComments": "Unaliased_MB4_PE3_LB",
  "ImageOrientationPatientDICOM": [0.998149, 0.0408578, 0.0450404, -0.0212568, 0.92836, -0.371073],
  "ImageType": [
    "ORIGINAL",
    "PRIMARY",
    "P",
    "MB",
    "ND",
    "MOSAIC"
],
  "ImagingFrequency": 123.259,
  "InPlanePhaseEncodingDirectionDICOM": "COL",
  "InstitutionAddress": "Chemin_Queen-Mary_4565_Montreal_District_CA_H3W_1W5",
  "InstitutionName": "IUGM",
  "InstitutionalDepartmentName": "Department",
  "MRAcquisitionType": "2D",
  "MagneticFieldStrength": 3,
  "Manufacturer": "Siemens",
  "ManufacturersModelName": "Prisma_fit",
  "Modality": "MR",
  "MultibandAccelerationFactor": 4,
  "PartialFourier": 1,
  "PatientPosition": "HFS",
  "PercentPhaseFOV": 100,
  "PhaseEncodingDirection": "j",
  "PhaseEncodingSteps": 104,
  "PhaseResolution": 1,
  "PixelBandwidth": 2290,
  "ProcedureStepDescription": "games_mario",
  "ProtocolName": "func_task-mario_run-01",
  "PulseSequenceDetails": "%CustomerSeq%_cmrr_mbep2d_bold",
  "ReceiveCoilActiveElements": "HC1-7;NC1,2",
  "ReceiveCoilName": "HeadNeck_64",
  "ReconMatrixPE": 104,
  "RepetitionTime": 1.49,
  "SAR": 0.0663035,
  "ScanOptions": "FS",
  "ScanningSequence": "EP",
  "SequenceName": "epfid2d1_104",
  "SequenceVariant": "SK_SS",
  "SeriesDescription": "func_task-mario_run-01",
  "SeriesNumber": 11,
  "ShimSetting": [627, -7163, -8857, 636, 79, 135, -10, -5],
  "SliceThickness": 2,
  "SliceTiming": [0, 0.785, 0.0975, 0.8825, 0.1975, 0.98, 0.295, 1.0775, 0.3925, 1.175, 0.49, 1.275, 0.5875, 1.3725, 0.685, 0, 0.785, 0.0975, 0.8825, 0.1975, 0.98, 0.295, 1.0775, 0.3925, 1.175, 0.49, 1.275, 0.5875, 1.3725, 0.685, 0, 0.785, 0.0975, 0.8825, 0.1975, 0.98, 0.295, 1.0775, 0.3925, 1.175, 0.49, 1.275, 0.5875, 1.3725, 0.685, 0, 0.785, 0.0975, 0.8825, 0.1975, 0.98, 0.295, 1.0775, 0.3925, 1.175, 0.49, 1.275, 0.5875, 1.3725, 0.685],
  "SoftwareVersions": "syngo_MR_E11",
  "SpacingBetweenSlices": 2,
  "StationName": "MRC35049",
  "TaskName": "mario",
  "TotalReadoutTime": 0.0576811,
  "TxRefAmp": 320.286,
  "WipMemBlock": "edd2a2f8-05ae-4829-abd4-b54faf58ab71||Sequence: R016 ve11c/master r/e634e98; Dec 19 2017 11:00:25 by eja",
  "dcmmeta_affine": [
    [-1.9962985515594482, -0.04251369833946228, 0.11394988000392914, 106.32657623291016],
    [-0.0817156732082367, 1.8567204475402832, -0.7388583421707153, -54.501651763916016],
    [0.09008073806762695, 0.7421466708183289, 1.8550212383270264, -78.37899780273438],
    [0.0, 0.0, 0.0, 1.0]
],
  "dcmmeta_reorient_transform": [
    [0.0, -1.0, 0.0, 103.0],
    [1.0, 0.0, 0.0, 0.0],
    [0.0, 0.0, 1.0, 0.0],
    [0.0, 0.0, 0.0, 1.0]
],
  "dcmmeta_shape": [104, 104, 60, 449],
  "dcmmeta_slice_dim": 2,
  "dcmmeta_version": 0.6,
  "global": {
    "const": {
      "AcquisitionMatrix": [104, 0, 0, 104],
      "AngioFlag": "N",
      "BitsAllocated": 16,
      "BitsStored": 16,
      "BodyPartExamined": "BRAIN",
      "Columns": 832,
      "EchoNumbers": 1,
      "EchoTime": 37.0,
      "EchoTrainLength": 104,
      "FlipAngle": 52.0,
      "HighBit": 15,
      "ImageOrientationPatient": [0.99814928869648, 0.04085783527955, 0.04504036823765, -0.0212568494355, 0.92836023019757, -0.3710733476546],
      "ImagePositionPatient": [-813.1253616864, -842.33130593472, 235.41411721963],
      "ImageType": [
        "ORIGINAL",
        "PRIMARY",
        "P",
        "MB",
        "ND",
        "MOSAIC"
],
      "ImagedNucleus": "1H",
      "ImagingFrequency": 123.258893,
      "InPlanePhaseEncodingDirection": "COL",
      "LargestImagePixelValue": 4095,
      "MRAcquisitionType": "2D",
      "MagneticFieldStrength": 3.0,
      "Manufacturer": "SIEMENS",
      "ManufacturerModelName": "Prisma_fit",
      "Modality": "MR",
      "NumberOfAverages": 1.0,
      "NumberOfPhaseEncodingSteps": 104,
      "PercentPhaseFieldOfView": 100.0,
      "PercentSampling": 100.0,
      "PerformedProcedureStepStartTime": "121120.470000",
      "PhotometricInterpretation": "MONOCHROME2",
      "PixelBandwidth": 2290.0,
      "PixelRepresentation": 0,
      "PixelSpacing": [2.0, 2.0],
      "ProtocolName": "func_task-mario_run-01",
      "RepetitionTime": 1490.0,
      "RescaleIntercept": -4096.0,
      "RescaleSlope": 2.0,
      "RescaleType": "US",
      "Rows": 832,
      "SAR": 0.066303450855,
      "SamplesPerPixel": 1,
      "ScanOptions": "FS",
      "ScanningSequence": "EP",
      "SequenceName": "epfid2d1_104",
      "SequenceVariant": [
        "SK",
        "SS"
],
      "SeriesDescription": "func_task-mario_run-01",
      "SeriesNumber": 11,
      "SeriesTime": "140239.540000",
      "SliceLocation": -46.50490409018,
      "SliceThickness": 2.0,
      "SmallestImagePixelValue": 0,
      "SoftwareVersions": "syngo MR E11",
      "SpacingBetweenSlices": 1.9999999981647,
      "SpecificCharacterSet": "ISO_IR 100",
      "StudyID": "1",
      "StudyTime": "121119.986000",
      "TransmitCoilName": "Body",
      "VariableFlipAngleFlag": "N",
      "WindowCenterWidthExplanation": "Algo1",
      "dBdt": 0.0},
    "slices": {}
  },
  "time": {
    "samples": {
      "AcquisitionNumber": [1, 2, 3, 4, 5, 6, 7, 8, 9, 10, 11, 12, 13, 14, 15, 16, 17, 18, 19, 20, 21, 22, 23, 24, 25, 26, 27, 28, 29, 30, 31, 32, 33, 34, 35, 36, 37, 38, 39, 40, 41, 42, 43, 44, 45, 46, 47, 48, 49, 50, 51, 52, 53, 54, 55, 56, 57, 58, 59, 60, 61, 62, 63, 64, 65, 66, 67, 68, 69, 70, 71, 72, 73, 74, 75, 76, 77, 78, 79, 80, 81, 82, 83, 84, 85, 86, 87, 88, 89, 90, 91, 92, 93, 94, 95, 96, 97, 98, 99, 100, 101, 102, 103, 104, 105, 106, 107, 108, 109, 110, 111, 112, 113, 114, 115, 116, 117, 118, 119, 120, 121, 122, 123, 124, 125, 126, 127, 128, 129, 130, 131, 132, 133, 134, 135, 136, 137, 138, 139, 140, 141, 142, 143, 144, 145, 146, 147, 148, 149, 150, 151, 152, 153, 154, 155, 156, 157, 158, 159, 160, 161, 162, 163, 164, 165, 166, 167, 168, 169, 170, 171, 172, 173, 174, 175, 176, 177, 178, 179, 180, 181, 182, 183, 184, 185, 186, 187, 188, 189, 190, 191, 192, 193, 194, 195, 196, 197, 198, 199, 200, 201, 202, 203, 204, 205, 206, 207, 208, 209, 210, 211, 212, 213, 214, 215, 216, 217, 218, 219, 220, 221, 222, 223, 224, 225, 226, 227, 228, 229, 230, 231, 232, 233, 234, 235, 236, 237, 238, 239, 240, 241, 242, 243, 244, 245, 246, 247, 248, 249, 250, 251, 252, 253, 254, 255, 256, 257, 258, 259, 260, 261, 262, 263, 264, 265, 266, 267, 268, 269, 270, 271, 272, 273, 274, 275, 276, 277, 278, 279, 280, 281, 282, 283, 284, 285, 286, 287, 288, 289, 290, 291, 292, 293, 294, 295, 296, 297, 298, 299, 300, 301, 302, 303, 304, 305, 306, 307, 308, 309, 310, 311, 312, 313, 314, 315, 316, 317, 318, 319, 320, 321, 322, 323, 324, 325, 326, 327, 328, 329, 330, 331, 332, 333, 334, 335, 336, 337, 338, 339, 340, 341, 342, 343, 344, 345, 346, 347, 348, 349, 350, 351, 352, 353, 354, 355, 356, 357, 358, 359, 360, 361, 362, 363, 364, 365, 366, 367, 368, 369, 370, 371, 372, 373, 374, 375, 376, 377, 378, 379, 380, 381, 382, 383, 384, 385, 386, 387, 388, 389, 390, 391, 392, 393, 394, 395, 396, 397, 398, 399, 400, 401, 402, 403, 404, 405, 406, 407, 408, 409, 410, 411, 412, 413, 414, 415, 416, 417, 418, 419, 420, 421, 422, 423, 424, 425, 426, 427, 428, 429, 430, 431, 432, 433, 434, 435, 436, 437, 438, 439, 440, 441, 442, 443, 444, 445, 446, 447, 448, 449],
      "AcquisitionTime": ["140115.887500", "140117.377500", "140118.867500", "140120.357500", "140121.847500", "140123.337500", "140124.827500", "140126.317500", "140127.807500", "140129.297500", "140130.787500", "140132.277500", "140133.767500", "140135.257500", "140136.747500", "140138.237500", "140139.727500", "140141.217500", "140142.707500", "140144.197500", "140145.687500", "140147.177500", "140148.667500", "140150.157500", "140151.647500", "140153.137500", "140154.627500", "140156.117500", "140157.607500", "140159.097500", "140200.587500", "140202.077500", "140203.567500", "140205.057500", "140206.547500", "140208.037500", "140209.527500", "140211.017500", "140212.507500", "140213.997500", "140215.487500", "140216.977500", "140218.467500", "140219.957500", "140221.447500", "140222.937500", "140224.427500", "140225.917500", "140227.407500", "140228.897500", "140230.387500", "140231.877500", "140233.367500", "140234.857500", "140236.347500", "140237.837500", "140239.327500", "140240.817500", "140242.307500", "140243.797500", "140245.287500", "140246.777500", "140248.267500", "140249.757500", "140251.247500", "140252.737500", "140254.227500", "140255.717500", "140257.207500", "140258.697500", "140300.187500", "140301.677500", "140303.167500", "140304.657500", "140306.147500", "140307.637500", "140309.127500", "140310.617500", "140312.107500", "140313.597500", "140315.087500", "140316.577500", "140318.067500", "140319.557500", "140321.047500", "140322.537500", "140324.027500", "140325.517500", "140327.007500", "140328.497500", "140329.987500", "140331.477500", "140332.967500", "140334.457500", "140335.947500", "140337.437500", "140338.927500", "140340.417500", "140341.907500", "140343.397500", "140344.887500", "140346.377500", "140347.867500", "140349.357500", "140350.847500", "140352.337500", "140353.827500", "140355.317500", "140356.807500", "140358.297500", "140359.787500", "140401.277500", "140402.767500", "140404.257500", "140405.747500", "140407.237500", "140408.727500", "140410.217500", "140411.707500", "140413.197500", "140414.687500", "140416.177500", "140417.667500", "140419.157500", "140420.647500", "140422.137500", "140423.627500", "140425.117500", "140426.607500", "140428.097500", "140429.587500", "140431.077500", "140432.567500", "140434.057500", "140435.547500", "140437.037500", "140438.527500", "140440.017500", "140441.507500", "140442.997500", "140444.487500", "140445.977500", "140447.467500", "140448.957500", "140450.447500", "140451.937500", "140453.427500", "140454.917500", "140456.407500", "140457.897500", "140459.387500", "140500.877500", "140502.367500", "140503.857500", "140505.347500", "140506.837500", "140508.327500", "140509.817500", "140511.307500", "140512.797500", "140514.287500", "140515.777500", "140517.267500", "140518.757500", "140520.247500", "140521.737500", "140523.227500", "140524.717500", "140526.207500", "140527.697500", "140529.187500", "140530.677500", "140532.167500", "140533.657500", "140535.147500", "140536.637500", "140538.127500", "140539.617500", "140541.107500", "140542.597500", "140544.087500", "140545.577500", "140547.067500", "140548.557500", "140550.047500", "140551.537500", "140553.027500", "140554.517500", "140556.007500", "140557.497500", "140558.987500", "140600.477500", "140601.967500", "140603.457500", "140604.947500", "140606.437500", "140607.927500", "140609.417500", "140610.907500", "140612.397500", "140613.887500", "140615.377500", "140616.867500", "140618.357500", "140619.847500", "140621.337500", "140622.827500", "140624.317500", "140625.807500", "140627.297500", "140628.787500", "140630.277500", "140631.767500", "140633.257500", "140634.747500", "140636.237500", "140637.727500", "140639.217500", "140640.707500", "140642.197500", "140643.687500", "140645.177500", "140646.667500", "140648.157500", "140649.647500", "140651.137500", "140652.627500", "140654.117500", "140655.607500", "140657.097500", "140658.587500", "140700.077500", "140701.567500", "140703.057500", "140704.547500", "140706.037500", "140707.527500", "140709.017500", "140710.507500", "140711.997500", "140713.487500", "140714.977500", "140716.467500", "140717.957500", "140719.447500", "140720.937500", "140722.427500", "140723.917500", "140725.407500", "140726.897500", "140728.387500", "140729.877500", "140731.367500", "140732.857500", "140734.347500", "140735.837500", "140737.327500", "140738.817500", "140740.307500", "140741.797500", "140743.287500", "140744.777500", "140746.267500", "140747.757500", "140749.247500", "140750.737500", "140752.227500", "140753.717500", "140755.207500", "140756.697500", "140758.187500", "140759.677500", "140801.167500", "140802.657500", "140804.147500", "140805.637500", "140807.127500", "140808.617500", "140810.107500", "140811.597500", "140813.087500", "140814.577500", "140816.067500", "140817.557500", "140819.047500", "140820.537500", "140822.027500", "140823.517500", "140825.007500", "140826.497500", "140827.987500", "140829.477500", "140830.967500", "140832.457500", "140833.947500", "140835.437500", "140836.927500", "140838.417500", "140839.907500", "140841.397500", "140842.887500", "140844.377500", "140845.867500", "140847.357500", "140848.847500", "140850.337500", "140851.827500", "140853.317500", "140854.807500", "140856.297500", "140857.787500", "140859.277500", "140900.767500", "140902.257500", "140903.747500", "140905.237500", "140906.727500", "140908.217500", "140909.707500", "140911.197500", "140912.687500", "140914.177500", "140915.667500", "140917.157500", "140918.647500", "140920.137500", "140921.627500", "140923.117500", "140924.607500", "140926.097500", "140927.587500", "140929.077500", "140930.567500", "140932.057500", "140933.547500", "140935.037500", "140936.527500", "140938.017500", "140939.507500", "140940.997500", "140942.487500", "140943.977500", "140945.467500", "140946.957500", "140948.447500", "140949.937500", "140951.427500", "140952.917500", "140954.407500", "140955.897500", "140957.387500", "140958.877500", "141000.367500", "141001.857500", "141003.347500", "141004.837500", "141006.327500", "141007.817500", "141009.307500", "141010.797500", "141012.287500", "141013.777500", "141015.267500", "141016.757500", "141018.247500", "141019.737500", "141021.227500", "141022.717500", "141024.207500", "141025.697500", "141027.187500", "141028.677500", "141030.167500", "141031.657500", "141033.147500", "141034.637500", "141036.127500", "141037.617500", "141039.107500", "141040.597500", "141042.087500", "141043.577500", "141045.067500", "141046.557500", "141048.047500", "141049.537500", "141051.027500", "141052.517500", "141054.007500", "141055.497500", "141056.987500", "141058.477500", "141059.967500", "141101.457500", "141102.947500", "141104.437500", "141105.927500", "141107.417500", "141108.907500", "141110.397500", "141111.887500", "141113.377500", "141114.867500", "141116.357500", "141117.847500", "141119.337500", "141120.827500", "141122.317500", "141123.807500", "141125.297500", "141126.787500", "141128.277500", "141129.767500", "141131.257500", "141132.747500", "141134.237500", "141135.727500", "141137.217500", "141138.707500", "141140.197500", "141141.687500", "141143.177500", "141144.667500", "141146.157500", "141147.647500", "141149.137500", "141150.627500", "141152.117500", "141153.607500", "141155.097500", "141156.587500", "141158.077500", "141159.567500", "141201.057500", "141202.547500", "141204.037500", "141205.527500", "141207.017500", "141208.507500", "141209.997500", "141211.487500", "141212.977500", "141214.467500", "141215.957500", "141217.447500", "141218.937500", "141220.427500", "141221.917500", "141223.407500"],
      "ContentTime": ["140239.542000", "140239.545000", "140239.548000", "140239.552000", "140239.555000", "140239.557000", "140239.560000", "140239.563000", "140239.566000", "140239.573000", "140239.593000", "140239.596000", "140239.599000", "140239.601000", "140239.603000", "140239.606000", "140239.609000", "140239.611000", "140239.614000", "140239.616000", "140239.619000", "140239.621000", "140239.624000", "140239.626000", "140239.630000", "140239.633000", "140239.635000", "140239.638000", "140239.640000", "140239.643000", "140239.645000", "140259.482000", "140259.485000", "140259.488000", "140259.490000", "140259.492000", "140259.495000", "140259.497000", "140259.500000", "140259.502000", "140259.505000", "140259.507000", "140259.510000", "140259.512000", "140259.515000", "140259.517000", "140259.520000", "140259.522000", "140259.525000", "140259.527000", "140259.530000", "140319.475000", "140319.478000", "140319.481000", "140319.483000", "140319.486000", "140319.488000", "140319.491000", "140319.493000", "140319.496000", "140319.498000", "140319.501000", "140319.503000", "140319.506000", "140319.508000", "140319.510000", "140319.513000", "140319.516000", "140319.518000", "140319.520000", "140319.523000", "140319.525000", "140339.463000", "140339.466000", "140339.468000", "140339.471000", "140339.473000", "140339.476000", "140339.478000", "140339.481000", "140339.483000", "140339.486000", "140339.488000", "140339.491000", "140339.493000", "140339.496000", "140339.498000", "140339.501000", "140339.503000", "140339.506000", "140339.508000", "140339.511000", "140419.506000", "140419.508000", "140419.511000", "140419.513000", "140419.516000", "140419.518000", "140419.521000", "140419.523000", "140419.526000", "140419.528000", "140419.531000", "140419.533000", "140419.536000", "140419.538000", "140419.541000", "140419.543000", "140419.546000", "140419.548000", "140419.551000", "140419.553000", "140419.555000", "140419.558000", "140419.560000", "140419.563000", "140419.565000", "140419.568000", "140419.570000", "140419.573000", "140419.576000", "140419.578000", "140459.496000", "140459.499000", "140459.502000", "140459.504000", "140459.507000", "140459.509000", "140459.512000", "140459.514000", "140459.517000", "140459.519000", "140459.522000", "140459.524000", "140459.526000", "140459.529000", "140459.532000", "140459.534000", "140459.536000", "140459.539000", "140459.541000", "140459.544000", "140459.546000", "140459.549000", "140459.551000", "140459.554000", "140459.556000", "140459.559000", "140459.561000", "140539.516000", "140539.519000", "140539.521000", "140539.524000", "140539.526000", "140539.529000", "140539.531000", "140539.534000", "140539.536000", "140539.539000", "140539.542000", "140539.544000", "140539.547000", "140539.550000", "140539.552000", "140539.555000", "140539.558000", "140539.560000", "140539.563000", "140539.565000", "140539.568000", "140539.571000", "140539.573000", "140539.576000", "140539.578000", "140539.581000", "140539.583000", "140620.009000", "140620.012000", "140620.014000", "140620.016000", "140620.019000", "140620.021000", "140620.024000", "140620.026000", "140620.029000", "140620.031000", "140620.034000", "140620.036000", "140620.039000", "140620.041000", "140620.044000", "140620.046000", "140620.049000", "140620.051000", "140620.054000", "140620.056000", "140620.059000", "140620.061000", "140620.064000", "140620.066000", "140620.069000", "140620.071000", "140620.074000", "140659.486000", "140659.489000", "140659.491000", "140659.494000", "140659.496000", "140659.499000", "140659.501000", "140659.504000", "140659.507000", "140659.509000", "140659.511000", "140659.514000", "140659.517000", "140659.519000", "140659.522000", "140659.524000", "140659.527000", "140659.529000", "140659.532000", "140659.534000", "140659.537000", "140659.539000", "140659.541000", "140659.544000", "140659.546000", "140659.549000", "140659.551000", "140739.523000", "140739.526000", "140739.528000", "140739.531000", "140739.533000", "140739.536000", "140739.538000", "140739.541000", "140739.543000", "140739.545000", "140739.548000", "140739.550000", "140739.553000", "140739.555000", "140739.558000", "140739.560000", "140739.563000", "140739.565000", "140739.568000", "140739.570000", "140739.573000", "140739.575000", "140739.578000", "140739.580000", "140739.583000", "140739.585000", "140739.588000", "140819.491000", "140819.494000", "140819.497000", "140819.500000", "140819.503000", "140819.505000", "140819.508000", "140819.511000", "140819.513000", "140819.516000", "140819.518000", "140819.521000", "140819.523000", "140819.526000", "140819.528000", "140819.531000", "140819.533000", "140819.536000", "140819.538000", "140819.541000", "140819.543000", "140819.546000", "140819.548000", "140819.551000", "140819.553000", "140819.556000", "140859.492000", "140859.494000", "140859.497000", "140859.499000", "140859.502000", "140859.504000", "140859.507000", "140859.509000", "140859.512000", "140859.514000", "140859.517000", "140859.519000", "140859.522000", "140859.524000", "140859.527000", "140859.529000", "140859.532000", "140859.534000", "140859.537000", "140859.539000", "140859.542000", "140859.544000", "140859.547000", "140859.549000", "140859.552000", "140859.554000", "140859.557000", "140939.495000", "140939.498000", "140939.500000", "140939.503000", "140939.505000", "140939.508000", "140939.510000", "140939.512000", "140939.515000", "140939.517000", "140939.520000", "140939.522000", "140939.525000", "140939.527000", "140939.530000", "140939.532000", "140939.535000", "140939.537000", "140939.540000", "140939.542000", "140939.545000", "140939.547000", "140939.550000", "140939.552000", "140939.555000", "140939.557000", "140939.560000", "141019.514000", "141019.517000", "141019.520000", "141019.522000", "141019.525000", "141019.527000", "141019.530000", "141019.532000", "141019.535000", "141019.537000", "141019.540000", "141019.542000", "141019.545000", "141019.547000", "141019.550000", "141019.552000", "141019.555000", "141019.557000", "141019.559000", "141019.562000", "141019.564000", "141019.567000", "141019.570000", "141019.572000", "141019.575000", "141019.577000", "141019.580000", "141059.506000", "141059.508000", "141059.511000", "141059.514000", "141059.516000", "141059.519000", "141059.521000", "141059.524000", "141059.526000", "141059.529000", "141059.531000", "141059.534000", "141059.536000", "141059.539000", "141059.541000", "141059.544000", "141059.546000", "141059.549000", "141059.551000", "141059.554000", "141059.556000", "141059.559000", "141059.561000", "141059.564000", "141059.566000", "141059.569000", "141059.571000", "141139.497000", "141139.499000", "141139.502000", "141139.504000", "141139.507000", "141139.509000", "141139.512000", "141139.514000", "141139.517000", "141139.520000", "141139.522000", "141139.524000", "141139.527000", "141139.529000", "141139.532000", "141139.534000", "141139.537000", "141139.539000", "141139.542000", "141139.544000", "141139.547000", "141139.549000", "141139.552000", "141139.554000", "141139.557000", "141139.559000", "141139.562000", "141219.511000", "141219.514000", "141219.517000", "141219.519000", "141219.522000", "141219.524000", "141219.527000", "141219.529000", "141219.532000", "141219.534000", "141219.537000", "141219.539000", "141219.542000", "141219.544000", "141219.547000", "141219.549000", "141219.552000", "141219.554000", "141219.557000", "141219.559000", "141219.562000", "141219.564000", "141219.567000", "141219.569000", "141219.572000", "141219.574000", "141225.705000", "141225.708000", "141225.711000", "141225.713000", "141225.716000"],
