{
  "AcquisitionMatrixPE": 104,
  "AcquisitionNumber": 1,
  "AcquisitionTime": "14:13:59.267500",
  "BandwidthPerPixelPhaseEncode": 17.17,
  "BaseResolution": 104,
  "BodyPartExamined": "BRAIN",
  "CoilString": "HC1-7;NC1_2",
  "ConsistencyInfo": "N4_VE11C_LATEST_20160120",
  "ConversionSoftware": "dcm2niix",
  "ConversionSoftwareVersion": "v1.0.20190902",
  "DerivedVendorReportedEchoSpacing": 0.000560011,
  "DeviceSerialNumber": "167006",
  "DwellTime": 2.1e-06,
  "EchoTime": 0.037,
  "EchoTrainLength": 104,
  "EffectiveEchoSpacing": 0.000560011,
  "FlipAngle": 52,
  "HeudiconvVersion": "0.10.0",
  "ImageComments": "Unaliased_MB4_PE3_LB",
  "ImageOrientationPatientDICOM": [0.998149, 0.0408578, 0.0450404, -0.0212568, 0.92836, -0.371073],
  "ImageType": [
    "ORIGINAL",
    "PRIMARY",
    "P",
    "MB",
    "ND",
    "MOSAIC"
],
  "ImagingFrequency": 123.259,
  "InPlanePhaseEncodingDirectionDICOM": "COL",
  "InstitutionAddress": "Chemin_Queen-Mary_4565_Montreal_District_CA_H3W_1W5",
  "InstitutionName": "IUGM",
  "InstitutionalDepartmentName": "Department",
  "MRAcquisitionType": "2D",
  "MagneticFieldStrength": 3,
  "Manufacturer": "Siemens",
  "ManufacturersModelName": "Prisma_fit",
  "Modality": "MR",
  "MultibandAccelerationFactor": 4,
  "PartialFourier": 1,
  "PatientPosition": "HFS",
  "PercentPhaseFOV": 100,
  "PhaseEncodingDirection": "j",
  "PhaseEncodingSteps": 104,
  "PhaseResolution": 1,
  "PixelBandwidth": 2290,
  "ProcedureStepDescription": "games_mario",
  "ProtocolName": "func_task-mario_run-02",
  "PulseSequenceDetails": "%CustomerSeq%_cmrr_mbep2d_bold",
  "ReceiveCoilActiveElements": "HC1-7;NC1,2",
  "ReceiveCoilName": "HeadNeck_64",
  "ReconMatrixPE": 104,
  "RepetitionTime": 1.49,
  "SAR": 0.0663035,
  "ScanOptions": "FS",
  "ScanningSequence": "EP",
  "SequenceName": "epfid2d1_104",
  "SequenceVariant": "SK_SS",
  "SeriesDescription": "func_task-mario_run-02",
  "SeriesNumber": 14,
  "ShimSetting": [627, -7163, -8857, 636, 79, 135, -10, -5],
  "SliceThickness": 2,
  "SliceTiming": [0, 0.785, 0.0975, 0.8825, 0.1975, 0.98, 0.295, 1.0775, 0.3925, 1.1775, 0.49, 1.275, 0.5875, 1.3725, 0.6875, 0, 0.785, 0.0975, 0.8825, 0.1975, 0.98, 0.295, 1.0775, 0.3925, 1.1775, 0.49, 1.275, 0.5875, 1.3725, 0.6875, 0, 0.785, 0.0975, 0.8825, 0.1975, 0.98, 0.295, 1.0775, 0.3925, 1.1775, 0.49, 1.275, 0.5875, 1.3725, 0.6875, 0, 0.785, 0.0975, 0.8825, 0.1975, 0.98, 0.295, 1.0775, 0.3925, 1.1775, 0.49, 1.275, 0.5875, 1.3725, 0.6875],
  "SoftwareVersions": "syngo_MR_E11",
  "SpacingBetweenSlices": 2,
  "StationName": "MRC35049",
  "TaskName": "mario",
  "TotalReadoutTime": 0.0576811,
  "TxRefAmp": 320.286,
  "WipMemBlock": "a53889e1-d92a-4183-b046-0b8ed0fddf75||Sequence: R016 ve11c/master r/e634e98; Dec 19 2017 11:00:25 by eja",
  "dcmmeta_affine": [
    [-1.9962985515594482, -0.04251369833946228, 0.11394988000392914, 106.32657623291016],
    [-0.0817156732082367, 1.8567204475402832, -0.7388583421707153, -54.501651763916016],
    [0.09008073806762695, 0.7421466708183289, 1.8550212383270264, -78.37899780273438],
    [0.0, 0.0, 0.0, 1.0]
],
  "dcmmeta_reorient_transform": [
    [0.0, -1.0, 0.0, 103.0],
    [1.0, 0.0, 0.0, 0.0],
    [0.0, 0.0, 1.0, 0.0],
    [0.0, 0.0, 0.0, 1.0]
],
  "dcmmeta_shape": [104, 104, 60, 444],
  "dcmmeta_slice_dim": 2,
  "dcmmeta_version": 0.6,
  "global": {
    "const": {
      "AcquisitionMatrix": [104, 0, 0, 104],
      "AngioFlag": "N",
      "BitsAllocated": 16,
      "BitsStored": 16,
      "BodyPartExamined": "BRAIN",
      "Columns": 832,
      "EchoNumbers": 1,
      "EchoTime": 37.0,
      "EchoTrainLength": 104,
      "FlipAngle": 52.0,
      "HighBit": 15,
      "ImageOrientationPatient": [0.99814928869648, 0.04085783527955, 0.04504036823765, -0.0212568494355, 0.92836023019757, -0.3710733476546],
      "ImagePositionPatient": [-813.1253616864, -842.33130593472, 235.41411721963],
      "ImageType": [
        "ORIGINAL",
        "PRIMARY",
        "P",
        "MB",
        "ND",
        "MOSAIC"
],
      "ImagedNucleus": "1H",
      "ImagingFrequency": 123.258906,
      "InPlanePhaseEncodingDirection": "COL",
      "LargestImagePixelValue": 4095,
      "MRAcquisitionType": "2D",
      "MagneticFieldStrength": 3.0,
      "Manufacturer": "SIEMENS",
      "ManufacturerModelName": "Prisma_fit",
      "Modality": "MR",
      "NumberOfAverages": 1.0,
      "NumberOfPhaseEncodingSteps": 104,
      "PercentPhaseFieldOfView": 100.0,
      "PercentSampling": 100.0,
      "PerformedProcedureStepStartTime": "121120.470000",
      "PhotometricInterpretation": "MONOCHROME2",
      "PixelBandwidth": 2290.0,
      "PixelRepresentation": 0,
      "PixelSpacing": [2.0, 2.0],
      "ProtocolName": "func_task-mario_run-02",
      "RepetitionTime": 1490.0,
      "RescaleIntercept": -4096.0,
      "RescaleSlope": 2.0,
      "RescaleType": "US",
      "Rows": 832,
      "SAR": 0.066303450855,
      "SamplesPerPixel": 1,
      "ScanOptions": "FS",
      "ScanningSequence": "EP",
      "SequenceName": "epfid2d1_104",
      "SequenceVariant": [
        "SK",
        "SS"
],
      "SeriesDescription": "func_task-mario_run-02",
      "SeriesNumber": 14,
      "SeriesTime": "141519.669000",
      "SliceLocation": -46.50490409018,
      "SliceThickness": 2.0,
      "SmallestImagePixelValue": 0,
      "SoftwareVersions": "syngo MR E11",
      "SpacingBetweenSlices": 1.9999999981647,
      "SpecificCharacterSet": "ISO_IR 100",
      "StudyID": "1",
      "StudyTime": "121119.986000",
      "TransmitCoilName": "Body",
      "VariableFlipAngleFlag": "N",
      "WindowCenterWidthExplanation": "Algo1",
      "dBdt": 0.0},
    "slices": {}
  },
  "time": {
    "samples": {
      "AcquisitionNumber": [1, 2, 3, 4, 5, 6, 7, 8, 9, 10, 11, 12, 13, 14, 15, 16, 17, 18, 19, 20, 21, 22, 23, 24, 25, 26, 27, 28, 29, 30, 31, 32, 33, 34, 35, 36, 37, 38, 39, 40, 41, 42, 43, 44, 45, 46, 47, 48, 49, 50, 51, 52, 53, 54, 55, 56, 57, 58, 59, 60, 61, 62, 63, 64, 65, 66, 67, 68, 69, 70, 71, 72, 73, 74, 75, 76, 77, 78, 79, 80, 81, 82, 83, 84, 85, 86, 87, 88, 89, 90, 91, 92, 93, 94, 95, 96, 97, 98, 99, 100, 101, 102, 103, 104, 105, 106, 107, 108, 109, 110, 111, 112, 113, 114, 115, 116, 117, 118, 119, 120, 121, 122, 123, 124, 125, 126, 127, 128, 129, 130, 131, 132, 133, 134, 135, 136, 137, 138, 139, 140, 141, 142, 143, 144, 145, 146, 147, 148, 149, 150, 151, 152, 153, 154, 155, 156, 157, 158, 159, 160, 161, 162, 163, 164, 165, 166, 167, 168, 169, 170, 171, 172, 173, 174, 175, 176, 177, 178, 179, 180, 181, 182, 183, 184, 185, 186, 187, 188, 189, 190, 191, 192, 193, 194, 195, 196, 197, 198, 199, 200, 201, 202, 203, 204, 205, 206, 207, 208, 209, 210, 211, 212, 213, 214, 215, 216, 217, 218, 219, 220, 221, 222, 223, 224, 225, 226, 227, 228, 229, 230, 231, 232, 233, 234, 235, 236, 237, 238, 239, 240, 241, 242, 243, 244, 245, 246, 247, 248, 249, 250, 251, 252, 253, 254, 255, 256, 257, 258, 259, 260, 261, 262, 263, 264, 265, 266, 267, 268, 269, 270, 271, 272, 273, 274, 275, 276, 277, 278, 279, 280, 281, 282, 283, 284, 285, 286, 287, 288, 289, 290, 291, 292, 293, 294, 295, 296, 297, 298, 299, 300, 301, 302, 303, 304, 305, 306, 307, 308, 309, 310, 311, 312, 313, 314, 315, 316, 317, 318, 319, 320, 321, 322, 323, 324, 325, 326, 327, 328, 329, 330, 331, 332, 333, 334, 335, 336, 337, 338, 339, 340, 341, 342, 343, 344, 345, 346, 347, 348, 349, 350, 351, 352, 353, 354, 355, 356, 357, 358, 359, 360, 361, 362, 363, 364, 365, 366, 367, 368, 369, 370, 371, 372, 373, 374, 375, 376, 377, 378, 379, 380, 381, 382, 383, 384, 385, 386, 387, 388, 389, 390, 391, 392, 393, 394, 395, 396, 397, 398, 399, 400, 401, 402, 403, 404, 405, 406, 407, 408, 409, 410, 411, 412, 413, 414, 415, 416, 417, 418, 419, 420, 421, 422, 423, 424, 425, 426, 427, 428, 429, 430, 431, 432, 433, 434, 435, 436, 437, 438, 439, 440, 441, 442, 443, 444],
      "AcquisitionTime": ["141359.267500", "141400.757500", "141402.247500", "141403.737500", "141405.227500", "141406.717500", "141408.207500", "141409.697500", "141411.187500", "141412.677500", "141414.167500", "141415.657500", "141417.147500", "141418.637500", "141420.127500", "141421.617500", "141423.107500", "141424.597500", "141426.087500", "141427.577500", "141429.067500", "141430.557500", "141432.047500", "141433.537500", "141435.027500", "141436.517500", "141438.007500", "141439.497500", "141440.987500", "141442.477500", "141443.967500", "141445.457500", "141446.947500", "141448.437500", "141449.927500", "141451.417500", "141452.907500", "141454.397500", "141455.887500", "141457.377500", "141458.867500", "141500.357500", "141501.847500", "141503.337500", "141504.827500", "141506.317500", "141507.807500", "141509.297500", "141510.787500", "141512.277500", "141513.767500", "141515.257500", "141516.747500", "141518.237500", "141519.727500", "141521.217500", "141522.707500", "141524.197500", "141525.687500", "141527.177500", "141528.667500", "141530.157500", "141531.647500", "141533.137500", "141534.627500", "141536.117500", "141537.607500", "141539.097500", "141540.587500", "141542.077500", "141543.567500", "141545.057500", "141546.547500", "141548.037500", "141549.527500", "141551.017500", "141552.507500", "141553.997500", "141555.487500", "141556.977500", "141558.467500", "141559.957500", "141601.447500", "141602.937500", "141604.427500", "141605.917500", "141607.407500", "141608.897500", "141610.387500", "141611.877500", "141613.367500", "141614.857500", "141616.347500", "141617.837500", "141619.327500", "141620.817500", "141622.307500", "141623.797500", "141625.287500", "141626.777500", "141628.267500", "141629.757500", "141631.247500", "141632.737500", "141634.227500", "141635.717500", "141637.207500", "141638.697500", "141640.187500", "141641.677500", "141643.167500", "141644.657500", "141646.147500", "141647.637500", "141649.127500", "141650.617500", "141652.107500", "141653.597500", "141655.087500", "141656.577500", "141658.067500", "141659.557500", "141701.047500", "141702.537500", "141704.027500", "141705.517500", "141707.007500", "141708.497500", "141709.987500", "141711.477500", "141712.967500", "141714.457500", "141715.947500", "141717.437500", "141718.927500", "141720.417500", "141721.907500", "141723.397500", "141724.887500", "141726.377500", "141727.867500", "141729.357500", "141730.847500", "141732.337500", "141733.827500", "141735.317500", "141736.807500", "141738.297500", "141739.787500", "141741.277500", "141742.767500", "141744.257500", "141745.747500", "141747.237500", "141748.727500", "141750.217500", "141751.707500", "141753.197500", "141754.687500", "141756.177500", "141757.667500", "141759.157500", "141800.647500", "141802.137500", "141803.627500", "141805.117500", "141806.607500", "141808.097500", "141809.587500", "141811.077500", "141812.567500", "141814.057500", "141815.547500", "141817.037500", "141818.527500", "141820.017500", "141821.507500", "141822.997500", "141824.487500", "141825.977500", "141827.467500", "141828.957500", "141830.447500", "141831.937500", "141833.427500", "141834.917500", "141836.407500", "141837.897500", "141839.387500", "141840.877500", "141842.367500", "141843.857500", "141845.347500", "141846.837500", "141848.327500", "141849.817500", "141851.307500", "141852.797500", "141854.287500", "141855.777500", "141857.267500", "141858.757500", "141900.247500", "141901.737500", "141903.227500", "141904.717500", "141906.207500", "141907.697500", "141909.187500", "141910.677500", "141912.167500", "141913.657500", "141915.147500", "141916.637500", "141918.127500", "141919.617500", "141921.107500", "141922.597500", "141924.087500", "141925.577500", "141927.067500", "141928.557500", "141930.047500", "141931.537500", "141933.027500", "141934.517500", "141936.007500", "141937.497500", "141938.987500", "141940.477500", "141941.967500", "141943.457500", "141944.947500", "141946.437500", "141947.927500", "141949.417500", "141950.907500", "141952.397500", "141953.887500", "141955.377500", "141956.867500", "141958.357500", "141959.847500", "142001.337500", "142002.827500", "142004.317500", "142005.807500", "142007.297500", "142008.787500", "142010.277500", "142011.767500", "142013.257500", "142014.747500", "142016.237500", "142017.727500", "142019.217500", "142020.707500", "142022.197500", "142023.687500", "142025.177500", "142026.667500", "142028.157500", "142029.647500", "142031.137500", "142032.627500", "142034.117500", "142035.607500", "142037.097500", "142038.587500", "142040.077500", "142041.567500", "142043.057500", "142044.547500", "142046.037500", "142047.527500", "142049.017500", "142050.507500", "142051.997500", "142053.487500", "142054.977500", "142056.467500", "142057.957500", "142059.447500", "142100.937500", "142102.427500", "142103.917500", "142105.407500", "142106.897500", "142108.387500", "142109.877500", "142111.367500", "142112.857500", "142114.347500", "142115.837500", "142117.327500", "142118.817500", "142120.307500", "142121.797500", "142123.287500", "142124.777500", "142126.267500", "142127.757500", "142129.247500", "142130.737500", "142132.227500", "142133.717500", "142135.207500", "142136.697500", "142138.187500", "142139.677500", "142141.167500", "142142.657500", "142144.147500", "142145.637500", "142147.127500", "142148.617500", "142150.107500", "142151.597500", "142153.087500", "142154.577500", "142156.067500", "142157.557500", "142159.047500", "142200.537500", "142202.027500", "142203.517500", "142205.007500", "142206.497500", "142207.987500", "142209.477500", "142210.967500", "142212.457500", "142213.947500", "142215.437500", "142216.927500", "142218.417500", "142219.907500", "142221.397500", "142222.887500", "142224.377500", "142225.867500", "142227.357500", "142228.847500", "142230.337500", "142231.827500", "142233.317500", "142234.807500", "142236.297500", "142237.787500", "142239.277500", "142240.767500", "142242.257500", "142243.747500", "142245.237500", "142246.727500", "142248.217500", "142249.707500", "142251.197500", "142252.687500", "142254.177500", "142255.667500", "142257.157500", "142258.647500", "142300.137500", "142301.627500", "142303.117500", "142304.607500", "142306.097500", "142307.587500", "142309.077500", "142310.567500", "142312.057500", "142313.547500", "142315.037500", "142316.527500", "142318.017500", "142319.507500", "142320.997500", "142322.487500", "142323.977500", "142325.467500", "142326.957500", "142328.447500", "142329.937500", "142331.427500", "142332.917500", "142334.407500", "142335.897500", "142337.387500", "142338.877500", "142340.367500", "142341.857500", "142343.347500", "142344.837500", "142346.327500", "142347.817500", "142349.307500", "142350.797500", "142352.287500", "142353.777500", "142355.267500", "142356.757500", "142358.247500", "142359.737500", "142401.227500", "142402.717500", "142404.207500", "142405.697500", "142407.187500", "142408.677500", "142410.167500", "142411.657500", "142413.147500", "142414.637500", "142416.127500", "142417.617500", "142419.107500", "142420.597500", "142422.087500", "142423.577500", "142425.067500", "142426.557500", "142428.047500", "142429.537500", "142431.027500", "142432.517500", "142434.007500", "142435.497500", "142436.987500", "142438.477500", "142439.967500", "142441.457500", "142442.947500", "142444.437500", "142445.927500", "142447.417500", "142448.907500", "142450.397500", "142451.887500", "142453.377500", "142454.867500", "142456.357500", "142457.847500", "142459.337500"],
      "ContentTime": ["141519.671000", "141519.673000", "141519.676000", "141519.678000", "141519.681000", "141519.683000", "141519.686000", "141519.688000", "141519.691000", "141519.699000", "141519.701000", "141519.704000", "141519.706000", "141519.709000", "141519.711000", "141519.713000", "141519.716000", "141519.718000", "141519.721000", "141519.723000", "141519.726000", "141519.728000", "141519.731000", "141519.733000", "141539.622000", "141539.625000", "141539.627000", "141539.630000", "141539.632000", "141539.635000", "141539.637000", "141539.640000", "141539.642000", "141539.645000", "141539.647000", "141539.649000", "141539.652000", "141539.654000", "141539.657000", "141539.659000", "141539.662000", "141539.664000", "141539.667000", "141539.669000", "141559.633000", "141559.635000", "141559.638000", "141559.640000", "141559.643000", "141559.645000", "141559.648000", "141559.650000", "141559.653000", "141559.655000", "141559.658000", "141559.660000", "141559.663000", "141559.665000", "141559.667000", "141559.670000", "141559.672000", "141559.675000", "141559.677000", "141559.699000", "141619.643000", "141619.646000", "141619.648000", "141619.653000", "141619.656000", "141619.659000", "141619.661000", "141619.663000", "141619.666000", "141619.669000", "141619.671000", "141619.673000", "141619.676000", "141619.678000", "141619.681000", "141619.684000", "141619.686000", "141619.689000", "141619.691000", "141619.693000", "141639.627000", "141639.629000", "141639.632000", "141639.634000", "141639.637000", "141639.639000", "141639.642000", "141639.644000", "141639.647000", "141639.657000", "141639.659000", "141639.662000", "141639.664000", "141639.667000", "141639.670000", "141639.672000", "141639.675000", "141639.677000", "141639.679000", "141639.682000", "141639.684000", "141719.663000", "141719.665000", "141719.668000", "141719.670000", "141719.673000", "141719.675000", "141719.678000", "141719.681000", "141719.683000", "141719.685000", "141719.688000", "141719.690000", "141719.693000", "141719.695000", "141719.698000", "141719.700000", "141719.703000", "141719.705000", "141719.708000", "141719.710000", "141719.713000", "141719.715000", "141719.718000", "141719.720000", "141719.722000", "141719.725000", "141719.727000", "141719.730000", "141800.012000", "141800.015000", "141800.018000", "141800.020000", "141800.022000", "141800.025000", "141800.027000", "141800.030000", "141800.032000", "141800.035000", "141800.037000", "141800.040000", "141800.042000", "141800.045000", "141800.047000", "141800.050000", "141800.052000", "141800.054000", "141800.057000", "141800.059000", "141800.062000", "141800.064000", "141800.067000", "141800.071000", "141800.073000", "141800.076000", "141800.078000", "141839.666000", "141839.669000", "141839.671000", "141839.674000", "141839.676000", "141839.679000", "141839.682000", "141839.684000", "141839.686000", "141839.689000", "141839.692000", "141839.694000", "141839.696000", "141839.699000", "141839.702000", "141839.704000", "141839.707000", "141839.709000", "141839.712000", "141839.714000", "141839.717000", "141839.719000", "141839.722000", "141839.724000", "141839.727000", "141839.729000", "141839.732000", "141919.658000", "141919.660000", "141919.663000", "141919.665000", "141919.668000", "141919.670000", "141919.673000", "141919.675000", "141919.678000", "141919.681000", "141919.683000", "141919.685000", "141919.693000", "141919.696000", "141919.698000", "141919.701000", "141919.703000", "141919.706000", "141919.708000", "141919.711000", "141919.713000", "141919.716000", "141919.718000", "141919.721000", "141919.723000", "141919.726000", "141919.728000", "141959.676000", "141959.679000", "141959.682000", "141959.684000", "141959.687000", "141959.689000", "141959.691000", "141959.694000", "141959.696000", "141959.699000", "141959.701000", "141959.704000", "141959.706000", "141959.709000", "141959.711000", "141959.714000", "141959.716000", "141959.719000", "141959.721000", "141959.724000", "141959.726000", "141959.729000", "141959.731000", "141959.734000", "141959.736000", "141959.739000", "141959.741000", "142039.662000", "142039.664000", "142039.667000", "142039.669000", "142039.672000", "142039.675000", "142039.677000", "142039.680000", "142039.682000", "142039.685000", "142039.687000", "142039.690000", "142039.692000", "142039.694000", "142039.697000", "142039.699000", "142039.702000", "142039.705000", "142039.707000", "142039.710000", "142039.712000", "142039.715000", "142039.717000", "142039.720000", "142039.722000", "142039.725000", "142119.663000", "142119.666000", "142119.669000", "142119.671000", "142119.674000", "142119.676000", "142119.679000", "142119.681000", "142119.684000", "142119.687000", "142119.689000", "142119.692000", "142119.694000", "142119.697000", "142119.699000", "142119.702000", "142119.704000", "142119.707000", "142119.709000", "142119.712000", "142119.714000", "142119.717000", "142119.719000", "142119.722000", "142119.724000", "142119.728000", "142119.731000", "142159.654000", "142159.657000", "142159.659000", "142159.662000", "142159.664000", "142159.667000", "142159.669000", "142159.672000", "142159.674000", "142159.677000", "142159.680000", "142159.682000", "142159.684000", "142159.687000", "142159.690000", "142159.692000", "142159.694000", "142159.697000", "142159.700000", "142159.702000", "142159.704000", "142159.707000", "142159.710000", "142159.712000", "142159.715000", "142159.717000", "142159.720000", "142239.679000", "142239.682000", "142239.684000", "142239.687000", "142239.690000", "142239.692000", "142239.695000", "142239.697000", "142239.700000", "142239.702000", "142239.705000", "142239.707000", "142239.710000", "142239.712000", "142239.715000", "142239.717000", "142239.720000", "142239.722000", "142239.724000", "142239.727000", "142239.729000", "142239.732000", "142239.734000", "142239.737000", "142239.739000", "142239.742000", "142239.744000", "142319.659000", "142319.662000", "142319.664000", "142319.667000", "142319.669000", "142319.672000", "142319.674000", "142319.677000", "142319.679000", "142319.682000", "142319.684000", "142319.687000", "142319.689000", "142319.692000", "142319.694000", "142319.697000", "142319.699000", "142319.702000", "142319.704000", "142319.707000", "142319.709000", "142319.712000", "142319.714000", "142319.717000", "142319.719000", "142319.721000", "142319.724000", "142359.668000", "142359.671000", "142359.673000", "142359.676000", "142359.679000", "142359.681000", "142359.683000", "142359.686000", "142359.689000", "142359.691000", "142359.694000", "142359.696000", "142359.699000", "142359.701000", "142359.704000", "142359.706000", "142359.709000", "142359.711000", "142359.714000", "142359.716000", "142359.719000", "142359.721000", "142359.723000", "142359.726000", "142359.728000", "142359.731000", "142359.733000", "142439.659000", "142439.662000", "142439.664000", "142439.667000", "142439.669000", "142439.672000", "142439.674000", "142439.676000", "142439.679000", "142439.681000", "142439.684000", "142439.687000", "142439.689000", "142439.692000", "142439.694000", "142439.697000", "142439.699000", "142439.702000", "142439.704000", "142439.707000", "142439.709000", "142439.712000", "142439.714000", "142439.717000", "142439.719000", "142439.722000", "142502.892000", "142502.894000", "142502.897000", "142502.899000", "142502.902000", "142502.905000", "142502.907000", "142502.910000", "142502.912000", "142502.915000", "142502.917000", "142502.920000", "142502.922000", "142502.925000", "142502.927000", "142502.930000"],
