{
  "AcquisitionMatrixPE": 104,
  "AcquisitionNumber": 1,
  "AcquisitionTime": "17:11:40.082500",
  "BandwidthPerPixelPhaseEncode": 17.17,
  "BaseResolution": 104,
  "BodyPartExamined": "BRAIN",
  "CoilCombinationMethod": "Sum of Squares",
  "ConsistencyInfo": "N4_VE11C_LATEST_20160120",
  "ConversionSoftware": "dcm2niix",
  "ConversionSoftwareVersion": "v1.0.20211006",
  "DerivedVendorReportedEchoSpacing": 0.000560011,
  "DeviceSerialNumber": "167006",
  "DwellTime": 2.1e-06,
  "EchoTime": 0.037,
  "EchoTrainLength": 104,
  "EffectiveEchoSpacing": 0.000560011,
  "FlipAngle": 52,
  "HeudiconvVersion": "0.5.3.post569+g418601f",
  "ImageComments": "Unaliased MB4/PE3/LB",
  "ImageOrientationPatientDICOM": [0.999738, -0.0217323, 0.00722637, 0.0228618, 0.92824, -0.371279],
  "ImageOrientationText": "Tra>Cor(-21.8)>Sag(-0.1)",
  "ImageType": [
    "ORIGINAL",
    "PRIMARY",
    "M",
    "MB",
    "ND",
    "MOSAIC"
],
  "ImagingFrequency": 123.259,
  "InPlanePhaseEncodingDirectionDICOM": "COL",
  "InstitutionAddress": "Chemin Queen-Mary 4565,Montreal,District,CA,H3W 1W5",
  "InstitutionName": "IUGM",
  "InstitutionalDepartmentName": "Department",
  "MRAcquisitionType": "2D",
  "MagneticFieldStrength": 3,
  "Manufacturer": "Siemens",
  "ManufacturersModelName": "Prisma_fit",
  "MatrixCoilMode": "SENSE",
  "Modality": "MR",
  "MultibandAccelerationFactor": 4,
  "PartialFourier": 1,
  "PatientPosition": "HFS",
  "PercentPhaseFOV": 100,
  "PercentSampling": 100,
  "PhaseEncodingDirection": "j",
  "PhaseEncodingSteps": 104,
  "PhaseResolution": 1,
  "PixelBandwidth": 2290,
  "ProcedureStepDescription": "games^mario",
  "ProtocolName": "func_task-mario_run-04",
  "PulseSequenceDetails": "%CustomerSeq%\\cmrr_mbep2d_bold",
  "ReceiveCoilActiveElements": "HC1-7;NC1,2",
  "ReceiveCoilName": "HeadNeck_64",
  "ReconMatrixPE": 104,
  "RepetitionTime": 1.49,
  "SAR": 0.0442324,
  "ScanOptions": "FS",
  "ScanningSequence": "EP",
  "SequenceName": "epfid2d1_104",
  "SequenceVariant": "SK\\SS",
  "SeriesDescription": "func_task-mario_run-04",
  "SeriesNumber": 19,
  "ShimSetting": [614, -7255, -8833, 361, 0, -327, 27, 16],
  "SliceThickness": 2,
  "SliceTiming": [0, 0.785, 0.0975, 0.8825, 0.195, 0.98, 0.295, 1.0775, 0.3925, 1.175, 0.49, 1.275, 0.5875, 1.3725, 0.685, 0, 0.785, 0.0975, 0.8825, 0.195, 0.98, 0.295, 1.0775, 0.3925, 1.175, 0.49, 1.275, 0.5875, 1.3725, 0.685, 0, 0.785, 0.0975, 0.8825, 0.195, 0.98, 0.295, 1.0775, 0.3925, 1.175, 0.49, 1.275, 0.5875, 1.3725, 0.685, 0, 0.785, 0.0975, 0.8825, 0.195, 0.98, 0.295, 1.0775, 0.3925, 1.175, 0.49, 1.275, 0.5875, 1.3725, 0.685],
  "SoftwareVersions": "syngo MR E11",
  "SpacingBetweenSlices": 2,
  "StationName": "MRC35049",
  "TaskName": "mario",
  "TotalReadoutTime": 0.0576811,
  "TxRefAmp": 255.545,
  "WipMemBlock": "42c1b96f-f657-47ec-82c9-2dd72b3ccd60||Sequence: R016 ve11c/master r/e634e98; Dec 19 2017 11:00:25 by eja",
  "dcmmeta_affine": [
    [-1.999475359916687, 0.04572364315390587, -0.0027219264302402735, 101.85821533203125],
    [0.04346468299627304, 1.8564796447753906, -0.7426940202713013, -63.34224319458008],
    [0.0144527368247509, 0.7425583004951477, 1.856986403465271, -66.82899475097656],
    [0.0, 0.0, 0.0, 1.0]
],
  "dcmmeta_reorient_transform": [
    [0.0, -1.0, 0.0, 103.0],
    [1.0, 0.0, 0.0, 0.0],
    [0.0, 0.0, 1.0, 0.0],
    [0.0, 0.0, 0.0, 1.0]
],
  "dcmmeta_shape": [104, 104, 60, 456],
  "dcmmeta_slice_dim": 2,
  "dcmmeta_version": 0.6,
  "global": {
    "const": {
      "AcquisitionMatrix": [104, 0, 0, 104],
      "AngioFlag": "N",
      "BitsAllocated": 16,
      "BitsStored": 16,
      "BodyPartExamined": "BRAIN",
      "Columns": 832,
      "EchoNumbers": 1,
      "EchoTime": 37.0,
      "EchoTrainLength": 104,
      "FlipAngle": 52.0,
      "HighBit": 15,
      "ImageOrientationPatient": [0.99973770804779, -0.0217323423951, 0.00722636847744, 0.02286182159749, 0.92823979632306, -0.37127916402],
      "ImagePositionPatient": [-851.02021006508, -787.81258271053, 274.68495186184],
      "ImageType": [
        "ORIGINAL",
        "PRIMARY",
        "M",
        "MB",
        "ND",
        "MOSAIC"
],
      "ImagedNucleus": "1H",
      "ImagingFrequency": 123.258849,
      "InPlanePhaseEncodingDirection": "COL",
      "MRAcquisitionType": "2D",
      "MagneticFieldStrength": 3.0,
      "Manufacturer": "SIEMENS",
      "ManufacturerModelName": "Prisma_fit",
      "Modality": "MR",
      "NumberOfAverages": 1.0,
      "NumberOfPhaseEncodingSteps": 104,
      "PercentPhaseFieldOfView": 100.0,
      "PercentSampling": 100.0,
      "PerformedProcedureStepStartTime": "160259.055000",
      "PhotometricInterpretation": "MONOCHROME2",
      "PixelBandwidth": 2290.0,
      "PixelRepresentation": 0,
      "PixelSpacing": [2.0, 2.0],
      "ProtocolName": "func_task-mario_run-04",
      "RepetitionTime": 1490.0,
      "Rows": 832,
      "SAR": 0.04423236144595,
      "SamplesPerPixel": 1,
      "ScanOptions": "FS",
      "ScanningSequence": "EP",
      "SequenceName": "epfid2d1_104",
      "SequenceVariant": [
        "SK",
        "SS"
],
      "SeriesDescription": "func_task-mario_run-04",
      "SeriesNumber": 19,
      "SeriesTime": "171312.003000",
      "SliceLocation": -38.66693615183,
      "SliceThickness": 2.0,
      "SmallestImagePixelValue": 0,
      "SoftwareVersions": "syngo MR E11",
      "SpacingBetweenSlices": 2.0000000727061,
      "SpecificCharacterSet": "ISO_IR 100",
      "StudyID": "1",
      "StudyTime": "160258.986000",
      "TransmitCoilName": "Body",
      "VariableFlipAngleFlag": "N",
      "WindowCenterWidthExplanation": "Algo1",
      "dBdt": 0.0},
    "slices": {}
  },
  "time": {
    "samples": {
      "AcquisitionNumber": [1, 2, 3, 4, 5, 6, 7, 8, 9, 10, 11, 12, 13, 14, 15, 16, 17, 18, 19, 20, 21, 22, 23, 24, 25, 26, 27, 28, 29, 30, 31, 32, 33, 34, 35, 36, 37, 38, 39, 40, 41, 42, 43, 44, 45, 46, 47, 48, 49, 50, 51, 52, 53, 54, 55, 56, 57, 58, 59, 60, 61, 62, 63, 64, 65, 66, 67, 68, 69, 70, 71, 72, 73, 74, 75, 76, 77, 78, 79, 80, 81, 82, 83, 84, 85, 86, 87, 88, 89, 90, 91, 92, 93, 94, 95, 96, 97, 98, 99, 100, 101, 102, 103, 104, 105, 106, 107, 108, 109, 110, 111, 112, 113, 114, 115, 116, 117, 118, 119, 120, 121, 122, 123, 124, 125, 126, 127, 128, 129, 130, 131, 132, 133, 134, 135, 136, 137, 138, 139, 140, 141, 142, 143, 144, 145, 146, 147, 148, 149, 150, 151, 152, 153, 154, 155, 156, 157, 158, 159, 160, 161, 162, 163, 164, 165, 166, 167, 168, 169, 170, 171, 172, 173, 174, 175, 176, 177, 178, 179, 180, 181, 182, 183, 184, 185, 186, 187, 188, 189, 190, 191, 192, 193, 194, 195, 196, 197, 198, 199, 200, 201, 202, 203, 204, 205, 206, 207, 208, 209, 210, 211, 212, 213, 214, 215, 216, 217, 218, 219, 220, 221, 222, 223, 224, 225, 226, 227, 228, 229, 230, 231, 232, 233, 234, 235, 236, 237, 238, 239, 240, 241, 242, 243, 244, 245, 246, 247, 248, 249, 250, 251, 252, 253, 254, 255, 256, 257, 258, 259, 260, 261, 262, 263, 264, 265, 266, 267, 268, 269, 270, 271, 272, 273, 274, 275, 276, 277, 278, 279, 280, 281, 282, 283, 284, 285, 286, 287, 288, 289, 290, 291, 292, 293, 294, 295, 296, 297, 298, 299, 300, 301, 302, 303, 304, 305, 306, 307, 308, 309, 310, 311, 312, 313, 314, 315, 316, 317, 318, 319, 320, 321, 322, 323, 324, 325, 326, 327, 328, 329, 330, 331, 332, 333, 334, 335, 336, 337, 338, 339, 340, 341, 342, 343, 344, 345, 346, 347, 348, 349, 350, 351, 352, 353, 354, 355, 356, 357, 358, 359, 360, 361, 362, 363, 364, 365, 366, 367, 368, 369, 370, 371, 372, 373, 374, 375, 376, 377, 378, 379, 380, 381, 382, 383, 384, 385, 386, 387, 388, 389, 390, 391, 392, 393, 394, 395, 396, 397, 398, 399, 400, 401, 402, 403, 404, 405, 406, 407, 408, 409, 410, 411, 412, 413, 414, 415, 416, 417, 418, 419, 420, 421, 422, 423, 424, 425, 426, 427, 428, 429, 430, 431, 432, 433, 434, 435, 436, 437, 438, 439, 440, 441, 442, 443, 444, 445, 446, 447, 448, 449, 450, 451, 452, 453, 454, 455, 456],
      "AcquisitionTime": ["171140.082500", "171141.572500", "171143.062500", "171144.552500", "171146.042500", "171147.532500", "171149.022500", "171150.512500", "171152.002500", "171153.492500", "171154.982500", "171156.472500", "171157.962500", "171159.452500", "171200.942500", "171202.432500", "171203.922500", "171205.412500", "171206.902500", "171208.392500", "171209.882500", "171211.372500", "171212.862500", "171214.352500", "171215.842500", "171217.332500", "171218.822500", "171220.312500", "171221.802500", "171223.292500", "171224.782500", "171226.272500", "171227.762500", "171229.252500", "171230.742500", "171232.232500", "171233.722500", "171235.212500", "171236.702500", "171238.192500", "171239.682500", "171241.172500", "171242.662500", "171244.152500", "171245.642500", "171247.132500", "171248.622500", "171250.112500", "171251.602500", "171253.092500", "171254.582500", "171256.072500", "171257.562500", "171259.052500", "171300.542500", "171302.032500", "171303.522500", "171305.012500", "171306.502500", "171307.992500", "171309.482500", "171310.972500", "171312.462500", "171313.952500", "171315.442500", "171316.932500", "171318.422500", "171319.912500", "171321.402500", "171322.892500", "171324.382500", "171325.872500", "171327.362500", "171328.852500", "171330.342500", "171331.832500", "171333.322500", "171334.812500", "171336.302500", "171337.792500", "171339.282500", "171340.772500", "171342.262500", "171343.752500", "171345.242500", "171346.732500", "171348.222500", "171349.712500", "171351.202500", "171352.692500", "171354.182500", "171355.672500", "171357.162500", "171358.652500", "171400.142500", "171401.632500", "171403.122500", "171404.612500", "171406.102500", "171407.592500", "171409.082500", "171410.572500", "171412.062500", "171413.552500", "171415.042500", "171416.532500", "171418.022500", "171419.512500", "171421.002500", "171422.492500", "171423.982500", "171425.472500", "171426.962500", "171428.452500", "171429.942500", "171431.432500", "171432.922500", "171434.412500", "171435.902500", "171437.392500", "171438.882500", "171440.372500", "171441.862500", "171443.352500", "171444.842500", "171446.332500", "171447.822500", "171449.312500", "171450.802500", "171452.292500", "171453.782500", "171455.272500", "171456.762500", "171458.252500", "171459.742500", "171501.232500", "171502.722500", "171504.212500", "171505.702500", "171507.192500", "171508.682500", "171510.172500", "171511.662500", "171513.152500", "171514.642500", "171516.132500", "171517.622500", "171519.112500", "171520.602500", "171522.092500", "171523.582500", "171525.072500", "171526.562500", "171528.052500", "171529.542500", "171531.032500", "171532.522500", "171534.012500", "171535.502500", "171536.992500", "171538.482500", "171539.972500", "171541.462500", "171542.952500", "171544.442500", "171545.932500", "171547.422500", "171548.912500", "171550.402500", "171551.892500", "171553.382500", "171554.872500", "171556.362500", "171557.852500", "171559.342500", "171600.832500", "171602.322500", "171603.812500", "171605.302500", "171606.792500", "171608.282500", "171609.772500", "171611.262500", "171612.752500", "171614.242500", "171615.732500", "171617.222500", "171618.712500", "171620.202500", "171621.692500", "171623.182500", "171624.672500", "171626.162500", "171627.652500", "171629.142500", "171630.632500", "171632.122500", "171633.612500", "171635.102500", "171636.592500", "171638.082500", "171639.572500", "171641.062500", "171642.552500", "171644.042500", "171645.532500", "171647.022500", "171648.512500", "171650.002500", "171651.492500", "171652.982500", "171654.472500", "171655.962500", "171657.452500", "171658.942500", "171700.432500", "171701.922500", "171703.412500", "171704.902500", "171706.392500", "171707.882500", "171709.372500", "171710.862500", "171712.352500", "171713.842500", "171715.332500", "171716.822500", "171718.312500", "171719.802500", "171721.292500", "171722.782500", "171724.272500", "171725.762500", "171727.252500", "171728.742500", "171730.232500", "171731.722500", "171733.212500", "171734.702500", "171736.192500", "171737.682500", "171739.172500", "171740.662500", "171742.152500", "171743.642500", "171745.132500", "171746.622500", "171748.112500", "171749.602500", "171751.092500", "171752.582500", "171754.072500", "171755.562500", "171757.052500", "171758.542500", "171800.032500", "171801.522500", "171803.012500", "171804.502500", "171805.992500", "171807.482500", "171808.972500", "171810.462500", "171811.952500", "171813.442500", "171814.932500", "171816.422500", "171817.912500", "171819.402500", "171820.892500", "171822.382500", "171823.872500", "171825.362500", "171826.852500", "171828.342500", "171829.832500", "171831.322500", "171832.812500", "171834.302500", "171835.792500", "171837.282500", "171838.772500", "171840.262500", "171841.752500", "171843.242500", "171844.732500", "171846.222500", "171847.712500", "171849.202500", "171850.692500", "171852.182500", "171853.672500", "171855.162500", "171856.652500", "171858.142500", "171859.632500", "171901.122500", "171902.612500", "171904.102500", "171905.592500", "171907.082500", "171908.572500", "171910.062500", "171911.552500", "171913.042500", "171914.532500", "171916.022500", "171917.512500", "171919.002500", "171920.492500", "171921.982500", "171923.472500", "171924.962500", "171926.452500", "171927.942500", "171929.432500", "171930.922500", "171932.412500", "171933.902500", "171935.392500", "171936.882500", "171938.372500", "171939.862500", "171941.352500", "171942.842500", "171944.332500", "171945.822500", "171947.312500", "171948.802500", "171950.292500", "171951.782500", "171953.272500", "171954.762500", "171956.252500", "171957.742500", "171959.232500", "172000.722500", "172002.212500", "172003.702500", "172005.192500", "172006.682500", "172008.172500", "172009.662500", "172011.152500", "172012.642500", "172014.132500", "172015.622500", "172017.112500", "172018.602500", "172020.092500", "172021.582500", "172023.072500", "172024.562500", "172026.052500", "172027.542500", "172029.032500", "172030.522500", "172032.012500", "172033.502500", "172034.992500", "172036.482500", "172037.972500", "172039.462500", "172040.952500", "172042.442500", "172043.932500", "172045.422500", "172046.912500", "172048.402500", "172049.892500", "172051.382500", "172052.872500", "172054.362500", "172055.852500", "172057.342500", "172058.832500", "172100.322500", "172101.812500", "172103.302500", "172104.792500", "172106.282500", "172107.772500", "172109.262500", "172110.752500", "172112.242500", "172113.732500", "172115.222500", "172116.712500", "172118.202500", "172119.692500", "172121.182500", "172122.672500", "172124.162500", "172125.652500", "172127.142500", "172128.632500", "172130.122500", "172131.612500", "172133.102500", "172134.592500", "172136.082500", "172137.572500", "172139.062500", "172140.552500", "172142.042500", "172143.532500", "172145.022500", "172146.512500", "172148.002500", "172149.492500", "172150.982500", "172152.472500", "172153.962500", "172155.452500", "172156.942500", "172158.432500", "172159.922500", "172201.412500", "172202.902500", "172204.392500", "172205.882500", "172207.372500", "172208.862500", "172210.352500", "172211.842500", "172213.332500", "172214.822500", "172216.312500", "172217.802500", "172219.292500", "172220.782500", "172222.272500", "172223.762500", "172225.252500", "172226.742500", "172228.232500", "172229.722500", "172231.212500", "172232.702500", "172234.192500", "172235.682500", "172237.172500", "172238.662500", "172240.152500", "172241.642500", "172243.132500", "172244.622500", "172246.112500", "172247.602500", "172249.092500", "172250.582500", "172252.072500", "172253.562500", "172255.052500", "172256.542500", "172258.032500"],
      "ContentTime": ["171312.006000", "171312.010000", "171312.014000", "171312.017000", "171312.021000", "171312.024000", "171312.028000", "171312.031000", "171312.034000", "171312.038000", "171312.041000", "171312.045000", "171312.048000", "171312.051000", "171312.055000", "171312.058000", "171312.062000", "171312.065000", "171312.069000", "171312.072000", "171312.075000", "171312.079000", "171312.083000", "171312.097000", "171312.101000", "171312.104000", "171312.108000", "171312.111000", "171312.114000", "171312.118000", "171312.121000", "171312.125000", "171312.128000", "171312.132000", "171312.135000", "171312.138000", "171312.142000", "171312.145000", "171312.149000", "171331.954000", "171331.958000", "171331.962000", "171331.965000", "171331.968000", "171331.972000", "171331.975000", "171331.979000", "171331.982000", "171331.986000", "171331.989000", "171331.992000", "171331.996000", "171332.000000", "171332.004000", "171332.007000", "171332.010000", "171332.014000", "171332.018000", "171332.022000", "171351.954000", "171351.958000", "171351.962000", "171351.965000", "171351.968000", "171351.972000", "171351.975000", "171351.979000", "171351.982000", "171351.985000", "171351.989000", "171351.992000", "171351.996000", "171352.000000", "171352.003000", "171352.007000", "171352.010000", "171352.014000", "171352.017000", "171352.021000", "171411.954000", "171411.958000", "171411.962000", "171411.965000", "171411.968000", "171411.972000", "171411.975000", "171411.979000", "171411.982000", "171411.986000", "171411.989000", "171411.992000", "171411.996000", "171412.000000", "171412.004000", "171412.007000", "171412.011000", "171412.014000", "171412.018000", "171412.021000", "171451.955000", "171451.959000", "171451.963000", "171451.966000", "171451.970000", "171451.973000", "171451.976000", "171451.980000", "171451.983000", "171451.987000", "171451.990000", "171451.994000", "171451.997000", "171452.001000", "171452.005000", "171452.008000", "171452.012000", "171452.015000", "171452.019000", "171452.022000", "171452.025000", "171452.029000", "171452.032000", "171452.036000", "171452.039000", "171452.043000", "171452.047000", "171452.050000", "171452.053000", "171531.954000", "171531.958000", "171531.961000", "171531.965000", "171531.968000", "171531.972000", "171531.975000", "171531.979000", "171531.982000", "171531.986000", "171531.989000", "171531.993000", "171531.996000", "171532.001000", "171532.004000", "171532.007000", "171532.011000", "171532.014000", "171532.018000", "171532.021000", "171532.024000", "171532.028000", "171532.031000", "171532.035000", "171532.038000", "171532.042000", "171532.045000", "171611.954000", "171611.958000", "171611.962000", "171611.965000", "171611.968000", "171611.972000", "171611.975000", "171611.979000", "171611.982000", "171611.986000", "171611.989000", "171611.992000", "171611.996000", "171612.000000", "171612.004000", "171612.007000", "171612.011000", "171612.014000", "171612.018000", "171612.021000", "171612.025000", "171612.028000", "171612.031000", "171612.035000", "171612.038000", "171612.041000", "171612.045000", "171651.954000", "171651.958000", "171651.965000", "171651.968000", "171651.972000", "171651.975000", "171651.978000", "171651.982000", "171651.985000", "171651.989000", "171651.992000", "171651.995000", "171652.000000", "171652.004000", "171652.007000", "171652.010000", "171652.014000", "171652.017000", "171652.021000", "171652.024000", "171652.028000", "171652.031000", "171652.034000", "171652.038000", "171652.041000", "171652.045000", "171652.048000", "171711.955000", "171711.959000", "171711.963000", "171711.966000", "171711.970000", "171711.973000", "171711.983000", "171711.987000", "171711.990000", "171711.994000", "171711.997000", "171712.002000", "171712.005000", "171751.954000", "171751.958000", "171751.962000", "171751.965000", "171751.969000", "171751.972000", "171751.975000", "171751.979000", "171751.982000", "171751.986000", "171751.989000", "171751.993000", "171751.996000", "171752.001000", "171752.004000", "171752.007000", "171752.011000", "171752.014000", "171752.018000", "171752.021000", "171752.025000", "171752.028000", "171752.031000", "171752.035000", "171752.038000", "171752.042000", "171752.045000", "171831.954000", "171831.958000", "171831.962000", "171831.965000", "171831.969000", "171831.972000", "171831.976000", "171831.979000", "171831.982000", "171831.986000", "171831.989000", "171831.993000", "171831.996000", "171832.000000", "171832.004000", "171832.007000", "171832.011000", "171832.014000", "171832.018000", "171832.021000", "171832.025000", "171832.028000", "171832.032000", "171832.035000", "171832.039000", "171832.042000", "171832.046000", "171911.954000", "171911.958000", "171911.962000", "171911.980000", "171911.983000", "171911.987000", "171911.990000", "171911.993000", "171911.997000", "171912.001000", "171912.005000", "171912.008000", "171912.012000", "171912.015000", "171912.019000", "171912.022000", "171912.026000", "171912.029000", "171912.033000", "171912.036000", "171912.040000", "171912.043000", "171912.047000", "171912.050000", "171912.054000", "171912.057000", "171912.061000", "171951.955000", "171951.959000", "171951.964000", "171951.967000", "171951.971000", "171951.974000", "171951.978000", "171951.981000", "171951.984000", "171951.988000", "171951.991000", "171951.995000", "171951.998000", "171952.001000", "171952.005000", "171952.008000", "171952.012000", "171952.015000", "171952.019000", "171952.022000", "171952.026000", "171952.029000", "171952.033000", "171952.036000", "171952.040000", "171952.043000", "172031.954000", "172031.958000", "172031.962000", "172031.965000", "172031.969000", "172031.972000", "172031.976000", "172031.979000", "172031.982000", "172031.986000", "172031.989000", "172031.993000", "172031.996000", "172032.001000", "172032.004000", "172032.008000", "172032.011000", "172032.014000", "172032.018000", "172032.021000", "172032.025000", "172032.028000", "172032.032000", "172032.035000", "172032.039000", "172032.042000", "172032.046000", "172111.954000", "172111.958000", "172111.962000", "172111.965000", "172111.969000", "172111.972000", "172111.975000", "172111.979000", "172111.982000", "172111.986000", "172111.989000", "172111.993000", "172111.998000", "172112.003000", "172112.006000", "172112.009000", "172112.013000", "172112.016000", "172112.020000", "172112.039000", "172112.043000", "172112.046000", "172112.049000", "172112.053000", "172112.056000", "172112.060000", "172112.063000", "172151.955000", "172151.959000", "172151.963000", "172151.966000", "172151.970000", "172151.973000", "172151.976000", "172151.980000", "172151.983000", "172151.987000", "172151.990000", "172151.994000", "172151.997000", "172152.001000", "172152.005000", "172152.008000", "172152.012000", "172152.015000", "172152.019000", "172152.022000", "172152.026000", "172152.029000", "172152.033000", "172152.036000", "172152.040000", "172152.043000", "172152.047000", "172231.955000", "172231.958000", "172231.962000", "172231.965000", "172231.969000", "172231.972000", "172231.976000", "172231.979000", "172231.982000", "172231.986000", "172231.989000", "172231.993000", "172231.996000", "172232.001000", "172232.004000", "172232.007000", "172232.011000", "172232.014000", "172232.018000", "172232.021000", "172232.024000", "172232.028000", "172232.031000", "172232.035000", "172232.038000", "172232.042000", "172232.045000", "172300.757000", "172300.762000", "172300.766000", "172300.769000", "172300.789000", "172300.792000", "172300.796000", "172300.799000", "172300.803000", "172300.806000", "172300.810000", "172300.813000", "172300.817000", "172300.820000", "172300.824000", "172300.827000", "172300.830000", "172300.834000", "172300.837000"],
