{
  "AcquisitionMatrixPE": 104,
  "AcquisitionNumber": 1,
  "AcquisitionTime": "16:58:54.127500",
  "BandwidthPerPixelPhaseEncode": 17.17,
  "BaseResolution": 104,
  "BodyPartExamined": "BRAIN",
  "CoilCombinationMethod": "Sum of Squares",
  "ConsistencyInfo": "N4_VE11C_LATEST_20160120",
  "ConversionSoftware": "dcm2niix",
  "ConversionSoftwareVersion": "v1.0.20211006",
  "DerivedVendorReportedEchoSpacing": 0.000560011,
  "DeviceSerialNumber": "167006",
  "DwellTime": 2.1e-06,
  "EchoTime": 0.037,
  "EchoTrainLength": 104,
  "EffectiveEchoSpacing": 0.000560011,
  "FlipAngle": 52,
  "HeudiconvVersion": "0.5.3.post569+g418601f",
  "ImageComments": "Unaliased MB4/PE3/LB",
  "ImageOrientationPatientDICOM": [0.999738, -0.0217323, 0.00722637, 0.0228618, 0.92824, -0.371279],
  "ImageOrientationText": "Tra>Cor(-21.8)>Sag(-0.1)",
  "ImageType": [
    "ORIGINAL",
    "PRIMARY",
    "M",
    "MB",
    "ND",
    "MOSAIC"
],
  "ImagingFrequency": 123.259,
  "InPlanePhaseEncodingDirectionDICOM": "COL",
  "InstitutionAddress": "Chemin Queen-Mary 4565,Montreal,District,CA,H3W 1W5",
  "InstitutionName": "IUGM",
  "InstitutionalDepartmentName": "Department",
  "MRAcquisitionType": "2D",
  "MagneticFieldStrength": 3,
  "Manufacturer": "Siemens",
  "ManufacturersModelName": "Prisma_fit",
  "MatrixCoilMode": "SENSE",
  "Modality": "MR",
  "MultibandAccelerationFactor": 4,
  "PartialFourier": 1,
  "PatientPosition": "HFS",
  "PercentPhaseFOV": 100,
  "PercentSampling": 100,
  "PhaseEncodingDirection": "j",
  "PhaseEncodingSteps": 104,
  "PhaseResolution": 1,
  "PixelBandwidth": 2290,
  "ProcedureStepDescription": "games^mario",
  "ProtocolName": "func_task-mario_run-03",
  "PulseSequenceDetails": "%CustomerSeq%\\cmrr_mbep2d_bold",
  "ReceiveCoilActiveElements": "HC1-7;NC1,2",
  "ReceiveCoilName": "HeadNeck_64",
  "ReconMatrixPE": 104,
  "RepetitionTime": 1.49,
  "SAR": 0.0442324,
  "ScanOptions": "FS",
  "ScanningSequence": "EP",
  "SequenceName": "epfid2d1_104",
  "SequenceVariant": "SK\\SS",
  "SeriesDescription": "func_task-mario_run-03",
  "SeriesNumber": 16,
  "ShimSetting": [614, -7255, -8833, 361, 0, -327, 27, 16],
  "SliceThickness": 2,
  "SliceTiming": [0, 0.785, 0.1, 0.8825, 0.1975, 0.98, 0.295, 1.08, 0.3925, 1.1775, 0.49, 1.275, 0.59, 1.3725, 0.6875, 0, 0.785, 0.1, 0.8825, 0.1975, 0.98, 0.295, 1.08, 0.3925, 1.1775, 0.49, 1.275, 0.59, 1.3725, 0.6875, 0, 0.785, 0.1, 0.8825, 0.1975, 0.98, 0.295, 1.08, 0.3925, 1.1775, 0.49, 1.275, 0.59, 1.3725, 0.6875, 0, 0.785, 0.1, 0.8825, 0.1975, 0.98, 0.295, 1.08, 0.3925, 1.1775, 0.49, 1.275, 0.59, 1.3725, 0.6875],
  "SoftwareVersions": "syngo MR E11",
  "SpacingBetweenSlices": 2,
  "StationName": "MRC35049",
  "TaskName": "mario",
  "TotalReadoutTime": 0.0576811,
  "TxRefAmp": 255.545,
  "WipMemBlock": "31543d31-fcfa-47b3-bc3f-5bb841bcd2b6||Sequence: R016 ve11c/master r/e634e98; Dec 19 2017 11:00:25 by eja",
  "dcmmeta_affine": [
    [-1.999475359916687, 0.04572364315390587, -0.0027219264302402735, 101.85821533203125],
    [0.04346468299627304, 1.8564796447753906, -0.7426940202713013, -63.34224319458008],
    [0.0144527368247509, 0.7425583004951477, 1.856986403465271, -66.82899475097656],
    [0.0, 0.0, 0.0, 1.0]
],
  "dcmmeta_reorient_transform": [
    [0.0, -1.0, 0.0, 103.0],
    [1.0, 0.0, 0.0, 0.0],
    [0.0, 0.0, 1.0, 0.0],
    [0.0, 0.0, 0.0, 1.0]
],
  "dcmmeta_shape": [104, 104, 60, 454],
  "dcmmeta_slice_dim": 2,
  "dcmmeta_version": 0.6,
  "global": {
    "const": {
      "AcquisitionMatrix": [104, 0, 0, 104],
      "AngioFlag": "N",
      "BitsAllocated": 16,
      "BitsStored": 16,
      "BodyPartExamined": "BRAIN",
      "Columns": 832,
      "EchoNumbers": 1,
      "EchoTime": 37.0,
      "EchoTrainLength": 104,
      "FlipAngle": 52.0,
      "HighBit": 15,
      "ImageOrientationPatient": [0.99973770804779, -0.0217323423951, 0.00722636847744, 0.02286182159749, 0.92823979632306, -0.37127916402],
      "ImagePositionPatient": [-851.02021006508, -787.81258271053, 274.68495186184],
      "ImageType": [
        "ORIGINAL",
        "PRIMARY",
        "M",
        "MB",
        "ND",
        "MOSAIC"
],
      "ImagedNucleus": "1H",
      "ImagingFrequency": 123.258845,
      "InPlanePhaseEncodingDirection": "COL",
      "MRAcquisitionType": "2D",
      "MagneticFieldStrength": 3.0,
      "Manufacturer": "SIEMENS",
      "ManufacturerModelName": "Prisma_fit",
      "Modality": "MR",
      "NumberOfAverages": 1.0,
      "NumberOfPhaseEncodingSteps": 104,
      "PercentPhaseFieldOfView": 100.0,
      "PercentSampling": 100.0,
      "PerformedProcedureStepStartTime": "160259.055000",
      "PhotometricInterpretation": "MONOCHROME2",
      "PixelBandwidth": 2290.0,
      "PixelRepresentation": 0,
      "PixelSpacing": [2.0, 2.0],
      "ProtocolName": "func_task-mario_run-03",
      "RepetitionTime": 1490.0,
      "Rows": 832,
      "SAR": 0.04423236144595,
      "SamplesPerPixel": 1,
      "ScanOptions": "FS",
      "ScanningSequence": "EP",
      "SequenceName": "epfid2d1_104",
      "SequenceVariant": [
        "SK",
        "SS"
],
      "SeriesDescription": "func_task-mario_run-03",
      "SeriesNumber": 16,
      "SeriesTime": "170017.306000",
      "SliceLocation": -38.66693615183,
      "SliceThickness": 2.0,
      "SmallestImagePixelValue": 0,
      "SoftwareVersions": "syngo MR E11",
      "SpacingBetweenSlices": 2.0000000727061,
      "SpecificCharacterSet": "ISO_IR 100",
      "StudyID": "1",
      "StudyTime": "160258.986000",
      "TransmitCoilName": "Body",
      "VariableFlipAngleFlag": "N",
      "WindowCenterWidthExplanation": "Algo1",
      "dBdt": 0.0},
    "slices": {}
  },
  "time": {
    "samples": {
      "AcquisitionNumber": [1, 2, 3, 4, 5, 6, 7, 8, 9, 10, 11, 12, 13, 14, 15, 16, 17, 18, 19, 20, 21, 22, 23, 24, 25, 26, 27, 28, 29, 30, 31, 32, 33, 34, 35, 36, 37, 38, 39, 40, 41, 42, 43, 44, 45, 46, 47, 48, 49, 50, 51, 52, 53, 54, 55, 56, 57, 58, 59, 60, 61, 62, 63, 64, 65, 66, 67, 68, 69, 70, 71, 72, 73, 74, 75, 76, 77, 78, 79, 80, 81, 82, 83, 84, 85, 86, 87, 88, 89, 90, 91, 92, 93, 94, 95, 96, 97, 98, 99, 100, 101, 102, 103, 104, 105, 106, 107, 108, 109, 110, 111, 112, 113, 114, 115, 116, 117, 118, 119, 120, 121, 122, 123, 124, 125, 126, 127, 128, 129, 130, 131, 132, 133, 134, 135, 136, 137, 138, 139, 140, 141, 142, 143, 144, 145, 146, 147, 148, 149, 150, 151, 152, 153, 154, 155, 156, 157, 158, 159, 160, 161, 162, 163, 164, 165, 166, 167, 168, 169, 170, 171, 172, 173, 174, 175, 176, 177, 178, 179, 180, 181, 182, 183, 184, 185, 186, 187, 188, 189, 190, 191, 192, 193, 194, 195, 196, 197, 198, 199, 200, 201, 202, 203, 204, 205, 206, 207, 208, 209, 210, 211, 212, 213, 214, 215, 216, 217, 218, 219, 220, 221, 222, 223, 224, 225, 226, 227, 228, 229, 230, 231, 232, 233, 234, 235, 236, 237, 238, 239, 240, 241, 242, 243, 244, 245, 246, 247, 248, 249, 250, 251, 252, 253, 254, 255, 256, 257, 258, 259, 260, 261, 262, 263, 264, 265, 266, 267, 268, 269, 270, 271, 272, 273, 274, 275, 276, 277, 278, 279, 280, 281, 282, 283, 284, 285, 286, 287, 288, 289, 290, 291, 292, 293, 294, 295, 296, 297, 298, 299, 300, 301, 302, 303, 304, 305, 306, 307, 308, 309, 310, 311, 312, 313, 314, 315, 316, 317, 318, 319, 320, 321, 322, 323, 324, 325, 326, 327, 328, 329, 330, 331, 332, 333, 334, 335, 336, 337, 338, 339, 340, 341, 342, 343, 344, 345, 346, 347, 348, 349, 350, 351, 352, 353, 354, 355, 356, 357, 358, 359, 360, 361, 362, 363, 364, 365, 366, 367, 368, 369, 370, 371, 372, 373, 374, 375, 376, 377, 378, 379, 380, 381, 382, 383, 384, 385, 386, 387, 388, 389, 390, 391, 392, 393, 394, 395, 396, 397, 398, 399, 400, 401, 402, 403, 404, 405, 406, 407, 408, 409, 410, 411, 412, 413, 414, 415, 416, 417, 418, 419, 420, 421, 422, 423, 424, 425, 426, 427, 428, 429, 430, 431, 432, 433, 434, 435, 436, 437, 438, 439, 440, 441, 442, 443, 444, 445, 446, 447, 448, 449, 450, 451, 452, 453, 454],
      "AcquisitionTime": ["165854.127500", "165855.617500", "165857.107500", "165858.597500", "165900.087500", "165901.577500", "165903.067500", "165904.557500", "165906.047500", "165907.537500", "165909.027500", "165910.517500", "165912.007500", "165913.497500", "165914.987500", "165916.477500", "165917.967500", "165919.457500", "165920.947500", "165922.437500", "165923.927500", "165925.417500", "165926.907500", "165928.397500", "165929.887500", "165931.377500", "165932.867500", "165934.357500", "165935.847500", "165937.337500", "165938.827500", "165940.317500", "165941.807500", "165943.297500", "165944.787500", "165946.277500", "165947.767500", "165949.257500", "165950.747500", "165952.237500", "165953.727500", "165955.217500", "165956.707500", "165958.197500", "165959.687500", "170001.177500", "170002.667500", "170004.157500", "170005.647500", "170007.137500", "170008.627500", "170010.117500", "170011.607500", "170013.097500", "170014.587500", "170016.077500", "170017.567500", "170019.057500", "170020.547500", "170022.037500", "170023.527500", "170025.017500", "170026.507500", "170027.997500", "170029.487500", "170030.977500", "170032.467500", "170033.957500", "170035.447500", "170036.937500", "170038.427500", "170039.917500", "170041.407500", "170042.897500", "170044.387500", "170045.877500", "170047.367500", "170048.857500", "170050.347500", "170051.837500", "170053.327500", "170054.817500", "170056.307500", "170057.797500", "170059.287500", "170100.777500", "170102.267500", "170103.757500", "170105.247500", "170106.737500", "170108.227500", "170109.717500", "170111.207500", "170112.697500", "170114.187500", "170115.677500", "170117.167500", "170118.657500", "170120.147500", "170121.637500", "170123.127500", "170124.617500", "170126.107500", "170127.597500", "170129.087500", "170130.577500", "170132.067500", "170133.557500", "170135.047500", "170136.537500", "170138.027500", "170139.517500", "170141.007500", "170142.497500", "170143.987500", "170145.477500", "170146.967500", "170148.457500", "170149.947500", "170151.437500", "170152.927500", "170154.417500", "170155.907500", "170157.397500", "170158.887500", "170200.377500", "170201.867500", "170203.357500", "170204.847500", "170206.337500", "170207.827500", "170209.317500", "170210.807500", "170212.297500", "170213.787500", "170215.277500", "170216.767500", "170218.257500", "170219.747500", "170221.237500", "170222.727500", "170224.217500", "170225.707500", "170227.197500", "170228.687500", "170230.177500", "170231.667500", "170233.157500", "170234.647500", "170236.137500", "170237.627500", "170239.117500", "170240.607500", "170242.097500", "170243.587500", "170245.077500", "170246.567500", "170248.057500", "170249.547500", "170251.037500", "170252.527500", "170254.017500", "170255.507500", "170256.997500", "170258.487500", "170259.977500", "170301.467500", "170302.957500", "170304.447500", "170305.937500", "170307.427500", "170308.917500", "170310.407500", "170311.897500", "170313.387500", "170314.877500", "170316.367500", "170317.857500", "170319.347500", "170320.837500", "170322.327500", "170323.817500", "170325.307500", "170326.797500", "170328.287500", "170329.777500", "170331.267500", "170332.757500", "170334.247500", "170335.737500", "170337.227500", "170338.717500", "170340.207500", "170341.697500", "170343.187500", "170344.677500", "170346.167500", "170347.657500", "170349.147500", "170350.637500", "170352.127500", "170353.617500", "170355.107500", "170356.597500", "170358.087500", "170359.577500", "170401.067500", "170402.557500", "170404.047500", "170405.537500", "170407.027500", "170408.517500", "170410.007500", "170411.497500", "170412.987500", "170414.477500", "170415.967500", "170417.457500", "170418.947500", "170420.437500", "170421.927500", "170423.417500", "170424.907500", "170426.397500", "170427.887500", "170429.377500", "170430.867500", "170432.357500", "170433.847500", "170435.337500", "170436.827500", "170438.317500", "170439.807500", "170441.297500", "170442.787500", "170444.277500", "170445.767500", "170447.257500", "170448.747500", "170450.237500", "170451.727500", "170453.217500", "170454.707500", "170456.197500", "170457.687500", "170459.177500", "170500.667500", "170502.157500", "170503.647500", "170505.137500", "170506.627500", "170508.117500", "170509.607500", "170511.097500", "170512.587500", "170514.077500", "170515.567500", "170517.057500", "170518.547500", "170520.037500", "170521.527500", "170523.017500", "170524.507500", "170525.997500", "170527.487500", "170528.977500", "170530.467500", "170531.957500", "170533.447500", "170534.937500", "170536.427500", "170537.917500", "170539.407500", "170540.897500", "170542.387500", "170543.877500", "170545.367500", "170546.857500", "170548.347500", "170549.837500", "170551.327500", "170552.817500", "170554.307500", "170555.797500", "170557.287500", "170558.777500", "170600.267500", "170601.757500", "170603.247500", "170604.737500", "170606.227500", "170607.717500", "170609.207500", "170610.697500", "170612.187500", "170613.677500", "170615.167500", "170616.657500", "170618.147500", "170619.637500", "170621.127500", "170622.617500", "170624.107500", "170625.597500", "170627.087500", "170628.577500", "170630.067500", "170631.557500", "170633.047500", "170634.537500", "170636.027500", "170637.517500", "170639.007500", "170640.497500", "170641.987500", "170643.477500", "170644.967500", "170646.457500", "170647.947500", "170649.437500", "170650.927500", "170652.417500", "170653.907500", "170655.397500", "170656.887500", "170658.377500", "170659.867500", "170701.357500", "170702.847500", "170704.337500", "170705.827500", "170707.317500", "170708.807500", "170710.297500", "170711.787500", "170713.277500", "170714.767500", "170716.257500", "170717.747500", "170719.237500", "170720.727500", "170722.217500", "170723.707500", "170725.197500", "170726.687500", "170728.177500", "170729.667500", "170731.157500", "170732.647500", "170734.137500", "170735.627500", "170737.117500", "170738.607500", "170740.097500", "170741.587500", "170743.077500", "170744.567500", "170746.057500", "170747.547500", "170749.037500", "170750.527500", "170752.017500", "170753.507500", "170754.997500", "170756.487500", "170757.977500", "170759.467500", "170800.957500", "170802.447500", "170803.937500", "170805.427500", "170806.917500", "170808.407500", "170809.897500", "170811.387500", "170812.877500", "170814.367500", "170815.857500", "170817.347500", "170818.837500", "170820.327500", "170821.817500", "170823.307500", "170824.797500", "170826.287500", "170827.777500", "170829.267500", "170830.757500", "170832.247500", "170833.737500", "170835.227500", "170836.717500", "170838.207500", "170839.697500", "170841.187500", "170842.677500", "170844.167500", "170845.657500", "170847.147500", "170848.637500", "170850.127500", "170851.617500", "170853.107500", "170854.597500", "170856.087500", "170857.577500", "170859.067500", "170900.557500", "170902.047500", "170903.537500", "170905.027500", "170906.517500", "170908.007500", "170909.497500", "170910.987500", "170912.477500", "170913.967500", "170915.457500", "170916.947500", "170918.437500", "170919.927500", "170921.417500", "170922.907500", "170924.397500", "170925.887500", "170927.377500", "170928.867500", "170930.357500", "170931.847500", "170933.337500", "170934.827500", "170936.317500", "170937.807500", "170939.297500", "170940.787500", "170942.277500", "170943.767500", "170945.257500", "170946.747500", "170948.237500", "170949.727500", "170951.217500", "170952.707500", "170954.197500", "170955.687500", "170957.177500", "170958.667500", "171000.157500", "171001.647500", "171003.137500", "171004.627500", "171006.117500", "171007.607500", "171009.097500"],
      "ContentTime": ["170017.309000", "170017.313000", "170017.316000", "170017.320000", "170017.323000", "170017.327000", "170017.330000", "170017.334000", "170017.338000", "170017.341000", "170017.344000", "170017.348000", "170017.351000", "170017.355000", "170017.358000", "170017.362000", "170017.365000", "170017.368000", "170017.372000", "170017.375000", "170017.379000", "170017.382000", "170017.385000", "170017.389000", "170017.400000", "170017.403000", "170017.406000", "170017.410000", "170017.413000", "170017.417000", "170017.420000", "170037.265000", "170037.269000", "170037.272000", "170037.276000", "170037.279000", "170037.283000", "170037.286000", "170037.289000", "170037.293000", "170037.296000", "170037.300000", "170037.303000", "170037.307000", "170037.310000", "170037.313000", "170037.317000", "170037.320000", "170037.324000", "170037.327000", "170037.330000", "170057.264000", "170057.268000", "170057.271000", "170057.275000", "170057.278000", "170057.282000", "170057.285000", "170057.288000", "170057.308000", "170057.311000", "170057.325000", "170057.328000", "170057.332000", "170057.335000", "170057.339000", "170057.342000", "170057.346000", "170057.349000", "170057.352000", "170057.356000", "170117.264000", "170117.268000", "170117.271000", "170117.275000", "170117.278000", "170117.282000", "170117.285000", "170117.288000", "170117.292000", "170117.295000", "170117.309000", "170117.313000", "170117.316000", "170117.320000", "170117.323000", "170117.326000", "170117.330000", "170117.333000", "170117.337000", "170117.340000", "170157.264000", "170157.268000", "170157.272000", "170157.275000", "170157.279000", "170157.282000", "170157.285000", "170157.289000", "170157.292000", "170157.296000", "170157.299000", "170157.303000", "170157.306000", "170157.309000", "170157.313000", "170157.316000", "170157.320000", "170157.323000", "170157.327000", "170157.330000", "170157.334000", "170157.337000", "170157.340000", "170157.344000", "170157.347000", "170157.351000", "170157.354000", "170157.357000", "170157.361000", "170157.364000", "170157.368000", "170237.265000", "170237.269000", "170237.273000", "170237.276000", "170237.280000", "170237.283000", "170237.287000", "170237.290000", "170237.293000", "170237.297000", "170237.300000", "170237.304000", "170237.307000", "170237.310000", "170237.314000", "170237.317000", "170237.321000", "170237.324000", "170237.328000", "170237.331000", "170237.335000", "170237.338000", "170237.342000", "170237.345000", "170237.349000", "170237.352000", "170237.355000", "170317.264000", "170317.268000", "170317.271000", "170317.275000", "170317.278000", "170317.282000", "170317.285000", "170317.288000", "170317.292000", "170317.295000", "170317.299000", "170317.302000", "170317.306000", "170317.309000", "170317.313000", "170317.316000", "170317.320000", "170317.323000", "170317.327000", "170317.347000", "170317.351000", "170317.354000", "170317.357000", "170317.361000", "170317.364000", "170317.368000", "170317.371000", "170357.264000", "170357.268000", "170357.272000", "170357.276000", "170357.279000", "170357.282000", "170357.286000", "170357.289000", "170357.293000", "170357.296000", "170357.300000", "170357.303000", "170357.307000", "170357.310000", "170357.314000", "170357.317000", "170357.321000", "170357.324000", "170357.328000", "170357.331000", "170357.335000", "170357.338000", "170357.342000", "170357.345000", "170357.349000", "170357.352000", "170437.264000", "170437.268000", "170437.272000", "170437.275000", "170437.278000", "170437.282000", "170437.285000", "170437.289000", "170437.292000", "170437.296000", "170437.299000", "170437.303000", "170437.306000", "170437.309000", "170437.313000", "170437.316000", "170437.320000", "170437.323000", "170437.327000", "170437.330000", "170437.334000", "170437.337000", "170437.340000", "170437.344000", "170437.347000", "170437.351000", "170437.354000", "170517.265000", "170517.269000", "170517.272000", "170517.276000", "170517.279000", "170517.283000", "170517.286000", "170517.290000", "170517.293000", "170517.297000", "170517.300000", "170517.304000", "170517.307000", "170517.310000", "170517.314000", "170517.318000", "170517.321000", "170517.325000", "170517.328000", "170517.331000", "170517.335000", "170517.338000", "170517.342000", "170517.345000", "170517.349000", "170517.352000", "170517.356000", "170557.264000", "170557.268000", "170557.272000", "170557.285000", "170557.289000", "170557.292000", "170557.296000", "170557.299000", "170557.302000", "170557.306000", "170557.309000", "170557.313000", "170557.316000", "170557.319000", "170557.323000", "170557.326000", "170557.330000", "170557.333000", "170557.337000", "170557.340000", "170557.343000", "170557.347000", "170557.350000", "170557.354000", "170557.357000", "170557.361000", "170557.364000", "170637.264000", "170637.268000", "170637.272000", "170637.275000", "170637.279000", "170637.282000", "170637.285000", "170637.289000", "170637.293000", "170637.296000", "170637.299000", "170637.303000", "170637.306000", "170637.310000", "170637.313000", "170637.317000", "170637.320000", "170637.323000", "170637.327000", "170637.330000", "170637.334000", "170637.337000", "170637.341000", "170637.344000", "170637.347000", "170637.351000", "170637.354000", "170717.265000", "170717.269000", "170717.273000", "170717.276000", "170717.280000", "170717.283000", "170717.287000", "170717.290000", "170717.293000", "170717.297000", "170717.300000", "170717.304000", "170717.307000", "170717.310000", "170717.314000", "170717.318000", "170717.321000", "170717.325000", "170717.328000", "170717.332000", "170717.335000", "170717.338000", "170717.347000", "170717.350000", "170717.354000", "170717.357000", "170717.361000", "170757.264000", "170757.268000", "170757.271000", "170757.275000", "170757.278000", "170757.282000", "170757.285000", "170757.289000", "170757.292000", "170757.296000", "170757.299000", "170757.303000", "170757.306000", "170757.309000", "170757.313000", "170757.316000", "170757.320000", "170757.323000", "170757.344000", "170757.348000", "170757.354000", "170757.358000", "170757.361000", "170757.365000", "170757.368000", "170757.372000", "170757.375000", "170837.265000", "170837.268000", "170837.272000", "170837.275000", "170837.279000", "170837.282000", "170837.286000", "170837.289000", "170837.294000", "170837.297000", "170837.301000", "170837.305000", "170837.308000", "170837.311000", "170837.315000", "170837.318000", "170837.322000", "170837.325000", "170837.329000", "170837.333000", "170837.336000", "170837.340000", "170837.343000", "170837.346000", "170837.350000", "170837.353000", "170917.264000", "170917.268000", "170917.272000", "170917.275000", "170917.278000", "170917.282000", "170917.285000", "170917.289000", "170917.292000", "170917.296000", "170917.299000", "170917.303000", "170917.306000", "170917.310000", "170917.313000", "170917.317000", "170917.320000", "170917.324000", "170917.327000", "170917.331000", "170917.334000", "170917.337000", "170917.341000", "170917.344000", "170917.348000", "170917.351000", "170917.355000", "170957.264000", "170957.268000", "170957.271000", "170957.275000", "170957.279000", "170957.282000", "170957.285000", "170957.289000", "170957.292000", "170957.296000", "170957.299000", "170957.302000", "170957.306000", "170957.309000", "170957.313000", "170957.316000", "170957.320000", "170957.323000", "170957.327000", "170957.330000", "170957.334000", "170957.345000", "170957.348000", "170957.352000", "170957.355000", "170957.359000", "170957.362000", "171012.646000", "171012.650000", "171012.654000", "171012.657000", "171012.661000", "171012.664000", "171012.668000", "171012.671000", "171012.675000", "171012.678000"],
