{
  "AcquisitionMatrixPE": 104,
  "AcquisitionNumber": 1,
  "AcquisitionTime": "16:31:28.812500",
  "BandwidthPerPixelPhaseEncode": 17.17,
  "BaseResolution": 104,
  "BodyPartExamined": "BRAIN",
  "CoilCombinationMethod": "Sum of Squares",
  "ConsistencyInfo": "N4_VE11C_LATEST_20160120",
  "ConversionSoftware": "dcm2niix",
  "ConversionSoftwareVersion": "v1.0.20211006",
  "DerivedVendorReportedEchoSpacing": 0.000560011,
  "DeviceSerialNumber": "167006",
  "DwellTime": 2.1e-06,
  "EchoTime": 0.037,
  "EchoTrainLength": 104,
  "EffectiveEchoSpacing": 0.000560011,
  "FlipAngle": 52,
  "HeudiconvVersion": "0.5.3.post569+g418601f",
  "ImageComments": "Unaliased MB4/PE3/LB",
  "ImageOrientationPatientDICOM": [0.999738, -0.0217323, 0.00722637, 0.0228618, 0.92824, -0.371279],
  "ImageOrientationText": "Tra>Cor(-21.8)>Sag(-0.1)",
  "ImageType": [
    "ORIGINAL",
    "PRIMARY",
    "M",
    "MB",
    "ND",
    "MOSAIC"
],
  "ImagingFrequency": 123.259,
  "InPlanePhaseEncodingDirectionDICOM": "COL",
  "InstitutionAddress": "Chemin Queen-Mary 4565,Montreal,District,CA,H3W 1W5",
  "InstitutionName": "IUGM",
  "InstitutionalDepartmentName": "Department",
  "MRAcquisitionType": "2D",
  "MagneticFieldStrength": 3,
  "Manufacturer": "Siemens",
  "ManufacturersModelName": "Prisma_fit",
  "MatrixCoilMode": "SENSE",
  "Modality": "MR",
  "MultibandAccelerationFactor": 4,
  "PartialFourier": 1,
  "PatientPosition": "HFS",
  "PercentPhaseFOV": 100,
  "PercentSampling": 100,
  "PhaseEncodingDirection": "j",
  "PhaseEncodingSteps": 104,
  "PhaseResolution": 1,
  "PixelBandwidth": 2290,
  "ProcedureStepDescription": "games^mario",
  "ProtocolName": "func_task-mario_run-01",
  "PulseSequenceDetails": "%CustomerSeq%\\cmrr_mbep2d_bold",
  "ReceiveCoilActiveElements": "HC1-7;NC1,2",
  "ReceiveCoilName": "HeadNeck_64",
  "ReconMatrixPE": 104,
  "RepetitionTime": 1.49,
  "SAR": 0.0442324,
  "ScanOptions": "FS",
  "ScanningSequence": "EP",
  "SequenceName": "epfid2d1_104",
  "SequenceVariant": "SK\\SS",
  "SeriesDescription": "func_task-mario_run-01",
  "SeriesNumber": 10,
  "ShimSetting": [614, -7255, -8833, 361, 0, -327, 27, 16],
  "SliceThickness": 2,
  "SliceTiming": [0, 0.7825, 0.0975, 0.88, 0.195, 0.98, 0.2925, 1.0775, 0.39, 1.175, 0.49, 1.2725, 0.5875, 1.37, 0.685, 0, 0.7825, 0.0975, 0.88, 0.195, 0.98, 0.2925, 1.0775, 0.39, 1.175, 0.49, 1.2725, 0.5875, 1.37, 0.685, 0, 0.7825, 0.0975, 0.88, 0.195, 0.98, 0.2925, 1.0775, 0.39, 1.175, 0.49, 1.2725, 0.5875, 1.37, 0.685, 0, 0.7825, 0.0975, 0.88, 0.195, 0.98, 0.2925, 1.0775, 0.39, 1.175, 0.49, 1.2725, 0.5875, 1.37, 0.685],
  "SoftwareVersions": "syngo MR E11",
  "SpacingBetweenSlices": 2,
  "StationName": "MRC35049",
  "TaskName": "mario",
  "TotalReadoutTime": 0.0576811,
  "TxRefAmp": 255.545,
  "WipMemBlock": "37efb52a-8b03-4275-abda-3c3581694dae||Sequence: R016 ve11c/master r/e634e98; Dec 19 2017 11:00:25 by eja",
  "dcmmeta_affine": [
    [-1.999475359916687, 0.04572364315390587, -0.0027219264302402735, 101.85821533203125],
    [0.04346468299627304, 1.8564796447753906, -0.7426940202713013, -63.34224319458008],
    [0.0144527368247509, 0.7425583004951477, 1.856986403465271, -66.82899475097656],
    [0.0, 0.0, 0.0, 1.0]
],
  "dcmmeta_reorient_transform": [
    [0.0, -1.0, 0.0, 103.0],
    [1.0, 0.0, 0.0, 0.0],
    [0.0, 0.0, 1.0, 0.0],
    [0.0, 0.0, 0.0, 1.0]
],
  "dcmmeta_shape": [104, 104, 60, 492],
  "dcmmeta_slice_dim": 2,
  "dcmmeta_version": 0.6,
  "global": {
    "const": {
      "AcquisitionMatrix": [104, 0, 0, 104],
      "AngioFlag": "N",
      "BitsAllocated": 16,
      "BitsStored": 16,
      "BodyPartExamined": "BRAIN",
      "Columns": 832,
      "EchoNumbers": 1,
      "EchoTime": 37.0,
      "EchoTrainLength": 104,
      "FlipAngle": 52.0,
      "HighBit": 15,
      "ImageOrientationPatient": [0.99973770804779, -0.0217323423951, 0.00722636847744, 0.02286182159749, 0.92823979632306, -0.37127916402],
      "ImagePositionPatient": [-851.02021006508, -787.81258271053, 274.68495186184],
      "ImageType": [
        "ORIGINAL",
        "PRIMARY",
        "M",
        "MB",
        "ND",
        "MOSAIC"
],
      "ImagedNucleus": "1H",
      "ImagingFrequency": 123.258829,
      "InPlanePhaseEncodingDirection": "COL",
      "MRAcquisitionType": "2D",
      "MagneticFieldStrength": 3.0,
      "Manufacturer": "SIEMENS",
      "ManufacturerModelName": "Prisma_fit",
      "Modality": "MR",
      "NumberOfAverages": 1.0,
      "NumberOfPhaseEncodingSteps": 104,
      "PercentPhaseFieldOfView": 100.0,
      "PercentSampling": 100.0,
      "PerformedProcedureStepStartTime": "160259.055000",
      "PhotometricInterpretation": "MONOCHROME2",
      "PixelBandwidth": 2290.0,
      "PixelRepresentation": 0,
      "PixelSpacing": [2.0, 2.0],
      "ProtocolName": "func_task-mario_run-01",
      "RepetitionTime": 1490.0,
      "Rows": 832,
      "SAR": 0.04423236144595,
      "SamplesPerPixel": 1,
      "ScanOptions": "FS",
      "ScanningSequence": "EP",
      "SequenceName": "epfid2d1_104",
      "SequenceVariant": [
        "SK",
        "SS"
],
      "SeriesDescription": "func_task-mario_run-01",
      "SeriesNumber": 10,
      "SeriesTime": "163251.997000",
      "SliceLocation": -38.66693615183,
      "SliceThickness": 2.0,
      "SmallestImagePixelValue": 0,
      "SoftwareVersions": "syngo MR E11",
      "SpacingBetweenSlices": 2.0000000727061,
      "SpecificCharacterSet": "ISO_IR 100",
      "StudyID": "1",
      "StudyTime": "160258.986000",
      "TransmitCoilName": "Body",
      "VariableFlipAngleFlag": "N",
      "WindowCenterWidthExplanation": "Algo1",
      "dBdt": 0.0},
    "slices": {}
  },
  "time": {
    "samples": {
      "AcquisitionNumber": [1, 2, 3, 4, 5, 6, 7, 8, 9, 10, 11, 12, 13, 14, 15, 16, 17, 18, 19, 20, 21, 22, 23, 24, 25, 26, 27, 28, 29, 30, 31, 32, 33, 34, 35, 36, 37, 38, 39, 40, 41, 42, 43, 44, 45, 46, 47, 48, 49, 50, 51, 52, 53, 54, 55, 56, 57, 58, 59, 60, 61, 62, 63, 64, 65, 66, 67, 68, 69, 70, 71, 72, 73, 74, 75, 76, 77, 78, 79, 80, 81, 82, 83, 84, 85, 86, 87, 88, 89, 90, 91, 92, 93, 94, 95, 96, 97, 98, 99, 100, 101, 102, 103, 104, 105, 106, 107, 108, 109, 110, 111, 112, 113, 114, 115, 116, 117, 118, 119, 120, 121, 122, 123, 124, 125, 126, 127, 128, 129, 130, 131, 132, 133, 134, 135, 136, 137, 138, 139, 140, 141, 142, 143, 144, 145, 146, 147, 148, 149, 150, 151, 152, 153, 154, 155, 156, 157, 158, 159, 160, 161, 162, 163, 164, 165, 166, 167, 168, 169, 170, 171, 172, 173, 174, 175, 176, 177, 178, 179, 180, 181, 182, 183, 184, 185, 186, 187, 188, 189, 190, 191, 192, 193, 194, 195, 196, 197, 198, 199, 200, 201, 202, 203, 204, 205, 206, 207, 208, 209, 210, 211, 212, 213, 214, 215, 216, 217, 218, 219, 220, 221, 222, 223, 224, 225, 226, 227, 228, 229, 230, 231, 232, 233, 234, 235, 236, 237, 238, 239, 240, 241, 242, 243, 244, 245, 246, 247, 248, 249, 250, 251, 252, 253, 254, 255, 256, 257, 258, 259, 260, 261, 262, 263, 264, 265, 266, 267, 268, 269, 270, 271, 272, 273, 274, 275, 276, 277, 278, 279, 280, 281, 282, 283, 284, 285, 286, 287, 288, 289, 290, 291, 292, 293, 294, 295, 296, 297, 298, 299, 300, 301, 302, 303, 304, 305, 306, 307, 308, 309, 310, 311, 312, 313, 314, 315, 316, 317, 318, 319, 320, 321, 322, 323, 324, 325, 326, 327, 328, 329, 330, 331, 332, 333, 334, 335, 336, 337, 338, 339, 340, 341, 342, 343, 344, 345, 346, 347, 348, 349, 350, 351, 352, 353, 354, 355, 356, 357, 358, 359, 360, 361, 362, 363, 364, 365, 366, 367, 368, 369, 370, 371, 372, 373, 374, 375, 376, 377, 378, 379, 380, 381, 382, 383, 384, 385, 386, 387, 388, 389, 390, 391, 392, 393, 394, 395, 396, 397, 398, 399, 400, 401, 402, 403, 404, 405, 406, 407, 408, 409, 410, 411, 412, 413, 414, 415, 416, 417, 418, 419, 420, 421, 422, 423, 424, 425, 426, 427, 428, 429, 430, 431, 432, 433, 434, 435, 436, 437, 438, 439, 440, 441, 442, 443, 444, 445, 446, 447, 448, 449, 450, 451, 452, 453, 454, 455, 456, 457, 458, 459, 460, 461, 462, 463, 464, 465, 466, 467, 468, 469, 470, 471, 472, 473, 474, 475, 476, 477, 478, 479, 480, 481, 482, 483, 484, 485, 486, 487, 488, 489, 490, 491, 492],
      "AcquisitionTime": ["163128.812500", "163130.302500", "163131.792500", "163133.282500", "163134.772500", "163136.262500", "163137.752500", "163139.242500", "163140.732500", "163142.222500", "163143.712500", "163145.202500", "163146.692500", "163148.182500", "163149.672500", "163151.162500", "163152.652500", "163154.142500", "163155.632500", "163157.122500", "163158.612500", "163200.102500", "163201.592500", "163203.082500", "163204.572500", "163206.062500", "163207.552500", "163209.042500", "163210.532500", "163212.022500", "163213.512500", "163215.002500", "163216.492500", "163217.982500", "163219.472500", "163220.962500", "163222.452500", "163223.942500", "163225.432500", "163226.922500", "163228.412500", "163229.902500", "163231.392500", "163232.882500", "163234.372500", "163235.862500", "163237.352500", "163238.842500", "163240.332500", "163241.822500", "163243.312500", "163244.802500", "163246.292500", "163247.782500", "163249.272500", "163250.762500", "163252.252500", "163253.742500", "163255.232500", "163256.722500", "163258.212500", "163259.702500", "163301.192500", "163302.682500", "163304.172500", "163305.662500", "163307.152500", "163308.642500", "163310.132500", "163311.622500", "163313.112500", "163314.602500", "163316.092500", "163317.582500", "163319.072500", "163320.562500", "163322.052500", "163323.542500", "163325.032500", "163326.522500", "163328.012500", "163329.502500", "163330.992500", "163332.482500", "163333.972500", "163335.462500", "163336.952500", "163338.442500", "163339.932500", "163341.422500", "163342.912500", "163344.402500", "163345.892500", "163347.382500", "163348.872500", "163350.362500", "163351.852500", "163353.342500", "163354.832500", "163356.322500", "163357.812500", "163359.302500", "163400.792500", "163402.282500", "163403.772500", "163405.262500", "163406.752500", "163408.242500", "163409.732500", "163411.222500", "163412.712500", "163414.202500", "163415.692500", "163417.182500", "163418.672500", "163420.162500", "163421.652500", "163423.142500", "163424.632500", "163426.122500", "163427.612500", "163429.102500", "163430.592500", "163432.082500", "163433.572500", "163435.062500", "163436.552500", "163438.042500", "163439.532500", "163441.022500", "163442.512500", "163444.002500", "163445.492500", "163446.982500", "163448.472500", "163449.962500", "163451.452500", "163452.942500", "163454.432500", "163455.922500", "163457.412500", "163458.902500", "163500.392500", "163501.882500", "163503.372500", "163504.862500", "163506.352500", "163507.842500", "163509.332500", "163510.822500", "163512.312500", "163513.802500", "163515.292500", "163516.782500", "163518.272500", "163519.762500", "163521.252500", "163522.742500", "163524.232500", "163525.722500", "163527.212500", "163528.702500", "163530.192500", "163531.682500", "163533.172500", "163534.662500", "163536.152500", "163537.642500", "163539.132500", "163540.622500", "163542.112500", "163543.602500", "163545.092500", "163546.582500", "163548.072500", "163549.562500", "163551.052500", "163552.542500", "163554.032500", "163555.522500", "163557.012500", "163558.502500", "163559.992500", "163601.482500", "163602.972500", "163604.462500", "163605.952500", "163607.442500", "163608.932500", "163610.422500", "163611.912500", "163613.402500", "163614.892500", "163616.382500", "163617.872500", "163619.362500", "163620.852500", "163622.342500", "163623.832500", "163625.322500", "163626.812500", "163628.302500", "163629.792500", "163631.282500", "163632.772500", "163634.262500", "163635.752500", "163637.242500", "163638.732500", "163640.222500", "163641.712500", "163643.202500", "163644.692500", "163646.182500", "163647.672500", "163649.162500", "163650.652500", "163652.142500", "163653.632500", "163655.122500", "163656.612500", "163658.102500", "163659.592500", "163701.082500", "163702.572500", "163704.062500", "163705.552500", "163707.042500", "163708.532500", "163710.022500", "163711.512500", "163713.002500", "163714.492500", "163715.982500", "163717.472500", "163718.962500", "163720.452500", "163721.942500", "163723.432500", "163724.922500", "163726.412500", "163727.902500", "163729.392500", "163730.882500", "163732.372500", "163733.862500", "163735.352500", "163736.842500", "163738.332500", "163739.822500", "163741.312500", "163742.802500", "163744.292500", "163745.782500", "163747.272500", "163748.762500", "163750.252500", "163751.742500", "163753.232500", "163754.722500", "163756.212500", "163757.702500", "163759.192500", "163800.682500", "163802.172500", "163803.662500", "163805.152500", "163806.642500", "163808.132500", "163809.622500", "163811.112500", "163812.602500", "163814.092500", "163815.582500", "163817.072500", "163818.562500", "163820.052500", "163821.542500", "163823.032500", "163824.522500", "163826.012500", "163827.502500", "163828.992500", "163830.482500", "163831.972500", "163833.462500", "163834.952500", "163836.442500", "163837.932500", "163839.422500", "163840.912500", "163842.402500", "163843.892500", "163845.382500", "163846.872500", "163848.362500", "163849.852500", "163851.342500", "163852.832500", "163854.322500", "163855.812500", "163857.302500", "163858.792500", "163900.282500", "163901.772500", "163903.262500", "163904.752500", "163906.242500", "163907.732500", "163909.222500", "163910.712500", "163912.202500", "163913.692500", "163915.182500", "163916.672500", "163918.162500", "163919.652500", "163921.142500", "163922.632500", "163924.122500", "163925.612500", "163927.102500", "163928.592500", "163930.082500", "163931.572500", "163933.062500", "163934.552500", "163936.042500", "163937.532500", "163939.022500", "163940.512500", "163942.002500", "163943.492500", "163944.982500", "163946.472500", "163947.962500", "163949.452500", "163950.942500", "163952.432500", "163953.922500", "163955.412500", "163956.902500", "163958.392500", "163959.882500", "164001.372500", "164002.862500", "164004.352500", "164005.842500", "164007.332500", "164008.822500", "164010.312500", "164011.802500", "164013.292500", "164014.782500", "164016.272500", "164017.762500", "164019.252500", "164020.742500", "164022.232500", "164023.722500", "164025.212500", "164026.702500", "164028.192500", "164029.682500", "164031.172500", "164032.662500", "164034.152500", "164035.642500", "164037.132500", "164038.622500", "164040.112500", "164041.602500", "164043.092500", "164044.582500", "164046.072500", "164047.562500", "164049.052500", "164050.542500", "164052.032500", "164053.522500", "164055.012500", "164056.502500", "164057.992500", "164059.482500", "164100.972500", "164102.462500", "164103.952500", "164105.442500", "164106.932500", "164108.422500", "164109.912500", "164111.402500", "164112.892500", "164114.382500", "164115.872500", "164117.362500", "164118.852500", "164120.342500", "164121.832500", "164123.322500", "164124.812500", "164126.302500", "164127.792500", "164129.282500", "164130.772500", "164132.262500", "164133.752500", "164135.242500", "164136.732500", "164138.222500", "164139.712500", "164141.202500", "164142.692500", "164144.182500", "164145.672500", "164147.162500", "164148.652500", "164150.142500", "164151.632500", "164153.122500", "164154.612500", "164156.102500", "164157.592500", "164159.082500", "164200.572500", "164202.062500", "164203.552500", "164205.042500", "164206.532500", "164208.022500", "164209.512500", "164211.002500", "164212.492500", "164213.982500", "164215.472500", "164216.962500", "164218.452500", "164219.942500", "164221.432500", "164222.922500", "164224.412500", "164225.902500", "164227.392500", "164228.882500", "164230.372500", "164231.862500", "164233.352500", "164234.842500", "164236.332500", "164237.822500", "164239.312500", "164240.802500", "164242.292500", "164243.782500", "164245.272500", "164246.762500", "164248.252500", "164249.742500", "164251.232500", "164252.722500", "164254.212500", "164255.702500", "164257.192500", "164258.682500", "164300.172500", "164301.662500", "164303.152500", "164304.642500", "164306.132500", "164307.622500", "164309.112500", "164310.602500", "164312.092500", "164313.582500", "164315.072500", "164316.562500", "164318.052500", "164319.542500", "164321.032500", "164322.522500", "164324.012500", "164325.502500", "164326.992500", "164328.482500", "164329.972500", "164331.462500", "164332.952500", "164334.442500", "164335.932500", "164337.422500", "164338.912500", "164340.402500"],
      "ContentTime": ["163252.001000", "163252.005000", "163252.009000", "163252.012000", "163252.015000", "163252.019000", "163252.023000", "163252.026000", "163252.030000", "163252.033000", "163252.037000", "163252.041000", "163252.044000", "163252.074000", "163252.077000", "163252.081000", "163252.084000", "163252.087000", "163252.091000", "163252.094000", "163252.098000", "163252.101000", "163252.104000", "163252.108000", "163252.111000", "163252.114000", "163252.118000", "163252.121000", "163252.125000", "163311.955000", "163311.959000", "163311.963000", "163311.978000", "163311.981000", "163311.984000", "163311.988000", "163311.991000", "163311.995000", "163311.998000", "163312.002000", "163312.006000", "163312.009000", "163312.012000", "163312.016000", "163312.024000", "163312.027000", "163312.031000", "163312.034000", "163312.038000", "163331.955000", "163331.966000", "163331.970000", "163331.973000", "163331.976000", "163331.980000", "163331.983000", "163331.987000", "163331.990000", "163331.993000", "163331.997000", "163332.001000", "163332.005000", "163332.008000", "163332.012000", "163332.015000", "163332.018000", "163332.022000", "163332.025000", "163332.029000", "163332.032000", "163351.954000", "163351.958000", "163351.961000", "163351.965000", "163351.968000", "163351.972000", "163351.975000", "163351.979000", "163351.982000", "163351.985000", "163351.989000", "163351.992000", "163351.996000", "163352.000000", "163352.003000", "163352.007000", "163352.010000", "163352.014000", "163352.017000", "163352.020000", "163431.954000", "163431.958000", "163431.961000", "163431.965000", "163431.969000", "163431.972000", "163431.975000", "163431.979000", "163431.982000", "163431.986000", "163431.989000", "163431.992000", "163431.996000", "163431.999000", "163432.003000", "163432.006000", "163432.010000", "163432.013000", "163432.016000", "163432.020000", "163432.023000", "163432.027000", "163432.030000", "163432.033000", "163432.037000", "163432.040000", "163432.044000", "163432.047000", "163432.051000", "163432.054000", "163432.058000", "163432.061000", "163511.954000", "163511.958000", "163511.962000", "163511.966000", "163511.975000", "163511.978000", "163511.981000", "163511.985000", "163511.988000", "163511.992000", "163511.995000", "163512.013000", "163512.016000", "163512.019000", "163512.023000", "163512.026000", "163512.030000", "163512.033000", "163512.036000", "163512.040000", "163512.043000", "163512.047000", "163512.050000", "163512.053000", "163512.057000", "163512.060000", "163512.064000", "163551.955000", "163551.959000", "163551.963000", "163551.966000", "163551.969000", "163551.973000", "163551.976000", "163551.980000", "163551.983000", "163551.993000", "163551.997000", "163552.000000", "163552.004000", "163552.007000", "163552.011000", "163552.014000", "163552.017000", "163552.021000", "163552.024000", "163552.028000", "163552.031000", "163552.034000", "163552.038000", "163552.041000", "163552.045000", "163552.048000", "163552.052000", "163631.954000", "163631.958000", "163631.961000", "163631.965000", "163631.968000", "163631.972000", "163631.975000", "163631.979000", "163631.982000", "163631.986000", "163631.989000", "163631.992000", "163631.996000", "163631.999000", "163632.003000", "163632.006000", "163632.010000", "163632.013000", "163632.017000", "163632.020000", "163632.023000", "163632.027000", "163632.030000", "163632.034000", "163632.037000", "163632.040000", "163632.044000", "163711.954000", "163711.958000", "163711.962000", "163711.965000", "163711.969000", "163711.972000", "163711.975000", "163711.979000", "163711.982000", "163711.986000", "163711.989000", "163711.993000", "163711.996000", "163712.000000", "163712.004000", "163712.007000", "163712.011000", "163712.014000", "163712.018000", "163712.022000", "163712.025000", "163712.029000", "163712.032000", "163712.036000", "163712.039000", "163712.043000", "163712.055000", "163751.955000", "163751.959000", "163751.962000", "163751.966000", "163751.978000", "163751.982000", "163751.985000", "163751.988000", "163751.992000", "163751.995000", "163752.000000", "163752.003000", "163752.007000", "163752.010000", "163752.013000", "163752.017000", "163752.020000", "163752.024000", "163752.027000", "163752.031000", "163752.034000", "163752.037000", "163752.041000", "163752.044000", "163752.048000", "163752.051000", "163752.055000", "163831.954000", "163831.958000", "163831.962000", "163831.965000", "163831.969000", "163831.972000", "163831.976000", "163831.979000", "163831.982000", "163831.986000", "163831.991000", "163831.994000", "163831.998000", "163832.002000", "163832.006000", "163832.009000", "163832.012000", "163832.016000", "163832.019000", "163832.023000", "163832.026000", "163832.030000", "163832.033000", "163832.036000", "163832.040000", "163832.044000", "163911.956000", "163911.959000", "163911.963000", "163911.966000", "163911.970000", "163911.973000", "163911.977000", "163911.980000", "163911.983000", "163911.987000", "163911.990000", "163911.994000", "163911.997000", "163912.002000", "163912.005000", "163912.009000", "163912.012000", "163912.015000", "163912.019000", "163912.022000", "163912.026000", "163912.029000", "163912.033000", "163912.036000", "163912.039000", "163912.043000", "163912.046000", "163951.954000", "163951.958000", "163951.961000", "163951.965000", "163951.968000", "163951.972000", "163951.975000", "163951.979000", "163951.982000", "163951.986000", "163952.004000", "163952.007000", "163952.011000", "163952.014000", "163952.018000", "163952.021000", "163952.025000", "163952.028000", "163952.032000", "163952.035000", "163952.039000", "163952.042000", "163952.045000", "163952.049000", "163952.052000", "163952.056000", "163952.059000", "164031.955000", "164031.959000", "164031.963000", "164031.966000", "164031.969000", "164031.973000", "164031.977000", "164031.980000", "164031.983000", "164031.987000", "164031.990000", "164031.994000", "164031.997000", "164032.002000", "164032.010000", "164032.013000", "164032.017000", "164032.020000", "164032.024000", "164032.027000", "164032.030000", "164032.034000", "164032.037000", "164032.041000", "164032.044000", "164032.047000", "164032.051000", "164111.954000", "164111.958000", "164111.962000", "164111.965000", "164111.969000", "164111.972000", "164111.975000", "164111.979000", "164111.982000", "164111.986000", "164111.989000", "164111.993000", "164111.996000", "164112.000000", "164112.003000", "164112.006000", "164112.010000", "164112.013000", "164112.017000", "164112.020000", "164112.024000", "164112.027000", "164112.030000", "164112.034000", "164112.039000", "164112.042000", "164112.046000", "164151.954000", "164151.958000", "164151.962000", "164151.965000", "164151.969000", "164151.972000", "164151.975000", "164151.979000", "164151.982000", "164151.986000", "164151.989000", "164151.993000", "164151.996000", "164151.999000", "164152.003000", "164152.006000", "164152.010000", "164152.013000", "164152.017000", "164152.020000", "164152.024000", "164152.027000", "164152.030000", "164152.034000", "164152.037000", "164152.047000", "164152.051000", "164231.956000", "164231.959000", "164231.963000", "164231.966000", "164231.970000", "164231.973000", "164231.976000", "164231.980000", "164231.983000", "164231.987000", "164231.990000", "164231.994000", "164231.998000", "164232.002000", "164232.006000", "164232.009000", "164232.013000", "164232.016000", "164232.020000", "164232.023000", "164232.027000", "164232.031000", "164232.034000", "164232.037000", "164232.041000", "164232.044000", "164311.954000", "164311.958000", "164311.962000", "164311.965000", "164311.969000", "164311.972000", "164311.976000", "164311.979000", "164311.982000", "164311.986000", "164311.989000", "164311.993000", "164311.996000", "164312.000000", "164312.003000", "164312.006000", "164312.010000", "164312.013000", "164312.017000", "164312.020000", "164312.024000", "164312.027000", "164312.031000", "164312.034000", "164312.038000", "164312.041000", "164312.044000", "164342.169000", "164342.173000", "164342.177000", "164342.180000", "164342.183000", "164342.187000", "164342.190000", "164342.194000", "164342.198000", "164342.201000", "164342.205000", "164342.208000", "164342.212000", "164342.215000", "164342.219000", "164342.222000", "164342.226000", "164342.229000", "164342.233000", "164342.236000", "164342.239000"],
